'sample interval','ECG1','ECG2'
'0.0078125 sec','mV','mV'
0,0.125,-0.045
1,0.005,-0.135
2,0.025,-0.155
3,0.065,-0.125
4,-0.085,-0.105
5,0.005,-0.145
6,-0.065,-0.145
7,-0.015,-0.135
8,-0.035,-0.125
9,-0.035,-0.125
10,0.015,-0.135
11,0.155,0.005
12,0.435,0.335
13,0.655,0.665
14,0.865,-0.265
15,0.125,-0.985
16,-0.925,-1.315
17,-0.935,-1.285
18,-0.615,-0.755
19,-0.235,-0.375
20,0.005,-0.065
21,0.035,0.055
22,0.035,0.065
23,0.015,0.065
24,0.005,0.075
25,0.045,0.065
26,0.045,0.065
27,0.045,0.085
28,0.105,0.115
29,0.105,0.135
30,0.095,0.125
31,0.125,0.145
32,0.115,0.155
33,0.105,0.185
34,0.165,0.195
35,0.155,0.205
36,0.235,0.255
37,0.185,0.265
38,0.205,0.285
39,0.315,0.315
40,0.295,0.365
41,0.305,0.405
42,0.325,0.425
43,0.415,0.455
44,0.425,0.525
45,0.495,0.545
46,0.475,0.555
47,0.525,0.575
48,0.475,0.585
49,0.505,0.575
50,0.415,0.525
51,0.355,0.435
52,0.265,0.325
53,0.175,0.185
54,0.105,0.085
55,0.085,0.005
56,-0.015,-0.045
57,-0.015,-0.075
58,-0.045,-0.115
59,-0.095,-0.125
60,-0.035,-0.125
61,-0.085,-0.145
62,-0.085,-0.155
63,-0.135,-0.145
64,-0.065,-0.145
65,-0.085,-0.155
66,-0.105,-0.155
67,-0.075,-0.145
68,-0.095,-0.135
69,-0.095,-0.135
70,-0.065,-0.145
71,-0.085,-0.135
72,-0.075,-0.125
73,-0.085,-0.125
74,-0.075,-0.145
75,-0.085,-0.145
76,-0.075,-0.135
77,-0.045,-0.145
78,-0.065,-0.135
79,-0.055,-0.145
80,-0.075,-0.135
81,-0.075,-0.155
82,-0.105,-0.165
83,-0.055,-0.155
84,-0.095,-0.145
85,-0.085,-0.155
86,-0.095,-0.155
87,-0.055,-0.165
88,-0.095,-0.155
89,-0.105,-0.175
90,-0.085,-0.175
91,-0.105,-0.165
92,-0.065,-0.165
93,-0.065,-0.175
94,-0.025,-0.155
95,-0.075,-0.165
96,-0.125,-0.165
97,-0.065,-0.175
98,-0.095,-0.165
99,-0.105,-0.155
100,-0.045,-0.135
101,-0.045,-0.145
102,0.015,-0.125
103,0.015,-0.105
104,0.075,-0.095
105,0.055,-0.095
106,0.035,-0.085
107,-0.045,-0.135
108,-0.045,-0.175
109,-0.015,-0.175
110,-0.075,-0.165
111,-0.135,-0.165
112,-0.145,-0.195
113,-0.105,-0.215
114,-0.165,-0.215
115,-0.145,-0.205
116,-0.085,-0.195
117,-0.085,-0.185
118,0.005,-0.115
119,0.295,0.145
120,0.585,0.575
121,0.885,0.005
122,0.055,-0.775
123,-0.955,-1.145
124,-1.055,-1.295
125,-0.725,-0.855
126,-0.455,-0.535
127,-0.175,-0.255
128,-0.065,-0.045
129,-0.125,-0.025
130,-0.045,-0.045
131,-0.065,-0.045
132,-0.035,-0.005
133,-0.035,0.005
134,-0.035,0.005
135,-0.055,0.025
136,0.015,0.035
137,-0.025,0.045
138,-0.015,0.045
139,0.115,0.045
140,0.005,0.095
141,0.025,0.105
142,0.125,0.115
143,0.065,0.145
144,0.155,0.175
145,0.135,0.195
146,0.155,0.225
147,0.185,0.225
148,0.225,0.305
149,0.305,0.345
150,0.265,0.365
151,0.405,0.405
152,0.375,0.455
153,0.395,0.455
154,0.435,0.465
155,0.415,0.465
156,0.415,0.465
157,0.345,0.385
158,0.235,0.305
159,0.145,0.195
160,0.025,0.095
161,-0.055,-0.005
162,-0.065,-0.075
163,-0.155,-0.125
164,-0.175,-0.155
165,-0.155,-0.185
166,-0.215,-0.205
167,-0.245,-0.215
168,-0.135,-0.225
169,-0.235,-0.225
170,-0.255,-0.245
171,-0.215,-0.235
172,-0.225,-0.215
173,-0.285,-0.225
174,-0.155,-0.225
175,-0.225,-0.225
176,-0.245,-0.215
177,-0.205,-0.215
178,-0.265,-0.225
179,-0.225,-0.215
180,-0.185,-0.215
181,-0.245,-0.205
182,-0.195,-0.215
183,-0.225,-0.215
184,-0.225,-0.205
185,-0.175,-0.215
186,-0.255,-0.225
187,-0.235,-0.215
188,-0.275,-0.215
189,-0.135,-0.225
190,-0.225,-0.225
191,-0.225,-0.225
192,-0.215,-0.235
193,-0.235,-0.235
194,-0.225,-0.255
195,-0.245,-0.245
196,-0.255,-0.235
197,-0.245,-0.235
198,-0.185,-0.235
199,-0.235,-0.235
200,-0.225,-0.235
201,-0.285,-0.245
202,-0.185,-0.245
203,-0.205,-0.235
204,-0.245,-0.235
205,-0.205,-0.235
206,-0.235,-0.235
207,-0.235,-0.225
208,-0.195,-0.215
209,-0.205,-0.225
210,-0.235,-0.225
211,-0.135,-0.205
212,-0.165,-0.175
213,-0.105,-0.185
214,-0.105,-0.155
215,-0.095,-0.115
216,-0.045,-0.125
217,-0.015,-0.115
218,-0.135,-0.125
219,-0.105,-0.195
220,-0.235,-0.235
221,-0.135,-0.225
222,-0.205,-0.225
223,-0.225,-0.225
224,-0.255,-0.245
225,-0.285,-0.245
226,-0.225,-0.255
227,-0.225,-0.245
228,-0.235,-0.225
229,-0.235,-0.235
230,-0.025,-0.095
231,0.275,0.245
232,0.585,0.525
233,0.795,-0.585
234,-0.425,-1.275
235,-1.375,-1.555
236,-1.135,-1.235
237,-0.665,-0.715
238,-0.265,-0.315
239,-0.185,-0.055
240,-0.195,-0.015
241,-0.215,-0.025
242,-0.175,-0.035
243,-0.185,-0.025
244,-0.155,-0.015
245,-0.205,0.005
246,-0.115,0.005
247,-0.095,0.025
248,-0.165,0.045
249,-0.105,0.045
250,-0.085,0.065
251,-0.065,0.075
252,-0.105,0.125
253,-0.035,0.135
254,-0.075,0.155
255,0.015,0.185
256,-0.005,0.215
257,0.035,0.245
258,0.075,0.275
259,0.095,0.325
260,0.135,0.365
261,0.205,0.415
262,0.215,0.455
263,0.305,0.505
264,0.305,0.525
265,0.335,0.545
266,0.325,0.555
267,0.305,0.545
268,0.305,0.505
269,0.215,0.395
270,0.115,0.265
271,-0.035,0.145
272,-0.085,0.045
273,-0.155,-0.035
274,-0.185,-0.115
275,-0.225,-0.145
276,-0.235,-0.165
277,-0.225,-0.185
278,-0.225,-0.205
279,-0.265,-0.215
280,-0.275,-0.215
281,-0.295,-0.215
282,-0.285,-0.235
283,-0.265,-0.225
284,-0.275,-0.215
285,-0.275,-0.225
286,-0.225,-0.215
287,-0.235,-0.205
288,-0.265,-0.205
289,-0.215,-0.205
290,-0.265,-0.205
291,-0.245,-0.205
292,-0.235,-0.195
293,-0.225,-0.195
294,-0.165,-0.215
295,-0.235,-0.195
296,-0.215,-0.195
297,-0.215,-0.215
298,-0.235,-0.205
299,-0.195,-0.215
300,-0.225,-0.205
301,-0.215,-0.205
302,-0.245,-0.205
303,-0.175,-0.205
304,-0.245,-0.215
305,-0.215,-0.205
306,-0.225,-0.225
307,-0.235,-0.215
308,-0.195,-0.215
309,-0.205,-0.205
310,-0.205,-0.215
311,-0.225,-0.215
312,-0.165,-0.215
313,-0.215,-0.215
314,-0.225,-0.225
315,-0.215,-0.215
316,-0.245,-0.205
317,-0.185,-0.215
318,-0.215,-0.215
319,-0.185,-0.205
320,-0.195,-0.205
321,-0.225,-0.195
322,-0.185,-0.215
323,-0.245,-0.205
324,-0.145,-0.185
325,-0.195,-0.175
326,-0.165,-0.165
327,-0.125,-0.165
328,-0.055,-0.135
329,-0.115,-0.115
330,-0.075,-0.125
331,-0.025,-0.115
332,-0.085,-0.095
333,-0.165,-0.135
334,-0.185,-0.195
335,-0.155,-0.185
336,-0.215,-0.165
337,-0.195,-0.175
338,-0.315,-0.195
339,-0.245,-0.205
340,-0.245,-0.185
341,-0.225,-0.165
342,-0.255,-0.175
343,-0.175,-0.165
344,-0.065,-0.075
345,0.285,0.145
346,0.535,0.385
347,0.635,-0.365
348,-0.465,-0.875
349,-1.225,-1.105
350,-1.105,-1.005
351,-0.705,-0.665
352,-0.315,-0.345
353,-0.205,-0.095
354,-0.175,-0.035
355,-0.215,-0.025
356,-0.125,-0.005
357,-0.155,-0.005
358,-0.135,0.015
359,-0.105,0.005
360,-0.085,0.025
361,-0.105,0.045
362,-0.095,0.045
363,-0.085,0.065
364,-0.065,0.075
365,-0.025,0.085
366,-0.005,0.105
367,0.005,0.135
368,0.005,0.165
369,0.015,0.165
370,0.065,0.195
371,0.095,0.245
372,0.085,0.285
373,0.145,0.335
374,0.215,0.365
375,0.175,0.405
376,0.265,0.455
377,0.285,0.485
378,0.295,0.515
379,0.385,0.535
380,0.325,0.545
381,0.395,0.545
382,0.335,0.535
383,0.265,0.475
384,0.205,0.375
385,0.085,0.225
386,-0.045,0.115
387,-0.055,0.015
388,-0.165,-0.045
389,-0.115,-0.105
390,-0.195,-0.145
391,-0.195,-0.165
392,-0.245,-0.185
393,-0.205,-0.185
394,-0.235,-0.205
395,-0.215,-0.205
396,-0.235,-0.195
397,-0.205,-0.205
398,-0.175,-0.205
399,-0.245,-0.195
400,-0.185,-0.195
401,-0.205,-0.195
402,-0.205,-0.205
403,-0.155,-0.185
404,-0.215,-0.175
405,-0.215,-0.175
406,-0.175,-0.185
407,-0.165,-0.175
408,-0.165,-0.175
409,-0.195,-0.175
410,-0.175,-0.195
411,-0.185,-0.205
412,-0.175,-0.185
413,-0.175,-0.185
414,-0.195,-0.185
415,-0.175,-0.205
416,-0.215,-0.195
417,-0.145,-0.205
418,-0.175,-0.205
419,-0.225,-0.205
420,-0.175,-0.195
421,-0.135,-0.215
422,-0.215,-0.205
423,-0.155,-0.205
424,-0.195,-0.205
425,-0.245,-0.205
426,-0.195,-0.225
427,-0.145,-0.225
428,-0.175,-0.215
429,-0.165,-0.215
430,-0.195,-0.215
431,-0.185,-0.215
432,-0.185,-0.215
433,-0.205,-0.225
434,-0.165,-0.235
435,-0.215,-0.225
436,-0.175,-0.215
437,-0.135,-0.215
438,-0.215,-0.215
439,-0.135,-0.215
440,-0.215,-0.215
441,-0.125,-0.225
442,-0.205,-0.215
443,-0.215,-0.205
444,-0.175,-0.205
445,-0.155,-0.215
446,-0.155,-0.215
447,-0.185,-0.215
448,-0.145,-0.205
449,-0.135,-0.175
450,-0.155,-0.185
451,-0.065,-0.175
452,-0.035,-0.135
453,-0.065,-0.105
454,0.005,-0.125
455,-0.015,-0.105
456,-0.035,-0.105
457,-0.135,-0.205
458,-0.155,-0.225
459,-0.165,-0.215
460,-0.115,-0.195
461,-0.195,-0.225
462,-0.205,-0.225
463,-0.155,-0.225
464,-0.235,-0.215
465,-0.105,-0.205
466,-0.185,-0.215
467,-0.075,-0.175
468,0.135,0.105
469,0.455,0.545
470,0.895,0.065
471,0.245,-1.005
472,-0.965,-1.305
473,-1.285,-1.505
474,-0.905,-0.975
475,-0.395,-0.525
476,-0.175,-0.175
477,-0.125,-0.015
478,-0.125,0.015
479,-0.135,0.005
480,-0.095,0.015
481,-0.085,0.015
482,-0.135,0.025
483,-0.025,0.045
484,-0.085,0.065
485,-0.105,0.075
486,0.025,0.085
487,-0.045,0.105
488,-0.005,0.125
489,-0.015,0.135
490,-0.075,0.145
491,0.135,0.155
492,0.025,0.195
493,0.045,0.225
494,0.105,0.255
495,0.155,0.285
496,0.135,0.325
497,0.185,0.355
498,0.185,0.395
499,0.245,0.425
500,0.275,0.475
501,0.275,0.515
502,0.445,0.515
503,0.335,0.545
504,0.365,0.575
505,0.405,0.565
506,0.355,0.545
507,0.245,0.465
508,0.185,0.375
509,0.105,0.225
510,-0.005,0.115
511,-0.075,0.025
512,-0.095,-0.035
513,-0.135,-0.095
514,-0.185,-0.145
515,-0.185,-0.155
516,-0.225,-0.165
517,-0.215,-0.185
518,-0.215,-0.195
519,-0.245,-0.185
520,-0.175,-0.195
521,-0.225,-0.205
522,-0.235,-0.195
523,-0.255,-0.195
524,-0.145,-0.195
525,-0.215,-0.185
526,-0.185,-0.185
527,-0.225,-0.175
528,-0.145,-0.175
529,-0.205,-0.165
530,-0.185,-0.185
531,-0.155,-0.185
532,-0.205,-0.165
533,-0.105,-0.175
534,-0.145,-0.185
535,-0.155,-0.175
536,-0.135,-0.185
537,-0.195,-0.185
538,-0.185,-0.195
539,-0.135,-0.205
540,-0.155,-0.185
541,-0.105,-0.195
542,-0.225,-0.195
543,-0.085,-0.185
544,-0.175,-0.195
545,-0.145,-0.205
546,-0.175,-0.205
547,-0.135,-0.215
548,-0.155,-0.195
549,-0.155,-0.205
550,-0.105,-0.215
551,-0.155,-0.205
552,-0.105,-0.205
553,-0.095,-0.205
554,-0.145,-0.205
555,-0.165,-0.205
556,-0.105,-0.185
557,-0.125,-0.195
558,-0.115,-0.195
559,-0.075,-0.195
560,-0.095,-0.185
561,-0.185,-0.195
562,-0.075,-0.205
563,-0.145,-0.185
564,-0.105,-0.185
565,-0.135,-0.205
566,-0.105,-0.185
567,-0.095,-0.195
568,-0.125,-0.185
569,-0.035,-0.195
570,-0.085,-0.195
571,-0.135,-0.165
572,-0.015,-0.165
573,-0.015,-0.125
574,0.055,-0.115
575,0.025,-0.125
576,0.075,-0.085
577,-0.015,-0.115
578,-0.115,-0.215
579,-0.055,-0.205
580,-0.055,-0.175
581,-0.135,-0.175
582,-0.185,-0.205
583,-0.135,-0.215
584,-0.115,-0.215
585,-0.125,-0.205
586,-0.135,-0.205
587,-0.085,-0.195
588,-0.025,-0.115
589,0.295,0.135
590,0.535,0.605
591,0.825,0.125
592,0.335,-0.805
593,-0.685,-1.165
594,-1.115,-1.425
595,-0.785,-0.895
596,-0.385,-0.505
597,-0.175,-0.195
598,-0.055,-0.005
599,-0.075,0.005
600,-0.055,-0.005
601,-0.035,0.015
602,-0.085,-0.005
603,0.025,0.015
604,-0.025,0.025
605,0.005,0.045
606,0.035,0.055
607,0.015,0.065
608,0.055,0.095
609,0.055,0.105
610,0.055,0.105
611,0.045,0.135
612,0.135,0.145
613,0.155,0.165
614,0.155,0.195
615,0.165,0.225
616,0.205,0.245
617,0.195,0.275
618,0.265,0.315
619,0.275,0.355
620,0.285,0.385
621,0.415,0.425
622,0.435,0.445
623,0.405,0.485
624,0.485,0.485
625,0.435,0.495
626,0.405,0.485
627,0.435,0.445
628,0.355,0.405
629,0.215,0.285
630,0.135,0.165
631,0.065,0.045
632,-0.005,-0.025
633,-0.065,-0.085
634,-0.065,-0.135
635,-0.125,-0.155
636,-0.105,-0.165
637,-0.185,-0.185
638,-0.115,-0.205
639,-0.185,-0.205
640,-0.155,-0.215
641,-0.155,-0.215
642,-0.195,-0.215
643,-0.135,-0.205
644,-0.165,-0.195
645,-0.105,-0.195
646,-0.215,-0.195
647,-0.125,-0.185
648,-0.165,-0.175
649,-0.125,-0.185
650,-0.155,-0.195
651,-0.205,-0.195
652,-0.125,-0.175
653,-0.115,-0.185
654,-0.145,-0.195
655,-0.135,-0.185
656,-0.165,-0.185
657,-0.095,-0.205
658,-0.165,-0.205
659,-0.145,-0.215
660,-0.145,-0.195
661,-0.165,-0.195
662,-0.135,-0.215
663,-0.165,-0.215
664,-0.175,-0.205
665,-0.165,-0.215
666,-0.185,-0.225
667,-0.175,-0.225
668,-0.125,-0.215
669,-0.175,-0.225
670,-0.165,-0.215
671,-0.185,-0.215
672,-0.135,-0.215
673,-0.135,-0.225
674,-0.205,-0.225
675,-0.135,-0.225
676,-0.175,-0.215
677,-0.175,-0.215
678,-0.045,-0.225
679,-0.195,-0.215
680,-0.165,-0.215
681,-0.145,-0.205
682,-0.175,-0.215
683,-0.155,-0.215
684,-0.135,-0.215
685,-0.185,-0.215
686,-0.105,-0.215
687,-0.125,-0.195
688,-0.085,-0.165
689,-0.105,-0.175
690,-0.015,-0.145
691,-0.075,-0.135
692,0.005,-0.135
693,-0.005,-0.115
694,-0.025,-0.125
695,-0.115,-0.195
696,-0.135,-0.205
697,-0.145,-0.205
698,-0.175,-0.205
699,-0.195,-0.225
700,-0.225,-0.225
701,-0.245,-0.225
702,-0.095,-0.225
703,-0.185,-0.195
704,-0.215,-0.205
705,-0.125,-0.195
706,0.075,0.025
707,0.475,0.435
708,0.775,0.265
709,0.695,-0.775
710,-0.805,-1.195
711,-1.365,-1.435
712,-1.005,-1.045
713,-0.525,-0.615
714,-0.215,-0.255
715,-0.155,-0.045
716,-0.185,-0.015
717,-0.135,-0.025
718,-0.145,-0.025
719,-0.155,-0.005
720,-0.105,0.005
721,-0.105,0.005
722,-0.105,0.025
723,-0.085,0.035
724,-0.095,0.045
725,-0.045,0.065
726,-0.035,0.075
727,-0.045,0.105
728,-0.005,0.125
729,-0.045,0.135
730,0.085,0.155
731,0.005,0.185
732,0.025,0.215
733,0.095,0.245
734,0.105,0.275
735,0.105,0.325
736,0.215,0.355
737,0.235,0.405
738,0.215,0.445
739,0.295,0.465
740,0.385,0.515
741,0.285,0.555
742,0.325,0.565
743,0.375,0.575
744,0.325,0.555
745,0.265,0.485
746,0.155,0.365
747,0.025,0.225
748,-0.075,0.105
749,0.015,0.015
750,-0.185,-0.055
751,-0.205,-0.105
752,-0.235,-0.155
753,-0.225,-0.165
754,-0.345,-0.195
755,-0.185,-0.215
756,-0.355,-0.205
757,-0.225,-0.215
758,-0.295,-0.225
759,-0.335,-0.205
760,-0.295,-0.205
761,-0.245,-0.205
762,-0.355,-0.205
763,-0.345,-0.205
764,-0.265,-0.195
765,-0.265,-0.205
766,-0.245,-0.205
767,-0.285,-0.185
768,-0.285,-0.185
769,-0.205,-0.195
770,-0.265,-0.195
771,-0.305,-0.185
772,-0.235,-0.185
773,-0.255,-0.195
774,-0.235,-0.195
775,-0.245,-0.195
776,-0.265,-0.195
777,-0.225,-0.215
778,-0.275,-0.215
779,-0.265,-0.215
780,-0.265,-0.205
781,-0.225,-0.215
782,-0.225,-0.215
783,-0.265,-0.215
784,-0.315,-0.225
785,-0.205,-0.225
786,-0.275,-0.225
787,-0.265,-0.215
788,-0.235,-0.225
789,-0.245,-0.215
790,-0.215,-0.225
791,-0.265,-0.225
792,-0.235,-0.205
793,-0.205,-0.225
794,-0.325,-0.225
795,-0.185,-0.215
796,-0.215,-0.205
797,-0.285,-0.215
798,-0.185,-0.225
799,-0.275,-0.195
800,-0.145,-0.205
801,-0.245,-0.195
802,-0.235,-0.215
803,-0.245,-0.215
804,-0.175,-0.205
805,-0.245,-0.215
806,-0.225,-0.205
807,-0.185,-0.185
808,-0.215,-0.185
809,-0.165,-0.205
810,-0.205,-0.205
811,-0.205,-0.185
812,-0.155,-0.165
813,-0.145,-0.175
814,-0.125,-0.175
815,-0.065,-0.135
816,-0.055,-0.095
817,-0.065,-0.105
818,-0.055,-0.095
819,0.005,-0.085
820,-0.085,-0.135
821,-0.145,-0.215
822,-0.105,-0.205
823,-0.205,-0.175
824,-0.205,-0.185
825,-0.245,-0.205
826,-0.165,-0.215
827,-0.225,-0.215
828,-0.185,-0.195
829,-0.175,-0.205
830,-0.095,-0.185
831,-0.025,-0.015
832,0.335,0.375
833,0.705,0.465
834,0.695,-0.675
835,-0.505,-1.205
836,-1.085,-1.515
837,-1.035,-1.155
838,-0.635,-0.685
839,-0.185,-0.295
840,-0.105,-0.015
841,-0.155,0.035
842,-0.055,0.005
843,-0.095,0.025
844,-0.155,0.025
845,-0.035,0.045
846,-0.075,0.045
847,-0.035,0.065
848,-0.005,0.095
849,-0.025,0.105
850,-0.025,0.125
851,0.015,0.125
852,0.025,0.155
853,0.075,0.185
854,0.045,0.185
855,0.125,0.225
856,0.035,0.245
857,0.115,0.275
858,0.145,0.305
859,0.215,0.345
860,0.205,0.405
861,0.285,0.435
862,0.305,0.475
863,0.355,0.525
864,0.365,0.565
865,0.445,0.585
866,0.435,0.595
867,0.505,0.605
868,0.405,0.615
869,0.435,0.565
870,0.265,0.475
871,0.275,0.345
872,0.125,0.235
873,0.065,0.105
874,-0.015,0.025
875,-0.065,-0.025
876,-0.075,-0.075
877,-0.025,-0.115
878,-0.105,-0.125
879,-0.145,-0.135
880,-0.125,-0.145
881,-0.155,-0.165
882,-0.165,-0.165
883,-0.085,-0.165
884,-0.135,-0.155
885,-0.155,-0.155
886,-0.025,-0.155
887,-0.125,-0.145
888,-0.095,-0.135
889,-0.145,-0.145
890,-0.125,-0.135
891,-0.095,-0.145
892,-0.055,-0.135
893,-0.115,-0.125
894,-0.065,-0.135
895,-0.145,-0.135
896,-0.035,-0.125
897,-0.065,-0.135
898,-0.105,-0.135
899,-0.045,-0.145
900,-0.045,-0.145
901,-0.045,-0.145
902,-0.095,-0.145
903,-0.045,-0.145
904,-0.075,-0.145
905,-0.025,-0.155
906,-0.015,-0.165
907,-0.115,-0.165
908,-0.075,-0.145
909,-0.025,-0.165
910,-0.015,-0.165
911,-0.075,-0.165
912,-0.055,-0.155
913,-0.025,-0.155
914,-0.065,-0.165
915,-0.105,-0.175
916,0.045,-0.165
917,-0.055,-0.165
918,-0.055,-0.155
919,0.055,-0.165
920,-0.015,-0.155
921,0.005,-0.165
922,-0.065,-0.155
923,-0.015,-0.155
924,-0.015,-0.145
925,-0.025,-0.155
926,-0.005,-0.175
927,0.025,-0.165
928,-0.005,-0.155
929,-0.055,-0.145
930,0.015,-0.155
931,0.015,-0.165
932,-0.045,-0.145
933,-0.035,-0.145
934,-0.015,-0.155
935,-0.015,-0.145
936,-0.025,-0.135
937,0.095,-0.145
938,-0.045,-0.115
939,0.025,-0.125
940,0.095,-0.105
941,0.075,-0.055
942,0.125,-0.085
943,0.125,-0.065
944,0.175,-0.035
945,0.075,-0.085
946,0.015,-0.165
947,0.055,-0.155
948,-0.005,-0.125
949,-0.035,-0.135
950,-0.055,-0.175
951,-0.005,-0.165
952,-0.035,-0.155
953,-0.055,-0.145
954,-0.035,-0.165
955,0.015,-0.155
956,0.055,-0.015
957,0.485,0.255
958,0.675,0.665
959,0.885,-0.205
960,0.045,-0.945
961,-0.885,-1.335
962,-0.945,-1.215
963,-0.615,-0.725
964,-0.285,-0.385
965,-0.045,-0.095
966,0.085,0.025
967,-0.005,0.045
968,0.025,0.055
969,0.005,0.045
970,0.085,0.045
971,0.055,0.065
972,0.035,0.095
973,0.135,0.095
974,0.015,0.105
975,0.135,0.125
976,0.165,0.145
977,0.135,0.145
978,0.055,0.175
979,0.175,0.165
980,0.205,0.215
981,0.225,0.225
982,0.235,0.255
983,0.195,0.285
984,0.315,0.335
985,0.295,0.365
986,0.335,0.405
987,0.355,0.435
988,0.425,0.475
989,0.455,0.505
990,0.495,0.535
991,0.515,0.555
992,0.575,0.565
993,0.445,0.565
994,0.525,0.525
995,0.385,0.445
996,0.335,0.365
997,0.245,0.235
998,0.155,0.125
999,0.075,0.055
1000,-0.025,-0.005
1001,0.045,-0.075
1002,-0.035,-0.115
1003,-0.115,-0.125
1004,-0.025,-0.135
1005,-0.035,-0.145
1006,-0.115,-0.145
1007,-0.125,-0.165
1008,-0.055,-0.165
1009,-0.145,-0.165
1010,-0.105,-0.165
1011,-0.145,-0.155
1012,-0.105,-0.145
1013,-0.125,-0.155
1014,-0.065,-0.165
1015,-0.095,-0.145
1016,-0.135,-0.145
1017,-0.045,-0.155
1018,-0.075,-0.165
1019,-0.095,-0.145
1020,-0.045,-0.145
1021,-0.145,-0.155
1022,-0.115,-0.155
1023,-0.025,-0.145
1024,-0.065,-0.155
1025,-0.085,-0.165
1026,-0.095,-0.165
1027,-0.105,-0.175
1028,-0.055,-0.165
1029,-0.105,-0.175
1030,-0.085,-0.185
1031,-0.095,-0.165
1032,-0.115,-0.175
1033,-0.085,-0.185
1034,-0.145,-0.185
1035,-0.115,-0.185
1036,-0.085,-0.185
1037,-0.155,-0.185
1038,-0.085,-0.185
1039,-0.075,-0.175
1040,-0.115,-0.175
1041,-0.095,-0.185
1042,-0.115,-0.185
1043,-0.135,-0.185
1044,-0.105,-0.185
1045,-0.105,-0.185
1046,-0.105,-0.185
1047,-0.105,-0.175
1048,-0.085,-0.175
1049,-0.115,-0.185
1050,-0.065,-0.185
1051,-0.135,-0.185
1052,-0.095,-0.165
1053,-0.145,-0.165
1054,-0.085,-0.175
1055,-0.065,-0.175
1056,-0.125,-0.155
1057,-0.055,-0.145
1058,-0.035,-0.145
1059,0.015,-0.125
1060,0.025,-0.085
1061,-0.015,-0.095
1062,0.115,-0.095
1063,0.005,-0.095
1064,-0.075,-0.155
1065,-0.045,-0.185
1066,-0.075,-0.185
1067,-0.115,-0.175
1068,-0.165,-0.175
1069,-0.165,-0.205
1070,-0.075,-0.205
1071,-0.165,-0.175
1072,-0.085,-0.165
1073,-0.115,-0.175
1074,-0.035,-0.145
1075,0.145,0.055
1076,0.525,0.405
1077,0.805,0.175
1078,0.845,-0.675
1079,-0.445,-1.075
1080,-1.245,-1.315
1081,-0.965,-1.045
1082,-0.575,-0.645
1083,-0.175,-0.305
1084,-0.075,-0.045
1085,-0.045,0.015
1086,-0.085,0.025
1087,-0.055,0.025
1088,0.005,0.035
1089,-0.025,0.045
1090,-0.085,0.055
1091,-0.035,0.045
1092,0.015,0.085
1093,-0.035,0.095
1094,-0.015,0.105
1095,0.045,0.135
1096,0.055,0.145
1097,0.035,0.165
1098,0.065,0.185
1099,0.085,0.185
1100,0.195,0.245
1101,0.145,0.275
1102,0.175,0.295
1103,0.235,0.345
1104,0.235,0.395
1105,0.285,0.455
1106,0.305,0.475
1107,0.315,0.525
1108,0.505,0.575
1109,0.365,0.615
1110,0.515,0.615
1111,0.445,0.635
1112,0.495,0.625
1113,0.395,0.565
1114,0.275,0.445
1115,0.175,0.305
1116,0.055,0.195
1117,0.045,0.075
1118,-0.055,-0.015
1119,-0.075,-0.075
1120,-0.145,-0.115
1121,-0.195,-0.145
1122,-0.095,-0.165
1123,-0.205,-0.175
1124,-0.175,-0.185
1125,-0.225,-0.195
1126,-0.135,-0.205
1127,-0.195,-0.195
1128,-0.185,-0.185
1129,-0.185,-0.205
1130,-0.215,-0.195
1131,-0.095,-0.195
1132,-0.215,-0.185
1133,-0.135,-0.185
1134,-0.165,-0.195
1135,-0.175,-0.175
1136,-0.155,-0.185
1137,-0.135,-0.185
1138,-0.105,-0.185
1139,-0.105,-0.185
1140,-0.095,-0.185
1141,-0.125,-0.185
1142,-0.135,-0.205
1143,-0.145,-0.205
1144,-0.085,-0.195
1145,-0.145,-0.195
1146,-0.125,-0.215
1147,-0.145,-0.215
1148,-0.065,-0.205
1149,-0.165,-0.205
1150,-0.115,-0.225
1151,-0.125,-0.225
1152,-0.155,-0.215
1153,-0.105,-0.215
1154,-0.145,-0.225
1155,-0.085,-0.215
1156,-0.085,-0.205
1157,-0.125,-0.215
1158,-0.135,-0.225
1159,-0.075,-0.225
1160,-0.135,-0.215
1161,-0.095,-0.215
1162,-0.135,-0.225
1163,-0.115,-0.215
1164,-0.105,-0.215
1165,-0.145,-0.215
1166,-0.075,-0.215
1167,-0.125,-0.205
1168,-0.135,-0.205
1169,-0.085,-0.215
1170,-0.155,-0.205
1171,-0.105,-0.205
1172,-0.095,-0.205
1173,-0.165,-0.205
1174,-0.025,-0.215
1175,-0.135,-0.205
1176,-0.095,-0.205
1177,-0.145,-0.205
1178,-0.075,-0.205
1179,-0.125,-0.195
1180,-0.015,-0.185
1181,-0.085,-0.175
1182,-0.065,-0.175
1183,-0.015,-0.165
1184,0.035,-0.115
1185,-0.025,-0.105
1186,0.105,-0.125
1187,0.115,-0.105
1188,-0.035,-0.105
1189,-0.025,-0.185
1190,-0.065,-0.215
1191,-0.065,-0.205
1192,-0.135,-0.185
1193,-0.145,-0.215
1194,-0.175,-0.245
1195,-0.105,-0.235
1196,-0.135,-0.205
1197,-0.135,-0.205
1198,-0.065,-0.215
1199,-0.025,-0.165
1200,0.175,0.105
1201,0.465,0.575
1202,0.665,0.065
1203,0.575,-0.995
1204,-0.435,-1.325
1205,-0.945,-1.595
1206,-0.785,-1.155
1207,-0.425,-0.665
1208,-0.145,-0.235
1209,-0.075,-0.015
1210,-0.045,0.015
1211,-0.025,-0.005
1212,-0.045,0.005
1213,-0.005,0.005
1214,-0.055,0.025
1215,0.015,0.035
1216,-0.025,0.065
1217,0.025,0.065
1218,0.015,0.075
1219,0.045,0.095
1220,0.075,0.125
1221,0.035,0.135
1222,0.075,0.155
1223,0.115,0.185
1224,0.085,0.215
1225,0.115,0.245
1226,0.105,0.265
1227,0.125,0.295
1228,0.175,0.345
1229,0.185,0.375
1230,0.225,0.425
1231,0.245,0.475
1232,0.275,0.535
1233,0.345,0.565
1234,0.305,0.575
1235,0.325,0.605
1236,0.415,0.635
1237,0.365,0.615
1238,0.405,0.575
1239,0.305,0.495
1240,0.255,0.385
1241,0.175,0.245
1242,0.035,0.115
1243,0.045,0.005
1244,-0.045,-0.045
1245,-0.115,-0.105
1246,-0.095,-0.145
1247,-0.095,-0.165
1248,-0.105,-0.175
1249,-0.135,-0.185
1250,-0.155,-0.205
1251,-0.085,-0.215
1252,-0.165,-0.205
1253,-0.135,-0.205
1254,-0.135,-0.205
1255,-0.095,-0.195
1256,-0.145,-0.195
1257,-0.115,-0.185
1258,-0.105,-0.185
1259,-0.095,-0.185
1260,-0.105,-0.165
1261,-0.095,-0.175
1262,-0.075,-0.185
1263,-0.055,-0.165
1264,-0.105,-0.165
1265,-0.075,-0.175
1266,-0.075,-0.195
1267,-0.065,-0.185
1268,-0.085,-0.165
1269,-0.055,-0.175
1270,-0.045,-0.185
1271,-0.065,-0.175
1272,-0.035,-0.175
1273,-0.025,-0.185
1274,-0.055,-0.185
1275,-0.035,-0.185
1276,-0.035,-0.185
1277,-0.045,-0.185
1278,-0.035,-0.175
1279,-0.045,-0.185
1280,-0.035,-0.185
1281,-0.035,-0.195
1282,-0.075,-0.195
1283,-0.005,-0.185
1284,-0.055,-0.185
1285,0.005,-0.195
1286,0.015,-0.205
1287,-0.035,-0.185
1288,-0.055,-0.195
1289,-0.025,-0.195
1290,-0.015,-0.185
1291,-0.035,-0.185
1292,-0.035,-0.185
1293,-0.015,-0.185
1294,0.005,-0.195
1295,-0.025,-0.175
1296,-0.015,-0.185
1297,-0.015,-0.185
1298,-0.015,-0.175
1299,-0.045,-0.175
1300,0.005,-0.155
1301,-0.055,-0.165
1302,0.025,-0.165
1303,-0.025,-0.165
1304,0.005,-0.145
1305,-0.035,-0.135
1306,0.085,-0.135
1307,0.045,-0.135
1308,0.065,-0.085
1309,0.175,-0.085
1310,0.125,-0.075
1311,0.205,-0.045
1312,0.095,-0.045
1313,0.025,-0.135
1314,0.035,-0.165
1315,0.075,-0.135
1316,-0.035,-0.115
1317,0.025,-0.135
1318,-0.025,-0.165
1319,-0.035,-0.155
1320,0.045,-0.135
1321,0.015,-0.135
1322,-0.065,-0.135
1323,0.085,-0.115
1324,0.245,0.085
1325,0.495,0.415
1326,0.885,0.475
1327,0.795,-0.415
1328,-0.195,-0.865
1329,-0.965,-1.165
1330,-0.895,-1.025
1331,-0.515,-0.645
1332,-0.225,-0.345
1333,-0.035,-0.075
1334,0.035,0.025
1335,0.085,0.045
1336,0.025,0.045
1337,0.095,0.045
1338,0.035,0.065
1339,0.085,0.065
1340,0.075,0.075
1341,0.095,0.085
1342,0.155,0.105
1343,0.065,0.115
1344,0.145,0.125
1345,0.155,0.125
1346,0.145,0.155
1347,0.165,0.155
1348,0.195,0.195
1349,0.205,0.205
1350,0.245,0.215
1351,0.325,0.245
1352,0.285,0.265
1353,0.285,0.305
1354,0.355,0.325
1355,0.315,0.355
1356,0.455,0.405
1357,0.475,0.445
1358,0.495,0.465
1359,0.475,0.485
1360,0.595,0.505
1361,0.565,0.515
1362,0.455,0.495
1363,0.515,0.455
1364,0.335,0.385
1365,0.265,0.295
1366,0.215,0.185
1367,0.115,0.085
1368,0.025,0.025
1369,0.035,-0.045
1370,-0.085,-0.095
1371,-0.065,-0.115
1372,-0.065,-0.125
1373,-0.085,-0.145
1374,-0.045,-0.165
1375,-0.105,-0.145
1376,-0.065,-0.155
1377,-0.135,-0.165
1378,-0.035,-0.175
1379,-0.075,-0.165
1380,-0.115,-0.145
1381,-0.115,-0.155
1382,-0.095,-0.155
1383,-0.065,-0.135
1384,-0.115,-0.145
1385,-0.075,-0.135
1386,-0.105,-0.155
1387,-0.115,-0.165
1388,-0.005,-0.145
1389,-0.135,-0.165
1390,-0.115,-0.155
1391,-0.025,-0.155
1392,-0.055,-0.165
1393,-0.095,-0.155
1394,-0.135,-0.175
1395,-0.065,-0.175
1396,-0.105,-0.175
1397,-0.125,-0.185
1398,-0.075,-0.195
1399,-0.125,-0.195
1400,-0.085,-0.185
1401,-0.055,-0.195
1402,-0.165,-0.195
1403,-0.095,-0.185
1404,-0.085,-0.185
1405,-0.095,-0.185
1406,-0.125,-0.185
1407,-0.135,-0.185
1408,-0.095,-0.185
1409,-0.025,-0.185
1410,-0.165,-0.185
1411,-0.095,-0.185
1412,-0.045,-0.185
1413,-0.135,-0.185
1414,-0.095,-0.185
1415,-0.085,-0.185
1416,-0.075,-0.155
1417,-0.015,-0.155
1418,-0.055,-0.165
1419,0.005,-0.125
1420,0.035,-0.085
1421,0.005,-0.105
1422,0.125,-0.105
1423,0.025,-0.085
1424,-0.055,-0.145
1425,-0.045,-0.195
1426,-0.045,-0.195
1427,-0.115,-0.165
1428,-0.185,-0.175
1429,-0.035,-0.215
1430,-0.145,-0.215
1431,-0.135,-0.195
1432,-0.125,-0.185
1433,-0.115,-0.195
1434,-0.095,-0.195
1435,-0.005,-0.035
1436,0.435,0.305
1437,0.665,0.525
1438,0.985,-0.415
1439,-0.005,-0.985
1440,-1.085,-1.335
1441,-1.135,-1.265
1442,-0.745,-0.795
1443,-0.305,-0.445
1444,-0.165,-0.105
1445,-0.075,-0.005
1446,-0.035,0.005
1447,-0.095,0.005
1448,-0.095,0.025
1449,0.025,0.025
1450,-0.145,0.035
1451,0.055,0.035
1452,-0.045,0.065
1453,-0.035,0.065
1454,0.015,0.065
1455,0.035,0.105
1456,0.025,0.135
1457,0.055,0.135
1458,0.065,0.145
1459,0.075,0.185
1460,0.115,0.205
1461,0.145,0.245
1462,0.185,0.265
1463,0.205,0.305
1464,0.225,0.355
1465,0.245,0.405
1466,0.275,0.425
1467,0.395,0.465
1468,0.375,0.515
1469,0.395,0.535
1470,0.395,0.555
1471,0.505,0.565
1472,0.445,0.545
1473,0.355,0.515
1474,0.275,0.405
1475,0.165,0.305
1476,0.085,0.195
1477,-0.005,0.075
1478,-0.075,-0.005
1479,-0.065,-0.065
1480,-0.195,-0.085
1481,-0.175,-0.125
1482,-0.195,-0.165
1483,-0.185,-0.165
1484,-0.245,-0.175
1485,-0.155,-0.185
1486,-0.245,-0.195
1487,-0.215,-0.195
1488,-0.225,-0.195
1489,-0.265,-0.195
1490,-0.195,-0.195
1491,-0.265,-0.195
1492,-0.225,-0.185
1493,-0.195,-0.185
1494,-0.195,-0.185
1495,-0.195,-0.175
1496,-0.225,-0.175
1497,-0.195,-0.175
1498,-0.185,-0.185
1499,-0.215,-0.175
1500,-0.205,-0.175
1501,-0.205,-0.185
1502,-0.175,-0.195
1503,-0.125,-0.195
1504,-0.215,-0.185
1505,-0.165,-0.195
1506,-0.195,-0.195
1507,-0.205,-0.205
1508,-0.215,-0.185
1509,-0.205,-0.205
1510,-0.165,-0.215
1511,-0.225,-0.205
1512,-0.175,-0.205
1513,-0.185,-0.205
1514,-0.255,-0.215
1515,-0.215,-0.215
1516,-0.195,-0.195
1517,-0.215,-0.205
1518,-0.175,-0.205
1519,-0.215,-0.205
1520,-0.165,-0.195
1521,-0.275,-0.205
1522,-0.155,-0.215
1523,-0.185,-0.215
1524,-0.235,-0.195
1525,-0.195,-0.205
1526,-0.225,-0.205
1527,-0.165,-0.205
1528,-0.225,-0.195
1529,-0.205,-0.195
1530,-0.235,-0.195
1531,-0.185,-0.195
1532,-0.185,-0.155
1533,-0.135,-0.145
1534,-0.095,-0.155
1535,-0.045,-0.095
1536,-0.055,-0.095
1537,-0.035,-0.105
1538,-0.025,-0.095
1539,-0.165,-0.125
1540,-0.135,-0.185
1541,-0.125,-0.185
1542,-0.135,-0.175
1543,-0.235,-0.155
1544,-0.225,-0.175
1545,-0.255,-0.195
1546,-0.215,-0.195
1547,-0.215,-0.195
1548,-0.215,-0.175
1549,-0.215,-0.165
1550,0.035,-0.075
1551,0.355,0.255
1552,0.555,0.455
1553,0.805,-0.425
1554,-0.165,-1.005
1555,-1.275,-1.265
1556,-1.215,-1.135
1557,-0.755,-0.735
1558,-0.315,-0.365
1559,-0.165,-0.075
1560,-0.225,0.005
1561,-0.055,-0.005
1562,-0.205,0.005
1563,-0.195,0.005
1564,-0.135,0.025
1565,-0.155,0.035
1566,-0.105,0.045
1567,-0.105,0.065
1568,-0.075,0.085
1569,-0.095,0.095
1570,-0.075,0.105
1571,-0.045,0.125
1572,-0.045,0.175
1573,-0.035,0.185
1574,0.025,0.195
1575,-0.005,0.225
1576,0.015,0.265
1577,0.095,0.285
1578,0.055,0.325
1579,0.115,0.365
1580,0.145,0.435
1581,0.205,0.455
1582,0.215,0.515
1583,0.305,0.555
1584,0.305,0.575
1585,0.305,0.595
1586,0.325,0.595
1587,0.335,0.605
1588,0.265,0.575
1589,0.285,0.465
1590,0.125,0.365
1591,0.045,0.225
1592,-0.015,0.115
1593,-0.085,0.005
1594,-0.215,-0.075
1595,-0.205,-0.115
1596,-0.225,-0.145
1597,-0.245,-0.165
1598,-0.255,-0.185
1599,-0.205,-0.195
1600,-0.265,-0.195
1601,-0.305,-0.215
1602,-0.275,-0.215
1603,-0.295,-0.215
1604,-0.235,-0.215
1605,-0.295,-0.205
1606,-0.265,-0.215
1607,-0.245,-0.195
1608,-0.295,-0.195
1609,-0.235,-0.195
1610,-0.235,-0.195
1611,-0.305,-0.205
1612,-0.205,-0.195
1613,-0.265,-0.205
1614,-0.205,-0.205
1615,-0.215,-0.195
1616,-0.245,-0.195
1617,-0.195,-0.205
1618,-0.295,-0.215
1619,-0.195,-0.215
1620,-0.205,-0.195
1621,-0.285,-0.215
1622,-0.215,-0.225
1623,-0.225,-0.215
1624,-0.225,-0.215
1625,-0.235,-0.215
1626,-0.235,-0.225
1627,-0.235,-0.225
1628,-0.225,-0.215
1629,-0.195,-0.225
1630,-0.255,-0.215
1631,-0.205,-0.225
1632,-0.175,-0.235
1633,-0.225,-0.215
1634,-0.245,-0.225
1635,-0.215,-0.235
1636,-0.185,-0.215
1637,-0.185,-0.225
1638,-0.225,-0.225
1639,-0.175,-0.225
1640,-0.175,-0.225
1641,-0.195,-0.225
1642,-0.195,-0.235
1643,-0.195,-0.225
1644,-0.185,-0.215
1645,-0.245,-0.225
1646,-0.135,-0.225
1647,-0.135,-0.205
1648,-0.195,-0.205
1649,-0.185,-0.215
1650,-0.175,-0.215
1651,-0.165,-0.215
1652,-0.195,-0.205
1653,-0.195,-0.195
1654,-0.175,-0.215
1655,-0.135,-0.185
1656,-0.155,-0.165
1657,-0.085,-0.175
1658,-0.075,-0.135
1659,-0.045,-0.115
1660,-0.045,-0.125
1661,-0.025,-0.105
1662,-0.075,-0.145
1663,-0.145,-0.215
1664,-0.165,-0.205
1665,-0.135,-0.185
1666,-0.235,-0.215
1667,-0.205,-0.235
1668,-0.205,-0.225
1669,-0.235,-0.235
1670,-0.165,-0.215
1671,-0.215,-0.215
1672,-0.135,-0.215
1673,-0.025,-0.085
1674,0.265,0.295
1675,0.495,0.405
1676,0.655,-0.615
1677,-0.095,-1.165
1678,-0.925,-1.395
1679,-0.995,-1.265
1680,-0.645,-0.815
1681,-0.255,-0.425
1682,-0.165,-0.125
1683,-0.145,-0.025
1684,-0.105,-0.015
1685,-0.085,-0.015
1686,-0.085,-0.005
1687,-0.085,0.015
1688,-0.085,0.015
1689,-0.045,0.015
1690,-0.055,0.025
1691,-0.045,0.045
1692,-0.035,0.065
1693,-0.015,0.065
1694,-0.015,0.095
1695,0.005,0.125
1696,0.025,0.145
1697,0.035,0.165
1698,0.065,0.175
1699,0.085,0.205
1700,0.105,0.255
1701,0.125,0.275
1702,0.165,0.305
1703,0.185,0.345
1704,0.235,0.405
1705,0.245,0.435
1706,0.275,0.465
1707,0.285,0.485
1708,0.355,0.525
1709,0.345,0.535
1710,0.375,0.535
1711,0.365,0.515
1712,0.335,0.475
1713,0.255,0.375
1714,0.135,0.265
1715,0.115,0.155
1716,0.045,0.085
1717,-0.035,-0.005
1718,-0.065,-0.065
1719,-0.085,-0.115
1720,-0.085,-0.125
1721,-0.125,-0.155
1722,-0.165,-0.175
1723,-0.085,-0.185
1724,-0.145,-0.185
1725,-0.155,-0.195
1726,-0.145,-0.185
1727,-0.155,-0.185
1728,-0.145,-0.175
1729,-0.155,-0.195
1730,-0.145,-0.195
1731,-0.145,-0.185
1732,-0.105,-0.175
1733,-0.165,-0.185
1734,-0.095,-0.185
1735,-0.165,-0.185
1736,-0.095,-0.165
1737,-0.135,-0.175
1738,-0.155,-0.185
1739,-0.155,-0.195
1740,-0.135,-0.175
1741,-0.145,-0.205
1742,-0.165,-0.195
1743,-0.175,-0.195
1744,-0.145,-0.215
1745,-0.195,-0.215
1746,-0.215,-0.225
1747,-0.155,-0.215
1748,-0.285,-0.215
1749,-0.155,-0.225
1750,-0.155,-0.215
1751,-0.255,-0.215
1752,-0.235,-0.225
1753,-0.175,-0.235
1754,-0.235,-0.245
1755,-0.245,-0.235
1756,-0.185,-0.225
1757,-0.245,-0.225
1758,-0.205,-0.235
1759,-0.235,-0.235
1760,-0.225,-0.235
1761,-0.245,-0.235
1762,-0.215,-0.255
1763,-0.205,-0.235
1764,-0.225,-0.225
1765,-0.195,-0.235
1766,-0.195,-0.235
1767,-0.225,-0.225
1768,-0.215,-0.215
1769,-0.225,-0.235
1770,-0.205,-0.245
1771,-0.185,-0.245
1772,-0.185,-0.225
1773,-0.155,-0.235
1774,-0.215,-0.225
1775,-0.205,-0.225
1776,-0.175,-0.215
1777,-0.155,-0.205
1778,-0.185,-0.195
1779,-0.105,-0.195
1780,-0.015,-0.155
1781,-0.085,-0.145
1782,-0.015,-0.145
1783,-0.025,-0.125
1784,-0.115,-0.145
1785,-0.145,-0.235
1786,-0.135,-0.255
1787,-0.195,-0.225
1788,-0.245,-0.215
1789,-0.295,-0.245
1790,-0.235,-0.265
1791,-0.265,-0.245
1792,-0.175,-0.235
1793,-0.265,-0.245
1794,-0.235,-0.245
1795,-0.095,-0.165
1796,0.145,0.125
1797,0.425,0.555
1798,0.835,-0.095
1799,0.295,-1.015
1800,-0.995,-1.305
1801,-1.315,-1.485
1802,-0.905,-0.975
1803,-0.475,-0.575
1804,-0.225,-0.205
1805,-0.185,-0.035
1806,-0.155,-0.015
1807,-0.085,-0.015
1808,-0.125,-0.005
1809,-0.115,-0.015
1810,-0.155,-0.005
1811,-0.115,0.015
1812,-0.025,0.045
1813,-0.055,0.055
1814,-0.025,0.065
1815,-0.025,0.085
1816,-0.005,0.105
1817,0.055,0.125
1818,-0.035,0.145
1819,0.075,0.145
1820,0.105,0.185
1821,0.085,0.215
1822,0.125,0.245
1823,0.175,0.275
1824,0.185,0.325
1825,0.235,0.355
1826,0.215,0.395
1827,0.255,0.435
1828,0.325,0.495
1829,0.355,0.515
1830,0.395,0.525
1831,0.395,0.555
1832,0.425,0.575
1833,0.375,0.565
1834,0.305,0.505
1835,0.255,0.415
1836,0.135,0.305
1837,-0.015,0.185
1838,0.035,0.055
1839,-0.115,-0.015
1840,-0.085,-0.075
1841,-0.205,-0.115
1842,-0.145,-0.155
1843,-0.205,-0.175
1844,-0.205,-0.175
1845,-0.185,-0.195
1846,-0.195,-0.195
1847,-0.225,-0.185
1848,-0.205,-0.185
1849,-0.225,-0.185
1850,-0.195,-0.195
1851,-0.205,-0.195
1852,-0.165,-0.165
1853,-0.225,-0.165
1854,-0.165,-0.175
1855,-0.185,-0.175
1856,-0.165,-0.165
1857,-0.195,-0.165
1858,-0.145,-0.185
1859,-0.155,-0.175
1860,-0.165,-0.175
1861,-0.165,-0.175
1862,-0.135,-0.175
1863,-0.165,-0.165
1864,-0.165,-0.175
1865,-0.095,-0.185
1866,-0.165,-0.185
1867,-0.135,-0.175
1868,-0.145,-0.175
1869,-0.195,-0.185
1870,-0.065,-0.185
1871,-0.145,-0.175
1872,-0.175,-0.165
1873,-0.115,-0.175
1874,-0.175,-0.175
1875,-0.125,-0.175
1876,-0.125,-0.165
1877,-0.125,-0.175
1878,-0.125,-0.165
1879,-0.115,-0.165
1880,-0.115,-0.155
1881,-0.135,-0.165
1882,-0.105,-0.175
1883,-0.105,-0.175
1884,-0.115,-0.175
1885,-0.085,-0.155
1886,-0.165,-0.165
1887,-0.095,-0.155
1888,-0.105,-0.155
1889,-0.125,-0.165
1890,-0.145,-0.165
1891,-0.125,-0.165
1892,-0.125,-0.155
1893,-0.135,-0.155
1894,-0.125,-0.165
1895,-0.035,-0.155
1896,-0.135,-0.145
1897,-0.125,-0.145
1898,-0.115,-0.155
1899,-0.085,-0.145
1900,-0.065,-0.115
1901,-0.005,-0.125
1902,0.015,-0.075
1903,0.025,-0.065
1904,0.005,-0.075
1905,0.135,-0.065
1906,-0.015,-0.085
1907,-0.085,-0.155
1908,-0.065,-0.155
1909,-0.085,-0.155
1910,-0.135,-0.155
1911,-0.105,-0.165
1912,-0.175,-0.175
1913,-0.135,-0.185
1914,-0.165,-0.185
1915,-0.065,-0.175
1916,-0.135,-0.165
1917,-0.015,-0.125
1918,0.205,0.085
1919,0.475,0.475
1920,0.825,0.245
1921,0.655,-0.685
1922,-0.565,-1.095
1923,-1.225,-1.355
1924,-0.945,-1.035
1925,-0.515,-0.625
1926,-0.145,-0.255
1927,-0.045,-0.035
1928,-0.055,0.025
1929,-0.065,0.025
1930,-0.045,0.015
1931,-0.035,0.025
1932,-0.025,0.045
1933,-0.025,0.055
1934,0.075,0.055
1935,0.025,0.085
1936,0.035,0.115
1937,0.055,0.115
1938,0.055,0.135
1939,0.125,0.135
1940,0.135,0.185
1941,0.135,0.205
1942,0.165,0.215
1943,0.145,0.245
1944,0.245,0.275
1945,0.205,0.305
1946,0.225,0.345
1947,0.295,0.365
1948,0.315,0.435
1949,0.385,0.475
1950,0.415,0.515
1951,0.425,0.545
1952,0.475,0.575
1953,0.505,0.595
1954,0.495,0.595
1955,0.465,0.585
1956,0.455,0.575
1957,0.375,0.485
1958,0.285,0.365
1959,0.215,0.235
1960,0.125,0.115
1961,0.005,0.035
1962,0.015,-0.045
1963,-0.075,-0.085
1964,-0.065,-0.105
1965,-0.065,-0.125
1966,-0.065,-0.155
1967,-0.095,-0.145
1968,-0.125,-0.155
1969,-0.025,-0.165
1970,-0.145,-0.165
1971,-0.115,-0.165
1972,-0.045,-0.155
1973,-0.105,-0.145
1974,-0.095,-0.155
1975,-0.095,-0.145
1976,-0.055,-0.135
1977,-0.095,-0.145
1978,-0.095,-0.155
1979,-0.075,-0.155
1980,-0.085,-0.135
1981,-0.045,-0.145
1982,-0.065,-0.155
1983,-0.065,-0.145
1984,-0.095,-0.145
1985,-0.005,-0.155
1986,-0.125,-0.155
1987,-0.015,-0.155
1988,-0.065,-0.145
1989,-0.095,-0.165
1990,-0.035,-0.175
1991,-0.065,-0.175
1992,-0.075,-0.155
1993,-0.035,-0.175
1994,-0.055,-0.175
1995,-0.055,-0.175
1996,-0.035,-0.165
1997,-0.115,-0.165
1998,-0.025,-0.165
1999,-0.055,-0.165
2000,-0.025,-0.155
2001,-0.075,-0.165
2002,-0.055,-0.165
2003,-0.035,-0.165
2004,-0.065,-0.155
2005,-0.055,-0.165
2006,-0.005,-0.165
2007,-0.085,-0.155
2008,-0.045,-0.155
2009,-0.075,-0.165
2010,-0.045,-0.165
2011,-0.065,-0.165
2012,-0.005,-0.155
2013,-0.035,-0.165
2014,-0.015,-0.165
2015,-0.025,-0.165
2016,-0.085,-0.155
2017,-0.015,-0.145
2018,0.005,-0.145
2019,-0.015,-0.135
2020,0.055,-0.115
2021,0.035,-0.085
2022,0.115,-0.095
2023,0.085,-0.085
2024,0.135,-0.075
2025,0.025,-0.125
2026,-0.065,-0.185
2027,-0.005,-0.185
2028,-0.045,-0.155
2029,-0.115,-0.175
2030,-0.095,-0.195
2031,-0.125,-0.195
2032,-0.085,-0.185
2033,-0.035,-0.195
2034,-0.115,-0.185
2035,0.035,-0.185
2036,0.055,0.015
2037,0.455,0.355
2038,0.695,0.505
2039,0.855,-0.485
2040,-0.175,-0.975
2041,-1.025,-1.385
2042,-1.025,-1.185
2043,-0.705,-0.745
2044,-0.315,-0.445
2045,-0.105,-0.165
2046,-0.055,-0.015
2047,0.015,0.005
2048,-0.035,0.015
2049,-0.035,0.015
2050,-0.035,0.015
2051,-0.005,0.025
2052,-0.005,0.055
2053,0.025,0.045
2054,0.045,0.065
2055,0.015,0.085
2056,0.065,0.095
2057,0.115,0.105
2058,0.065,0.115
2059,0.045,0.125
2060,0.125,0.175
2061,0.145,0.175
2062,0.165,0.195
2063,0.195,0.245
2064,0.185,0.285
2065,0.245,0.305
2066,0.295,0.345
2067,0.285,0.365
2068,0.365,0.435
2069,0.335,0.465
2070,0.445,0.485
2071,0.415,0.505
2072,0.455,0.525
2073,0.465,0.515
2074,0.385,0.465
2075,0.365,0.425
2076,0.225,0.355
2077,0.195,0.235
2078,0.115,0.105
2079,-0.005,0.025
2080,-0.075,-0.025
2081,-0.075,-0.095
2082,-0.155,-0.135
2083,-0.155,-0.165
2084,-0.125,-0.175
2085,-0.145,-0.175
2086,-0.175,-0.185
2087,-0.165,-0.185
2088,-0.175,-0.195
2089,-0.135,-0.195
2090,-0.205,-0.195
2091,-0.185,-0.185
2092,-0.175,-0.175
2093,-0.195,-0.185
2094,-0.105,-0.195
2095,-0.135,-0.165
2096,-0.175,-0.165
2097,-0.185,-0.175
2098,-0.115,-0.185
2099,-0.165,-0.175
2100,-0.135,-0.175
2101,-0.165,-0.175
2102,-0.115,-0.185
2103,-0.135,-0.165
2104,-0.115,-0.185
2105,-0.145,-0.185
2106,-0.135,-0.195
2107,-0.175,-0.195
2108,-0.125,-0.185
2109,-0.155,-0.205
2110,-0.145,-0.205
2111,-0.135,-0.205
2112,-0.165,-0.195
2113,-0.125,-0.205
2114,-0.205,-0.215
2115,-0.145,-0.225
2116,-0.145,-0.205
2117,-0.125,-0.205
2118,-0.145,-0.215
2119,-0.115,-0.205
2120,-0.155,-0.195
2121,-0.135,-0.205
2122,-0.145,-0.215
2123,-0.155,-0.205
2124,-0.135,-0.195
2125,-0.145,-0.195
2126,-0.135,-0.205
2127,-0.135,-0.205
2128,-0.125,-0.195
2129,-0.145,-0.205
2130,-0.185,-0.205
2131,-0.085,-0.205
2132,-0.145,-0.185
2133,-0.105,-0.195
2134,-0.145,-0.195
2135,-0.115,-0.185
2136,-0.115,-0.165
2137,-0.105,-0.155
2138,-0.055,-0.165
2139,-0.045,-0.135
2140,0.005,-0.105
2141,0.005,-0.125
2142,0.035,-0.095
2143,-0.015,-0.105
2144,-0.125,-0.185
2145,-0.085,-0.205
2146,-0.145,-0.205
2147,-0.145,-0.205
2148,-0.185,-0.215
2149,-0.225,-0.235
2150,-0.155,-0.235
2151,-0.135,-0.225
2152,-0.165,-0.205
2153,-0.205,-0.215
2154,-0.025,-0.165
2155,0.175,0.115
2156,0.455,0.605
2157,0.925,-0.085
2158,0.535,-1.055
2159,-0.745,-1.345
2160,-1.335,-1.525
2161,-0.885,-0.985
2162,-0.405,-0.505
2163,-0.215,-0.125
2164,-0.105,0.005
2165,-0.135,0.005
2166,-0.095,-0.015
2167,-0.055,0.005
2168,-0.085,0.025
2169,-0.175,0.005
2170,-0.045,0.005
2171,-0.045,0.045
2172,-0.075,0.065
2173,-0.055,0.065
2174,0.035,0.085
2175,-0.015,0.125
2176,-0.015,0.145
2177,0.075,0.145
2178,0.065,0.175
2179,0.025,0.195
2180,0.105,0.225
2181,0.125,0.255
2182,0.175,0.295
2183,0.175,0.345
2184,0.185,0.395
2185,0.305,0.425
2186,0.215,0.475
2187,0.345,0.505
2188,0.365,0.555
2189,0.365,0.555
2190,0.405,0.575
2191,0.435,0.575
2192,0.365,0.565
2193,0.345,0.485
2194,0.205,0.375
2195,0.195,0.245
2196,0.065,0.145
2197,-0.065,0.035
2198,-0.035,-0.045
2199,-0.105,-0.095
2200,-0.155,-0.125
2201,-0.175,-0.155
2202,-0.165,-0.175
2203,-0.225,-0.185
2204,-0.165,-0.185
2205,-0.245,-0.195
2206,-0.145,-0.205
2207,-0.205,-0.195
2208,-0.215,-0.205
2209,-0.165,-0.215
2210,-0.175,-0.205
2211,-0.195,-0.195
2212,-0.175,-0.185
2213,-0.195,-0.185
2214,-0.125,-0.195
2215,-0.175,-0.175
2216,-0.145,-0.165
2217,-0.165,-0.175
2218,-0.155,-0.185
2219,-0.145,-0.195
2220,-0.155,-0.165
2221,-0.125,-0.175
2222,-0.115,-0.175
2223,-0.145,-0.175
2224,-0.125,-0.185
2225,-0.135,-0.185
2226,-0.145,-0.195
2227,-0.145,-0.205
2228,-0.145,-0.185
2229,-0.105,-0.195
2230,-0.115,-0.205
2231,-0.105,-0.205
2232,-0.095,-0.185
2233,-0.145,-0.205
2234,-0.115,-0.215
2235,-0.145,-0.195
2236,-0.155,-0.195
2237,-0.075,-0.205
2238,-0.105,-0.215
2239,-0.135,-0.195
2240,-0.115,-0.185
2241,-0.085,-0.215
2242,-0.155,-0.205
2243,-0.095,-0.205
2244,-0.115,-0.195
2245,-0.105,-0.195
2246,-0.115,-0.205
2247,-0.095,-0.205
2248,-0.065,-0.185
2249,-0.115,-0.185
2250,-0.165,-0.195
2251,-0.055,-0.215
2252,-0.125,-0.175
2253,-0.105,-0.185
2254,-0.125,-0.195
2255,-0.095,-0.185
2256,-0.075,-0.165
2257,-0.065,-0.155
2258,-0.045,-0.165
2259,-0.035,-0.125
2260,0.035,-0.095
2261,0.005,-0.105
2262,0.055,-0.095
2263,0.055,-0.095
2264,-0.025,-0.185
2265,-0.085,-0.205
2266,-0.065,-0.195
2267,-0.145,-0.175
2268,-0.145,-0.195
2269,-0.155,-0.215
2270,-0.115,-0.215
2271,-0.125,-0.195
2272,-0.145,-0.175
2273,-0.055,-0.205
2274,-0.085,-0.165
2275,0.185,0.105
2276,0.525,0.615
2277,0.925,-0.005
2278,0.495,-1.035
2279,-0.795,-1.345
2280,-1.235,-1.495
2281,-0.945,-0.975
2282,-0.555,-0.565
2283,-0.165,-0.195
2284,-0.095,0.025
2285,-0.075,0.045
2286,-0.055,0.005
2287,-0.045,0.045
2288,-0.065,0.055
2289,-0.065,0.045
2290,-0.055,0.065
2291,-0.035,0.075
2292,-0.015,0.115
2293,-0.005,0.105
2294,0.025,0.125
2295,0.035,0.165
2296,0.015,0.165
2297,0.125,0.185
2298,0.095,0.185
2299,0.055,0.245
2300,0.165,0.275
2301,0.145,0.285
2302,0.145,0.315
2303,0.215,0.345
2304,0.265,0.395
2305,0.285,0.435
2306,0.285,0.465
2307,0.335,0.495
2308,0.415,0.545
2309,0.415,0.575
2310,0.475,0.575
2311,0.505,0.595
2312,0.405,0.615
2313,0.475,0.565
2314,0.295,0.485
2315,0.245,0.375
2316,0.205,0.245
2317,0.085,0.145
2318,0.055,0.045
2319,-0.025,-0.035
2320,-0.065,-0.075
2321,-0.075,-0.105
2322,-0.155,-0.145
2323,-0.185,-0.165
2324,-0.165,-0.145
2325,-0.115,-0.175
2326,-0.105,-0.175
2327,-0.145,-0.155
2328,-0.145,-0.155
2329,-0.145,-0.175
2330,-0.165,-0.165
2331,-0.155,-0.165
2332,-0.125,-0.145
2333,-0.165,-0.155
2334,-0.135,-0.145
2335,-0.135,-0.135
2336,-0.135,-0.135
2337,-0.115,-0.145
2338,-0.155,-0.135
2339,-0.065,-0.165
2340,-0.155,-0.135
2341,-0.085,-0.155
2342,-0.095,-0.135
2343,-0.125,-0.145
2344,-0.105,-0.155
2345,-0.095,-0.155
2346,-0.145,-0.155
2347,-0.135,-0.175
2348,-0.105,-0.155
2349,-0.105,-0.155
2350,-0.145,-0.155
2351,-0.145,-0.165
2352,-0.035,-0.165
2353,-0.105,-0.155
2354,-0.165,-0.175
2355,-0.095,-0.175
2356,-0.165,-0.165
2357,-0.095,-0.155
2358,-0.105,-0.175
2359,-0.155,-0.165
2360,-0.085,-0.165
2361,-0.085,-0.165
2362,-0.145,-0.155
2363,-0.095,-0.145
2364,-0.105,-0.125
2365,-0.035,-0.125
2366,0.045,-0.095
2367,-0.035,-0.085
2368,0.045,-0.075
2369,0.035,-0.065
2370,-0.085,-0.125
2371,-0.075,-0.185
2372,-0.055,-0.155
2373,-0.155,-0.145
2374,-0.095,-0.175
2375,-0.215,-0.175
2376,-0.155,-0.175
2377,-0.125,-0.175
2378,-0.185,-0.165
2379,-0.125,-0.155
2380,-0.085,-0.145
2381,-0.035,0.045
2382,0.365,0.365
2383,0.595,0.505
2384,0.695,-0.215
2385,-0.085,-0.735
2386,-0.785,-1.135
2387,-0.985,-1.035
2388,-0.705,-0.625
2389,-0.375,-0.385
2390,-0.145,-0.135
2391,-0.075,0.005
2392,-0.045,0.025
2393,-0.035,0.015
2394,-0.095,0.025
2395,-0.035,0.005
2396,-0.015,0.045
2397,-0.005,0.045
2398,-0.045,0.045
2399,0.035,0.045
2400,-0.015,0.085
2401,0.045,0.085
2402,0.055,0.085
2403,0.095,0.105
2404,0.085,0.135
2405,0.085,0.145
2406,0.165,0.145
2407,0.105,0.205
2408,0.195,0.225
2409,0.195,0.245
2410,0.255,0.255
2411,0.285,0.305
2412,0.315,0.355
2413,0.385,0.385
2414,0.455,0.405
2415,0.435,0.425
2416,0.485,0.455
2417,0.445,0.445
2418,0.455,0.435
2419,0.465,0.425
2420,0.385,0.385
2421,0.285,0.285
2422,0.165,0.185
2423,0.135,0.085
2424,-0.035,0.025
2425,0.025,-0.035
2426,-0.075,-0.085
2427,-0.135,-0.115
2428,-0.095,-0.125
2429,-0.105,-0.145
2430,-0.145,-0.145
2431,-0.095,-0.155
2432,-0.185,-0.145
2433,-0.095,-0.155
2434,-0.165,-0.155
2435,-0.095,-0.145
2436,-0.135,-0.135
2437,-0.135,-0.125
2438,-0.135,-0.145
2439,-0.095,-0.125
2440,-0.075,-0.125
2441,-0.055,-0.135
2442,-0.125,-0.135
2443,-0.135,-0.135
2444,-0.075,-0.125
2445,-0.115,-0.115
2446,-0.065,-0.115
2447,-0.075,-0.125
2448,-0.045,-0.115
2449,-0.095,-0.125
2450,-0.055,-0.155
2451,-0.145,-0.155
2452,-0.075,-0.135
2453,-0.025,-0.135
2454,-0.105,-0.145
2455,-0.055,-0.115
2456,-0.125,-0.135
2457,-0.065,-0.145
2458,-0.095,-0.135
2459,-0.065,-0.125
2460,-0.065,-0.125
2461,0.025,-0.125
2462,-0.025,-0.095
2463,0.085,-0.065
2464,0.115,-0.085
2465,0.005,-0.065
2466,0.065,-0.075
2467,-0.005,-0.125
2468,-0.045,-0.145
2469,0.015,-0.135
2470,-0.065,-0.135
2471,-0.105,-0.165
2472,-0.085,-0.185
2473,-0.115,-0.175
2474,-0.085,-0.175
2475,-0.125,-0.175
2476,-0.045,-0.155
2477,-0.065,-0.135
2478,0.045,0.015
2479,0.335,0.325
2480,0.735,0.545
2481,0.875,-0.095
2482,-0.045,-0.645
2483,-0.715,-1.125
2484,-0.985,-0.985
2485,-0.645,-0.605
2486,-0.475,-0.405
2487,-0.115,-0.195
2488,-0.065,-0.015
2489,0.055,-0.005
2490,0.005,0.005
2491,-0.015,0.005
2492,-0.005,0.025
2493,-0.015,0.015
2494,0.075,0.025
2495,0.085,0.045
2496,0.035,0.055
2497,0.135,0.065
2498,0.035,0.075
2499,0.055,0.065
2500,0.105,0.095
2501,0.145,0.115
2502,0.155,0.125
2503,0.175,0.145
2504,0.235,0.175
2505,0.205,0.195
2506,0.235,0.215
2507,0.315,0.245
2508,0.295,0.295
2509,0.345,0.325
2510,0.495,0.345
2511,0.475,0.385
2512,0.445,0.415
2513,0.565,0.395
2514,0.495,0.395
2515,0.535,0.385
2516,0.435,0.355
2517,0.365,0.275
2518,0.135,0.175
2519,0.215,0.095
2520,0.025,0.035
2521,0.005,-0.035
2522,-0.075,-0.075
2523,-0.045,-0.105
2524,-0.145,-0.105
2525,-0.105,-0.145
2526,-0.085,-0.155
2527,-0.165,-0.145
2528,-0.135,-0.145
2529,-0.155,-0.165
2530,-0.155,-0.165
2531,-0.175,-0.145
2532,-0.135,-0.155
2533,-0.165,-0.155
2534,-0.185,-0.155
2535,-0.085,-0.155
2536,-0.175,-0.135
2537,-0.205,-0.145
2538,-0.105,-0.165
2539,-0.175,-0.135
2540,-0.145,-0.135
2541,-0.145,-0.155
2542,-0.085,-0.155
2543,-0.245,-0.155
2544,-0.065,-0.155
2545,-0.235,-0.155
2546,-0.115,-0.165
2547,-0.185,-0.165
2548,-0.175,-0.155
2549,-0.125,-0.165
2550,-0.155,-0.175
2551,-0.185,-0.175
2552,-0.135,-0.165
2553,-0.125,-0.175
2554,-0.235,-0.175
2555,-0.135,-0.175
2556,-0.185,-0.135
2557,-0.075,-0.155
2558,-0.045,-0.145
2559,-0.025,-0.095
2560,-0.005,-0.105
2561,-0.015,-0.115
2562,0.075,-0.095
2563,-0.045,-0.125
2564,-0.095,-0.175
2565,-0.095,-0.175
2566,-0.015,-0.175
2567,-0.135,-0.155
2568,-0.175,-0.195
2569,-0.215,-0.215
2570,-0.135,-0.225
2571,-0.145,-0.215
2572,-0.105,-0.185
2573,-0.185,-0.205
2574,-0.005,-0.155
2575,0.125,0.105
2576,0.605,0.575
2577,0.935,0.245
2578,0.845,-0.635
2579,-0.495,-1.085
2580,-1.245,-1.425
2581,-0.995,-0.915
2582,-0.525,-0.505
2583,-0.175,-0.195
2584,-0.065,-0.005
2585,-0.085,-0.015
2586,-0.125,-0.025
2587,-0.055,-0.025
2588,-0.085,-0.015
2589,-0.055,-0.015
2590,-0.015,-0.005
2591,-0.015,0.025
2592,-0.005,0.045
2593,0.025,0.045
2594,0.025,0.065
2595,0.025,0.065
2596,0.055,0.115
2597,0.105,0.115
2598,0.155,0.135
2599,0.115,0.185
2600,0.175,0.215
2601,0.185,0.225
2602,0.185,0.265
2603,0.305,0.285
2604,0.295,0.355
2605,0.365,0.405
2606,0.395,0.425
2607,0.415,0.465
2608,0.495,0.505
2609,0.485,0.515
2610,0.445,0.515
2611,0.515,0.495
2612,0.475,0.485
2613,0.375,0.405
2614,0.295,0.265
2615,0.185,0.135
2616,0.055,0.025
2617,-0.035,-0.055
2618,0.005,-0.125
2619,-0.115,-0.145
2620,-0.125,-0.165
2621,-0.145,-0.195
2622,-0.095,-0.205
2623,-0.155,-0.205
2624,-0.075,-0.205
2625,-0.185,-0.215
2626,-0.185,-0.225
2627,-0.115,-0.225
2628,-0.175,-0.215
2629,-0.175,-0.205
2630,-0.175,-0.205
2631,-0.115,-0.215
2632,-0.215,-0.195
2633,-0.135,-0.195
2634,-0.185,-0.205
2635,-0.125,-0.205
2636,-0.175,-0.195
2637,-0.145,-0.195
2638,-0.125,-0.205
2639,-0.135,-0.195
2640,-0.195,-0.195
2641,-0.175,-0.205
2642,-0.165,-0.215
2643,-0.095,-0.215
2644,-0.215,-0.205
2645,-0.145,-0.215
2646,-0.195,-0.225
2647,-0.115,-0.215
2648,-0.165,-0.215
2649,-0.205,-0.215
2650,-0.185,-0.235
2651,-0.185,-0.235
2652,-0.195,-0.225
2653,-0.175,-0.235
2654,-0.145,-0.245
2655,-0.145,-0.225
2656,-0.175,-0.225
2657,-0.225,-0.225
2658,-0.175,-0.235
2659,-0.175,-0.225
2660,-0.135,-0.185
2661,-0.105,-0.195
2662,-0.015,-0.165
2663,-0.085,-0.135
2664,0.045,-0.165
2665,-0.035,-0.155
2666,-0.095,-0.165
2667,-0.145,-0.235
2668,-0.115,-0.265
2669,-0.115,-0.245
2670,-0.185,-0.225
2671,-0.235,-0.265
2672,-0.215,-0.275
2673,-0.195,-0.275
2674,-0.255,-0.265
2675,-0.185,-0.275
2676,-0.175,-0.265
2677,-0.165,-0.255
2678,0.005,-0.035
2679,0.445,0.445
2680,0.805,0.305
2681,1.045,-0.815
2682,-0.235,-1.295
2683,-1.505,-1.585
2684,-1.185,-1.135
2685,-0.685,-0.615
2686,-0.295,-0.205
2687,-0.115,-0.025
2688,-0.115,-0.045
2689,-0.215,-0.045
2690,-0.185,-0.055
2691,-0.175,-0.065
2692,-0.155,-0.015
2693,-0.165,-0.015
2694,-0.145,-0.015
2695,-0.055,0.015
2696,-0.145,0.025
2697,-0.095,0.045
2698,-0.095,0.045
2699,-0.115,0.065
2700,-0.085,0.095
2701,-0.065,0.095
2702,-0.005,0.125
2703,-0.035,0.165
2704,-0.015,0.205
2705,0.095,0.225
2706,0.105,0.265
2707,0.065,0.325
2708,0.125,0.375
2709,0.225,0.415
2710,0.215,0.465
2711,0.275,0.495
2712,0.255,0.515
2713,0.255,0.525
2714,0.275,0.505
2715,0.235,0.465
2716,0.165,0.375
2717,0.015,0.225
2718,-0.035,0.085
2719,-0.165,-0.015
2720,-0.245,-0.095
2721,-0.235,-0.155
2722,-0.365,-0.195
2723,-0.375,-0.235
2724,-0.365,-0.245
2725,-0.305,-0.265
2726,-0.395,-0.275
2727,-0.435,-0.275
2728,-0.415,-0.275
2729,-0.405,-0.295
2730,-0.495,-0.295
2731,-0.385,-0.295
2732,-0.505,-0.265
2733,-0.455,-0.275
2734,-0.385,-0.285
2735,-0.425,-0.275
2736,-0.465,-0.275
2737,-0.455,-0.275
2738,-0.475,-0.285
2739,-0.495,-0.285
2740,-0.455,-0.265
2741,-0.525,-0.275
2742,-0.495,-0.285
2743,-0.505,-0.275
2744,-0.515,-0.275
2745,-0.505,-0.295
2746,-0.525,-0.305
2747,-0.555,-0.305
2748,-0.485,-0.305
2749,-0.535,-0.315
2750,-0.475,-0.315
2751,-0.535,-0.315
2752,-0.545,-0.305
2753,-0.535,-0.325
2754,-0.545,-0.325
2755,-0.555,-0.325
2756,-0.575,-0.315
2757,-0.535,-0.315
2758,-0.475,-0.315
2759,-0.555,-0.305
2760,-0.525,-0.305
2761,-0.565,-0.315
2762,-0.465,-0.305
2763,-0.545,-0.305
2764,-0.535,-0.295
2765,-0.565,-0.295
2766,-0.465,-0.295
2767,-0.505,-0.285
2768,-0.475,-0.285
2769,-0.525,-0.285
2770,-0.495,-0.275
2771,-0.555,-0.285
2772,-0.395,-0.265
2773,-0.555,-0.265
2774,-0.465,-0.265
2775,-0.475,-0.255
2776,-0.505,-0.255
2777,-0.475,-0.255
2778,-0.435,-0.255
2779,-0.505,-0.255
2780,-0.465,-0.245
2781,-0.465,-0.255
2782,-0.435,-0.265
2783,-0.475,-0.265
2784,-0.455,-0.245
2785,-0.465,-0.255
2786,-0.505,-0.255
2787,-0.425,-0.265
2788,-0.405,-0.255
2789,-0.475,-0.265
2790,-0.395,-0.265
2791,-0.455,-0.255
2792,-0.345,-0.235
2793,-0.445,-0.255
2794,-0.415,-0.245
2795,-0.425,-0.255
2796,-0.375,-0.245
2797,-0.395,-0.245
2798,-0.375,-0.255
2799,-0.365,-0.235
2800,-0.425,-0.225
2801,-0.325,-0.225
2802,-0.375,-0.225
2803,-0.365,-0.235
2804,-0.355,-0.215
2805,-0.355,-0.215
2806,-0.265,-0.205
2807,-0.325,-0.185
2808,-0.195,-0.175
2809,-0.265,-0.135
2810,-0.175,-0.145
2811,-0.175,-0.125
2812,-0.235,-0.145
2813,-0.305,-0.225
2814,-0.245,-0.245
2815,-0.255,-0.215
2816,-0.265,-0.195
2817,-0.315,-0.215
2818,-0.385,-0.245
2819,-0.295,-0.235
2820,-0.325,-0.215
2821,-0.345,-0.215
2822,-0.245,-0.215
2823,-0.155,-0.155
2824,0.035,0.095
2825,0.445,0.475
2826,0.765,-0.105
2827,0.555,-0.965
2828,-0.735,-1.215
2829,-1.465,-1.425
2830,-1.095,-1.035
2831,-0.575,-0.565
2832,-0.285,-0.145
2833,-0.255,-0.005
2834,-0.205,0.005
2835,-0.215,-0.015
2836,-0.245,0.015
2837,-0.215,0.015
2838,-0.165,0.025
2839,-0.185,0.045
2840,-0.135,0.055
2841,-0.175,0.065
2842,-0.165,0.075
2843,-0.075,0.075
2844,-0.125,0.125
2845,-0.095,0.135
2846,-0.115,0.145
2847,0.005,0.165
2848,-0.075,0.195
2849,-0.055,0.225
2850,-0.025,0.245
2851,-0.015,0.265
2852,0.065,0.325
2853,0.105,0.365
2854,0.135,0.405
2855,0.115,0.455
2856,0.255,0.495
2857,0.155,0.535
2858,0.265,0.555
2859,0.245,0.575
2860,0.305,0.605
2861,0.265,0.595
2862,0.275,0.555
2863,0.255,0.475
2864,0.105,0.365
2865,0.035,0.205
2866,-0.095,0.085
2867,-0.185,-0.015
2868,-0.145,-0.075
2869,-0.285,-0.125
2870,-0.225,-0.165
2871,-0.255,-0.175
2872,-0.255,-0.195
2873,-0.295,-0.205
2874,-0.315,-0.225
2875,-0.245,-0.225
2876,-0.335,-0.205
2877,-0.315,-0.205
2878,-0.305,-0.215
2879,-0.305,-0.195
2880,-0.285,-0.205
2881,-0.245,-0.205
2882,-0.305,-0.195
2883,-0.265,-0.205
2884,-0.185,-0.185
2885,-0.345,-0.185
2886,-0.225,-0.195
2887,-0.265,-0.185
2888,-0.295,-0.175
2889,-0.225,-0.185
2890,-0.275,-0.205
2891,-0.245,-0.205
2892,-0.215,-0.185
2893,-0.235,-0.205
2894,-0.255,-0.195
2895,-0.205,-0.195
2896,-0.215,-0.195
2897,-0.205,-0.205
2898,-0.225,-0.215
2899,-0.215,-0.215
2900,-0.165,-0.205
2901,-0.155,-0.205
2902,-0.185,-0.215
2903,-0.155,-0.215
2904,-0.185,-0.195
2905,-0.135,-0.215
2906,-0.145,-0.215
2907,-0.155,-0.205
2908,-0.125,-0.205
2909,-0.135,-0.205
2910,-0.095,-0.205
2911,-0.105,-0.195
2912,-0.125,-0.195
2913,-0.055,-0.205
2914,-0.095,-0.205
2915,-0.105,-0.195
2916,-0.045,-0.185
2917,-0.105,-0.205
2918,-0.055,-0.195
2919,-0.065,-0.185
2920,-0.075,-0.185
2921,-0.045,-0.195
2922,-0.105,-0.195
2923,-0.035,-0.195
2924,-0.055,-0.175
2925,-0.055,-0.185
2926,-0.045,-0.185
2927,-0.075,-0.175
2928,-0.075,-0.175
2929,-0.065,-0.175
2930,-0.085,-0.195
2931,-0.075,-0.195
2932,-0.115,-0.175
2933,-0.085,-0.175
2934,-0.115,-0.175
2935,-0.085,-0.175
2936,-0.055,-0.165
2937,-0.115,-0.175
2938,-0.105,-0.185
2939,-0.135,-0.165
2940,-0.135,-0.155
2941,-0.065,-0.145
2942,-0.115,-0.165
2943,-0.125,-0.135
2944,-0.075,-0.095
2945,-0.005,-0.095
2946,-0.025,-0.065
2947,-0.025,-0.105
2948,-0.105,-0.175
2949,-0.045,-0.175
2950,-0.115,-0.165
2951,-0.155,-0.145
2952,-0.155,-0.155
2953,-0.185,-0.185
2954,-0.215,-0.195
2955,-0.175,-0.185
2956,-0.155,-0.165
2957,-0.135,-0.165
2958,-0.055,-0.085
2959,0.275,0.215
2960,0.525,0.595
2961,0.845,-0.155
2962,0.485,-0.935
2963,-0.895,-1.205
2964,-1.295,-1.395
2965,-0.845,-0.925
2966,-0.425,-0.495
2967,-0.175,-0.095
2968,-0.055,0.055
2969,-0.075,0.045
2970,-0.145,0.035
2971,-0.105,0.035
2972,-0.045,0.055
2973,-0.065,0.045
2974,-0.075,0.075
2975,-0.035,0.085
2976,0.075,0.095
2977,0.015,0.105
2978,-0.015,0.125
2979,0.035,0.135
2980,0.035,0.175
2981,0.035,0.185
2982,0.115,0.195
2983,0.055,0.225
2984,0.155,0.255
2985,0.115,0.285
2986,0.145,0.305
2987,0.235,0.345
2988,0.225,0.395
2989,0.275,0.435
2990,0.345,0.495
2991,0.305,0.535
2992,0.385,0.555
2993,0.415,0.575
2994,0.365,0.585
2995,0.445,0.585
2996,0.365,0.575
2997,0.305,0.505
2998,0.315,0.385
2999,0.125,0.235
3000,0.055,0.125
3001,-0.075,0.015
3002,-0.025,-0.055
3003,-0.105,-0.085
3004,-0.215,-0.105
3005,-0.065,-0.135
3006,-0.205,-0.165
3007,-0.125,-0.165
3008,-0.165,-0.175
3009,-0.195,-0.185
3010,-0.175,-0.195
3011,-0.185,-0.205
3012,-0.205,-0.185
3013,-0.135,-0.185
3014,-0.165,-0.185
3015,-0.215,-0.165
3016,-0.175,-0.175
3017,-0.125,-0.175
3018,-0.165,-0.185
3019,-0.135,-0.175
3020,-0.165,-0.165
3021,-0.115,-0.165
3022,-0.065,-0.165
3023,-0.155,-0.165
3024,-0.115,-0.155
3025,-0.105,-0.165
3026,-0.055,-0.175
3027,-0.145,-0.175
3028,-0.125,-0.175
3029,-0.075,-0.175
3030,-0.115,-0.185
3031,-0.075,-0.185
3032,-0.105,-0.175
3033,-0.095,-0.185
3034,-0.135,-0.185
3035,-0.045,-0.205
3036,-0.185,-0.205
3037,-0.015,-0.195
3038,-0.035,-0.195
3039,-0.105,-0.195
3040,-0.085,-0.195
3041,-0.115,-0.195
3042,-0.085,-0.205
3043,-0.075,-0.205
3044,-0.085,-0.185
3045,-0.075,-0.185
3046,-0.065,-0.195
3047,-0.125,-0.185
3048,-0.055,-0.185
3049,-0.075,-0.195
3050,-0.085,-0.195
3051,-0.105,-0.205
3052,-0.015,-0.185
3053,-0.065,-0.185
3054,-0.105,-0.185
3055,-0.005,-0.175
3056,-0.065,-0.185
3057,-0.025,-0.185
3058,-0.125,-0.185
3059,-0.075,-0.195
3060,-0.045,-0.185
3061,-0.115,-0.175
3062,0.005,-0.195
3063,-0.105,-0.165
3064,-0.025,-0.175
3065,-0.085,-0.175
3066,-0.035,-0.185
3067,-0.135,-0.185
3068,-0.045,-0.185
3069,-0.065,-0.165
3070,0.015,-0.185
3071,-0.075,-0.175
3072,-0.025,-0.175
3073,-0.025,-0.175
3074,-0.095,-0.175
3075,0.005,-0.165
3076,-0.045,-0.145
3077,-0.055,-0.155
3078,-0.025,-0.145
3079,0.075,-0.095
3080,0.105,-0.035
3081,0.105,-0.065
3082,0.035,-0.185
3083,-0.035,-0.205
3084,-0.025,-0.155
3085,-0.005,-0.145
3086,-0.055,-0.185
3087,-0.095,-0.195
3088,-0.085,-0.185
3089,0.025,-0.175
3090,-0.055,-0.175
3091,-0.025,-0.175
3092,0.185,0.045
3093,0.585,0.435
3094,0.695,0.425
3095,0.985,-0.615
3096,0.075,-1.025
3097,-1.075,-1.375
3098,-1.055,-1.245
3099,-0.675,-0.785
3100,-0.135,-0.375
3101,-0.005,-0.055
3102,0.025,0.035
3103,0.045,0.025
3104,0.085,0.035
3105,0.035,0.055
3106,-0.015,0.045
3107,0.105,0.055
3108,0.065,0.085
3109,0.105,0.095
3110,0.145,0.105
3111,0.135,0.125
3112,0.095,0.145
3113,0.245,0.145
3114,0.215,0.175
3115,0.145,0.205
3116,0.315,0.235
3117,0.225,0.245
3118,0.325,0.285
3119,0.335,0.325
3120,0.365,0.365
3121,0.425,0.395
3122,0.455,0.425
3123,0.475,0.485
3124,0.645,0.545
3125,0.695,0.575
3126,0.665,0.615
3127,0.735,0.645
3128,0.695,0.665
3129,0.735,0.675
3130,0.655,0.645
3131,0.635,0.575
3132,0.575,0.485
3133,0.465,0.355
3134,0.415,0.235
3135,0.305,0.145
3136,0.215,0.065
3137,0.325,-0.015
3138,0.185,-0.045
3139,0.125,-0.055
3140,0.165,-0.065
3141,0.145,-0.085
3142,0.125,-0.095
3143,0.135,-0.095
3144,0.135,-0.095
3145,0.115,-0.105
3146,0.085,-0.125
3147,0.115,-0.135
3148,0.105,-0.105
3149,0.145,-0.115
3150,0.095,-0.105
3151,0.075,-0.095
3152,0.065,-0.085
3153,0.165,-0.095
3154,0.065,-0.105
3155,0.115,-0.105
3156,0.145,-0.095
3157,0.135,-0.095
3158,0.125,-0.105
3159,0.165,-0.095
3160,0.145,-0.095
3161,0.095,-0.105
3162,0.145,-0.115
3163,0.125,-0.115
3164,0.125,-0.105
3165,0.135,-0.105
3166,0.155,-0.115
3167,0.165,-0.105
3168,0.135,-0.105
3169,0.165,-0.115
3170,0.145,-0.115
3171,0.135,-0.115
3172,0.155,-0.105
3173,0.145,-0.115
3174,0.155,-0.115
3175,0.175,-0.105
3176,0.145,-0.105
3177,0.125,-0.105
3178,0.115,-0.105
3179,0.055,-0.105
3180,0.245,-0.095
3181,0.085,-0.095
3182,0.105,-0.095
3183,0.155,-0.095
3184,0.095,-0.085
3185,0.095,-0.095
3186,0.045,-0.115
3187,0.065,-0.115
3188,0.085,-0.105
3189,0.085,-0.115
3190,0.075,-0.115
3191,0.065,-0.105
3192,0.065,-0.105
3193,0.035,-0.115
3194,0.035,-0.125
3195,0.045,-0.125
3196,0.005,-0.125
3197,0.065,-0.125
3198,0.085,-0.125
3199,0.035,-0.105
3200,0.025,-0.105
3201,0.025,-0.115
3202,0.005,-0.125
3203,0.025,-0.125
3204,0.015,-0.115
3205,0.015,-0.115
3206,0.025,-0.125
3207,0.035,-0.105
3208,-0.045,-0.115
3209,0.025,-0.125
3210,0.025,-0.125
3211,0.025,-0.105
3212,0.005,-0.085
3213,-0.025,-0.105
3214,0.045,-0.095
3215,0.125,-0.025
3216,0.135,0.045
3217,0.075,-0.025
3218,0.015,-0.135
3219,-0.025,-0.135
3220,-0.005,-0.105
3221,-0.085,-0.115
3222,-0.145,-0.155
3223,-0.045,-0.145
3224,-0.075,-0.145
3225,-0.145,-0.135
3226,-0.085,-0.145
3227,0.025,-0.135
3228,0.105,0.125
3229,0.475,0.505
3230,0.805,0.415
3231,0.805,-0.485
3232,-0.305,-0.875
3233,-1.045,-1.345
3234,-0.995,-1.015
3235,-0.605,-0.645
3236,-0.225,-0.315
3237,-0.085,-0.015
3238,-0.025,0.055
3239,-0.015,0.055
3240,-0.065,0.045
3241,-0.025,0.055
3242,-0.065,0.045
3243,-0.015,0.065
3244,0.035,0.095
3245,-0.005,0.105
3246,0.075,0.105
3247,0.045,0.125
3248,0.055,0.145
3249,0.085,0.165
3250,0.045,0.175
3251,0.085,0.185
3252,0.095,0.205
3253,0.145,0.225
3254,0.175,0.245
3255,0.195,0.275
3256,0.195,0.315
3257,0.265,0.345
3258,0.285,0.375
3259,0.255,0.425
3260,0.385,0.445
3261,0.415,0.485
3262,0.435,0.505
3263,0.475,0.545
3264,0.485,0.545
3265,0.455,0.555
3266,0.445,0.535
3267,0.415,0.495
3268,0.325,0.395
3269,0.245,0.295
3270,0.155,0.165
3271,0.085,0.105
3272,-0.015,0.045
3273,-0.055,-0.025
3274,-0.095,-0.065
3275,-0.085,-0.105
3276,-0.135,-0.115
3277,-0.105,-0.115
3278,-0.105,-0.145
3279,-0.125,-0.125
3280,-0.095,-0.125
3281,-0.115,-0.145
3282,-0.145,-0.135
3283,-0.135,-0.135
3284,-0.105,-0.105
3285,-0.045,-0.125
3286,-0.045,-0.135
3287,-0.075,-0.115
3288,-0.095,-0.105
3289,-0.125,-0.115
3290,-0.065,-0.115
3291,-0.065,-0.115
3292,-0.055,-0.105
3293,-0.095,-0.105
3294,-0.075,-0.115
3295,-0.005,-0.115
3296,-0.015,-0.115
3297,-0.055,-0.125
3298,-0.085,-0.135
3299,-0.045,-0.125
3300,-0.035,-0.115
3301,-0.055,-0.125
3302,-0.085,-0.135
3303,-0.015,-0.125
3304,-0.025,-0.125
3305,-0.035,-0.135
3306,-0.095,-0.145
3307,-0.045,-0.145
3308,-0.035,-0.135
3309,-0.045,-0.145
3310,-0.075,-0.135
3311,-0.045,-0.135
3312,-0.015,-0.125
3313,-0.045,-0.135
3314,-0.065,-0.135
3315,-0.045,-0.145
3316,-0.025,-0.145
3317,-0.045,-0.135
3318,-0.065,-0.135
3319,-0.045,-0.145
3320,-0.075,-0.145
3321,-0.055,-0.145
3322,-0.055,-0.145
3323,-0.115,-0.145
3324,-0.075,-0.135
3325,-0.075,-0.125
3326,-0.055,-0.145
3327,-0.055,-0.125
3328,-0.085,-0.135
3329,-0.095,-0.135
3330,-0.095,-0.155
3331,-0.085,-0.145
3332,-0.095,-0.135
3333,-0.095,-0.135
3334,-0.075,-0.145
3335,-0.095,-0.135
3336,-0.115,-0.135
3337,-0.095,-0.145
3338,-0.075,-0.135
3339,-0.065,-0.115
3340,-0.045,-0.115
3341,-0.015,-0.095
3342,0.015,-0.065
3343,0.035,-0.075
3344,0.065,-0.045
3345,0.035,-0.055
3346,-0.105,-0.125
3347,-0.085,-0.155
3348,-0.025,-0.125
3349,-0.085,-0.115
3350,-0.135,-0.155
3351,-0.175,-0.165
3352,-0.155,-0.165
3353,-0.125,-0.155
3354,-0.145,-0.155
3355,-0.175,-0.155
3356,0.015,-0.085
3357,0.255,0.125
3358,0.655,0.465
3359,0.985,0.085
3360,0.485,-0.465
3361,-0.775,-0.825
3362,-1.175,-1.085
3363,-0.895,-0.795
3364,-0.525,-0.535
3365,-0.185,-0.245
3366,-0.095,-0.065
3367,-0.095,-0.005
3368,-0.125,-0.005
3369,-0.055,0.005
3370,-0.055,0.005
3371,-0.035,0.005
3372,-0.025,0.035
3373,-0.015,0.035
3374,-0.015,0.045
3375,0.015,0.065
3376,0.035,0.085
3377,0.045,0.095
3378,0.045,0.115
3379,0.085,0.125
3380,0.095,0.165
3381,0.125,0.175
3382,0.125,0.195
3383,0.185,0.225
3384,0.185,0.275
3385,0.245,0.285
3386,0.265,0.315
3387,0.305,0.365
3388,0.375,0.425
3389,0.415,0.455
3390,0.485,0.485
3391,0.465,0.525
3392,0.495,0.545
3393,0.505,0.545
3394,0.485,0.535
3395,0.485,0.505
3396,0.435,0.435
3397,0.335,0.335
3398,0.265,0.205
3399,0.165,0.125
3400,0.125,0.035
3401,0.085,-0.025
3402,0.015,-0.075
3403,0.005,-0.115
3404,-0.035,-0.115
3405,-0.025,-0.135
3406,-0.005,-0.155
3407,-0.015,-0.145
3408,-0.045,-0.145
3409,-0.035,-0.155
3410,-0.065,-0.155
3411,-0.045,-0.155
3412,-0.025,-0.135
3413,-0.025,-0.135
3414,-0.005,-0.135
3415,-0.025,-0.125
3416,0.005,-0.115
3417,0.025,-0.115
3418,0.005,-0.115
3419,0.025,-0.125
3420,0.015,-0.105
3421,0.045,-0.115
3422,0.075,-0.115
3423,0.075,-0.105
3424,0.085,-0.095
3425,0.075,-0.105
3426,0.075,-0.105
3427,0.085,-0.105
3428,0.095,-0.095
3429,0.105,-0.095
3430,0.135,-0.105
3431,0.105,-0.095
3432,0.095,-0.105
3433,0.085,-0.115
3434,0.075,-0.125
3435,0.075,-0.115
3436,0.055,-0.115
3437,0.065,-0.125
3438,0.065,-0.135
3439,0.065,-0.115
3440,0.035,-0.125
3441,0.025,-0.125
3442,0.015,-0.135
3443,0.035,-0.145
3444,-0.005,-0.135
3445,0.005,-0.145
3446,0.025,-0.145
3447,0.005,-0.145
3448,0.005,-0.135
3449,-0.005,-0.145
3450,-0.025,-0.145
3451,-0.025,-0.135
3452,-0.015,-0.125
3453,-0.035,-0.125
3454,0.015,-0.115
3455,-0.005,-0.105
3456,0.045,-0.105
3457,0.055,-0.045
3458,0.045,-0.065
3459,0.085,-0.055
3460,0.115,-0.035
3461,0.035,-0.065
3462,-0.015,-0.155
3463,-0.025,-0.135
3464,-0.055,-0.125
3465,-0.115,-0.135
3466,-0.165,-0.165
3467,-0.155,-0.185
3468,-0.145,-0.165
3469,-0.125,-0.165
3470,-0.115,-0.165
3471,-0.125,-0.155
3472,-0.015,-0.065
3473,0.215,0.165
3474,0.575,0.555
3475,0.965,0.305
3476,0.535,-0.325
3477,-0.655,-0.775
3478,-1.045,-1.205
3479,-0.905,-0.895
3480,-0.565,-0.605
3481,-0.235,-0.325
3482,-0.125,-0.065
3483,-0.095,-0.005
3484,-0.045,0.025
3485,-0.095,0.025
3486,-0.035,0.015
3487,-0.035,0.025
3488,-0.025,0.035
3489,-0.035,0.055
3490,-0.025,0.045
3491,-0.025,0.065
3492,0.005,0.085
3493,0.005,0.095
3494,0.035,0.105
3495,0.045,0.135
3496,0.045,0.135
3497,0.065,0.155
3498,0.055,0.165
3499,0.095,0.195
3500,0.125,0.225
3501,0.165,0.255
3502,0.195,0.285
3503,0.215,0.325
3504,0.235,0.365
3505,0.275,0.385
3506,0.295,0.405
3507,0.335,0.425
3508,0.335,0.445
3509,0.345,0.435
3510,0.335,0.425
3511,0.305,0.385
3512,0.225,0.325
3513,0.125,0.205
3514,0.025,0.115
3515,-0.035,0.025
3516,-0.055,-0.015
3517,-0.125,-0.075
3518,-0.095,-0.115
3519,-0.145,-0.135
3520,-0.155,-0.145
3521,-0.165,-0.165
3522,-0.155,-0.175
3523,-0.165,-0.165
3524,-0.155,-0.165
3525,-0.195,-0.165
3526,-0.165,-0.175
3527,-0.195,-0.165
3528,-0.195,-0.165
3529,-0.205,-0.165
3530,-0.185,-0.175
3531,-0.195,-0.155
3532,-0.205,-0.165
3533,-0.195,-0.175
3534,-0.175,-0.175
3535,-0.165,-0.155
3536,-0.225,-0.145
3537,-0.185,-0.155
3538,-0.215,-0.165
3539,-0.205,-0.175
3540,-0.225,-0.155
3541,-0.195,-0.165
3542,-0.225,-0.165
3543,-0.215,-0.165
3544,-0.225,-0.155
3545,-0.205,-0.175
3546,-0.245,-0.175
3547,-0.215,-0.175
3548,-0.225,-0.185
3549,-0.255,-0.195
3550,-0.205,-0.205
3551,-0.215,-0.185
3552,-0.205,-0.185
3553,-0.215,-0.195
3554,-0.245,-0.205
3555,-0.255,-0.205
3556,-0.225,-0.195
3557,-0.255,-0.205
3558,-0.245,-0.215
3559,-0.245,-0.195
3560,-0.275,-0.205
3561,-0.255,-0.205
3562,-0.285,-0.225
3563,-0.255,-0.235
3564,-0.265,-0.215
3565,-0.245,-0.215
3566,-0.245,-0.215
3567,-0.245,-0.195
3568,-0.225,-0.185
3569,-0.175,-0.195
3570,-0.155,-0.135
3571,-0.165,-0.145
3572,-0.125,-0.125
3573,-0.115,-0.125
3574,-0.135,-0.145
3575,-0.265,-0.215
3576,-0.235,-0.225
3577,-0.265,-0.205
3578,-0.325,-0.225
3579,-0.365,-0.255
3580,-0.345,-0.255
3581,-0.355,-0.265
3582,-0.315,-0.255
3583,-0.315,-0.235
3584,-0.335,-0.225
3585,-0.265,-0.165
3586,-0.115,0.045
3587,0.285,0.365
3588,0.665,0.325
3589,0.545,-0.305
3590,-0.555,-0.725
3591,-1.145,-1.285
3592,-1.145,-1.065
3593,-0.855,-0.775
3594,-0.515,-0.485
3595,-0.335,-0.165
3596,-0.275,-0.075
3597,-0.265,-0.065
3598,-0.235,-0.075
3599,-0.235,-0.055
3600,-0.225,-0.045
3601,-0.225,-0.055
3602,-0.215,-0.035
3603,-0.195,-0.025
3604,-0.175,0.005
3605,-0.175,0.005
3606,-0.125,0.005
3607,-0.145,0.045
3608,-0.115,0.045
3609,-0.105,0.065
3610,-0.105,0.075
3611,-0.085,0.085
3612,-0.045,0.125
3613,-0.025,0.145
3614,0.005,0.165
3615,0.025,0.215
3616,0.055,0.235
3617,0.095,0.265
3618,0.125,0.285
3619,0.155,0.315
3620,0.195,0.335
3621,0.205,0.355
3622,0.215,0.345
3623,0.225,0.365
3624,0.195,0.345
3625,0.135,0.285
3626,0.015,0.195
3627,-0.045,0.085
3628,-0.115,0.025
3629,-0.185,-0.045
3630,-0.215,-0.115
3631,-0.245,-0.145
3632,-0.265,-0.165
3633,-0.295,-0.205
3634,-0.325,-0.215
3635,-0.315,-0.245
3636,-0.315,-0.225
3637,-0.325,-0.235
3638,-0.315,-0.235
3639,-0.315,-0.225
3640,-0.305,-0.225
3641,-0.315,-0.225
3642,-0.325,-0.235
3643,-0.325,-0.225
3644,-0.295,-0.215
3645,-0.305,-0.215
3646,-0.265,-0.225
3647,-0.285,-0.215
3648,-0.275,-0.215
3649,-0.275,-0.215
3650,-0.275,-0.225
3651,-0.275,-0.225
3652,-0.275,-0.215
3653,-0.285,-0.225
3654,-0.255,-0.225
3655,-0.265,-0.225
3656,-0.285,-0.235
3657,-0.275,-0.235
3658,-0.295,-0.245
3659,-0.295,-0.245
3660,-0.295,-0.245
3661,-0.305,-0.235
3662,-0.285,-0.245
3663,-0.285,-0.235
3664,-0.295,-0.245
3665,-0.285,-0.245
3666,-0.315,-0.245
3667,-0.295,-0.265
3668,-0.295,-0.245
3669,-0.285,-0.255
3670,-0.275,-0.265
3671,-0.285,-0.255
3672,-0.295,-0.245
3673,-0.295,-0.265
3674,-0.295,-0.255
3675,-0.305,-0.255
3676,-0.275,-0.245
3677,-0.265,-0.235
3678,-0.215,-0.225
3679,-0.185,-0.215
3680,-0.165,-0.145
3681,-0.155,-0.145
3682,-0.115,-0.165
3683,-0.125,-0.165
3684,-0.175,-0.175
3685,-0.245,-0.265
3686,-0.235,-0.265
3687,-0.245,-0.235
3688,-0.295,-0.245
3689,-0.335,-0.265
3690,-0.345,-0.285
3691,-0.315,-0.275
3692,-0.295,-0.275
3693,-0.305,-0.255
3694,-0.275,-0.265
3695,-0.145,-0.115
3696,0.105,0.115
3697,0.455,0.515
3698,0.825,0.065
3699,0.375,-0.545
3700,-0.715,-0.895
3701,-1.205,-1.385
3702,-1.095,-1.095
3703,-0.745,-0.775
3704,-0.385,-0.445
3705,-0.235,-0.145
3706,-0.215,-0.075
3707,-0.205,-0.075
3708,-0.185,-0.075
3709,-0.185,-0.065
3710,-0.135,-0.055
3711,-0.145,-0.035
3712,-0.125,-0.025
3713,-0.145,-0.025
3714,-0.135,-0.025
3715,-0.115,-0.005
3716,-0.085,0.025
3717,-0.075,0.035
3718,-0.045,0.035
3719,-0.025,0.085
3720,-0.015,0.095
3721,-0.005,0.115
3722,-0.025,0.125
3723,0.035,0.145
3724,0.085,0.195
3725,0.115,0.215
3726,0.135,0.245
3727,0.185,0.295
3728,0.225,0.335
3729,0.265,0.355
3730,0.265,0.375
3731,0.305,0.375
3732,0.305,0.425
3733,0.305,0.405
3734,0.295,0.385
3735,0.235,0.325
3736,0.145,0.265
3737,0.055,0.155
3738,-0.035,0.055
3739,-0.105,-0.035
3740,-0.145,-0.085
3741,-0.175,-0.145
3742,-0.155,-0.165
3743,-0.195,-0.175
3744,-0.185,-0.175
3745,-0.215,-0.195
3746,-0.215,-0.205
3747,-0.225,-0.215
3748,-0.205,-0.205
3749,-0.195,-0.205
3750,-0.185,-0.215
3751,-0.185,-0.185
3752,-0.185,-0.185
3753,-0.185,-0.195
3754,-0.185,-0.195
3755,-0.165,-0.195
3756,-0.165,-0.185
3757,-0.165,-0.185
3758,-0.145,-0.195
3759,-0.135,-0.185
3760,-0.135,-0.175
3761,-0.135,-0.195
3762,-0.155,-0.185
3763,-0.135,-0.205
3764,-0.125,-0.185
3765,-0.145,-0.185
3766,-0.115,-0.195
3767,-0.125,-0.195
3768,-0.125,-0.185
3769,-0.135,-0.195
3770,-0.145,-0.205
3771,-0.145,-0.195
3772,-0.135,-0.195
3773,-0.135,-0.205
3774,-0.145,-0.205
3775,-0.135,-0.195
3776,-0.135,-0.185
3777,-0.145,-0.205
3778,-0.165,-0.205
3779,-0.145,-0.205
3780,-0.145,-0.195
3781,-0.155,-0.195
3782,-0.135,-0.205
3783,-0.155,-0.185
3784,-0.135,-0.185
3785,-0.125,-0.165
3786,-0.145,-0.175
3787,-0.085,-0.155
3788,-0.045,-0.105
3789,-0.065,-0.105
3790,-0.015,-0.125
3791,-0.015,-0.095
3792,-0.085,-0.115
3793,-0.125,-0.205
3794,-0.165,-0.205
3795,-0.155,-0.185
3796,-0.205,-0.175
3797,-0.235,-0.215
3798,-0.225,-0.235
3799,-0.215,-0.225
3800,-0.215,-0.215
3801,-0.205,-0.215
3802,-0.225,-0.215
3803,-0.095,-0.135
3804,0.085,0.125
3805,0.435,0.515
3806,0.855,0.225
3807,0.495,-0.465
3808,-0.585,-0.855
3809,-1.085,-1.255
3810,-1.015,-0.955
3811,-0.665,-0.665
3812,-0.335,-0.375
3813,-0.215,-0.105
3814,-0.135,-0.045
3815,-0.115,-0.035
3816,-0.115,-0.035
3817,-0.125,-0.045
3818,-0.105,-0.045
3819,-0.085,-0.025
3820,-0.065,-0.005
3821,-0.075,0.015
3822,-0.035,0.015
3823,-0.015,0.035
3824,-0.025,0.055
3825,0.005,0.065
3826,-0.005,0.075
3827,0.025,0.085
3828,0.045,0.125
3829,0.075,0.135
3830,0.115,0.155
3831,0.135,0.195
3832,0.155,0.225
3833,0.195,0.235
3834,0.215,0.275
3835,0.265,0.305
3836,0.315,0.355
3837,0.335,0.375
3838,0.375,0.375
3839,0.385,0.405
3840,0.395,0.415
3841,0.375,0.405
3842,0.325,0.365
3843,0.275,0.295
3844,0.185,0.215
3845,0.095,0.125
3846,0.035,0.025
3847,-0.025,-0.025
3848,-0.075,-0.085
3849,-0.115,-0.125
3850,-0.155,-0.165
3851,-0.155,-0.185
3852,-0.165,-0.175
3853,-0.155,-0.185
3854,-0.155,-0.195
3855,-0.165,-0.205
3856,-0.165,-0.185
3857,-0.175,-0.195
3858,-0.185,-0.195
3859,-0.165,-0.195
3860,-0.165,-0.185
3861,-0.165,-0.185
3862,-0.155,-0.175
3863,-0.155,-0.175
3864,-0.145,-0.165
3865,-0.135,-0.175
3866,-0.155,-0.165
3867,-0.155,-0.185
3868,-0.145,-0.165
3869,-0.145,-0.175
3870,-0.115,-0.175
3871,-0.135,-0.175
3872,-0.135,-0.175
3873,-0.145,-0.185
3874,-0.155,-0.195
3875,-0.155,-0.195
3876,-0.145,-0.195
3877,-0.145,-0.195
3878,-0.135,-0.205
3879,-0.155,-0.195
3880,-0.145,-0.195
3881,-0.165,-0.195
3882,-0.185,-0.205
3883,-0.155,-0.205
3884,-0.155,-0.195
3885,-0.165,-0.205
3886,-0.155,-0.205
3887,-0.145,-0.185
3888,-0.165,-0.185
3889,-0.175,-0.195
3890,-0.195,-0.215
3891,-0.165,-0.205
3892,-0.175,-0.185
3893,-0.155,-0.195
3894,-0.135,-0.165
3895,-0.125,-0.165
3896,-0.075,-0.155
3897,-0.055,-0.105
3898,-0.065,-0.095
3899,-0.035,-0.115
3900,-0.005,-0.105
3901,-0.085,-0.125
3902,-0.135,-0.195
3903,-0.145,-0.195
3904,-0.135,-0.175
3905,-0.205,-0.175
3906,-0.245,-0.215
3907,-0.255,-0.235
3908,-0.235,-0.225
3909,-0.215,-0.215
3910,-0.195,-0.215
3911,-0.215,-0.185
3912,-0.095,-0.145
3913,0.105,0.125
3914,0.475,0.515
3915,0.835,0.225
3916,0.625,-0.515
3917,-0.565,-0.875
3918,-1.205,-1.375
3919,-1.045,-1.025
3920,-0.615,-0.675
3921,-0.265,-0.315
3922,-0.175,-0.065
3923,-0.135,-0.025
3924,-0.135,-0.015
3925,-0.115,-0.025
3926,-0.095,-0.015
3927,-0.085,-0.005
3928,-0.075,0.015
3929,-0.045,0.015
3930,-0.065,0.025
3931,-0.035,0.045
3932,-0.025,0.055
3933,-0.015,0.065
3934,0.035,0.085
3935,0.025,0.105
3936,0.045,0.145
3937,0.075,0.155
3938,0.075,0.165
3939,0.105,0.185
3940,0.145,0.225
3941,0.155,0.255
3942,0.235,0.285
3943,0.265,0.335
3944,0.295,0.375
3945,0.335,0.405
3946,0.355,0.425
3947,0.375,0.445
3948,0.405,0.475
3949,0.415,0.485
3950,0.415,0.455
3951,0.355,0.425
3952,0.265,0.335
3953,0.175,0.215
3954,0.065,0.105
3955,0.015,0.025
3956,-0.055,-0.025
3957,-0.085,-0.085
3958,-0.095,-0.125
3959,-0.115,-0.135
3960,-0.135,-0.145
3961,-0.135,-0.175
3962,-0.155,-0.185
3963,-0.165,-0.185
3964,-0.145,-0.175
3965,-0.155,-0.185
3966,-0.135,-0.195
3967,-0.155,-0.175
3968,-0.135,-0.165
3969,-0.135,-0.165
3970,-0.155,-0.175
3971,-0.155,-0.165
3972,-0.135,-0.145
3973,-0.135,-0.155
3974,-0.105,-0.165
3975,-0.125,-0.155
3976,-0.125,-0.155
3977,-0.125,-0.165
3978,-0.135,-0.175
3979,-0.135,-0.165
3980,-0.125,-0.165
3981,-0.135,-0.165
3982,-0.125,-0.185
3983,-0.135,-0.165
3984,-0.135,-0.175
3985,-0.135,-0.175
3986,-0.155,-0.175
3987,-0.135,-0.185
3988,-0.155,-0.175
3989,-0.145,-0.185
3990,-0.135,-0.205
3991,-0.125,-0.185
3992,-0.165,-0.175
3993,-0.145,-0.195
3994,-0.165,-0.185
3995,-0.165,-0.205
3996,-0.155,-0.175
3997,-0.155,-0.185
3998,-0.135,-0.185
3999,-0.155,-0.185
4000,-0.165,-0.175
4001,-0.155,-0.185
4002,-0.165,-0.185
4003,-0.165,-0.185
4004,-0.155,-0.175
4005,-0.165,-0.175
4006,-0.135,-0.185
4007,-0.145,-0.175
4008,-0.155,-0.165
4009,-0.145,-0.175
4010,-0.165,-0.185
4011,-0.155,-0.175
4012,-0.155,-0.175
4013,-0.145,-0.165
4014,-0.105,-0.165
4015,-0.085,-0.145
4016,-0.075,-0.145
4017,-0.015,-0.095
4018,-0.035,-0.075
4019,-0.005,-0.085
4020,0.025,-0.065
4021,-0.005,-0.085
4022,-0.065,-0.165
4023,-0.085,-0.185
4024,-0.095,-0.155
4025,-0.125,-0.165
4026,-0.185,-0.175
4027,-0.175,-0.215
4028,-0.185,-0.185
4029,-0.155,-0.195
4030,-0.125,-0.195
4031,-0.145,-0.175
4032,-0.065,-0.155
4033,0.075,0.035
4034,0.475,0.335
4035,0.745,0.425
4036,0.905,-0.295
4037,-0.135,-0.695
4038,-1.035,-1.145
4039,-1.105,-1.065
4040,-0.695,-0.745
4041,-0.315,-0.435
4042,-0.135,-0.145
4043,-0.075,-0.015
4044,-0.065,0.015
4045,-0.055,0.005
4046,-0.035,0.015
4047,-0.035,0.025
4048,-0.025,0.035
4049,0.005,0.035
4050,-0.015,0.055
4051,0.025,0.045
4052,0.055,0.085
4053,0.055,0.085
4054,0.085,0.095
4055,0.085,0.115
4056,0.115,0.145
4057,0.125,0.145
4058,0.125,0.155
4059,0.165,0.165
4060,0.195,0.205
4061,0.225,0.215
4062,0.275,0.235
4063,0.285,0.255
4064,0.355,0.295
4065,0.365,0.315
4066,0.395,0.325
4067,0.425,0.345
4068,0.455,0.375
4069,0.465,0.385
4070,0.505,0.385
4071,0.445,0.365
4072,0.395,0.345
4073,0.295,0.285
4074,0.195,0.195
4075,0.085,0.125
4076,0.065,0.075
4077,0.005,0.005
4078,-0.005,-0.035
4079,-0.095,-0.065
4080,-0.025,-0.085
4081,-0.155,-0.105
4082,-0.135,-0.125
4083,-0.005,-0.135
4084,-0.035,-0.135
4085,-0.085,-0.145
4086,-0.045,-0.155
4087,-0.045,-0.155
4088,-0.075,-0.145
4089,-0.085,-0.145
4090,-0.075,-0.165
4091,-0.065,-0.165
4092,-0.095,-0.145
4093,-0.075,-0.155
4094,-0.035,-0.165
4095,-0.035,-0.145
4096,-0.045,-0.155
4097,-0.035,-0.145
4098,-0.065,-0.165
4099,-0.055,-0.165
4100,-0.035,-0.165
4101,-0.045,-0.165
4102,-0.035,-0.175
4103,-0.025,-0.165
4104,-0.055,-0.165
4105,-0.065,-0.175
4106,-0.085,-0.185
4107,-0.055,-0.185
4108,-0.035,-0.175
4109,-0.075,-0.185
4110,-0.035,-0.195
4111,-0.035,-0.185
4112,-0.045,-0.185
4113,-0.065,-0.195
4114,-0.095,-0.185
4115,-0.065,-0.205
4116,-0.065,-0.185
4117,-0.065,-0.185
4118,-0.055,-0.195
4119,-0.045,-0.185
4120,-0.055,-0.185
4121,-0.065,-0.195
4122,-0.065,-0.185
4123,-0.065,-0.195
4124,-0.065,-0.175
4125,-0.075,-0.195
4126,-0.085,-0.195
4127,-0.045,-0.185
4128,-0.075,-0.175
4129,-0.045,-0.195
4130,-0.065,-0.185
4131,-0.075,-0.195
4132,-0.065,-0.185
4133,-0.095,-0.185
4134,-0.065,-0.185
4135,-0.035,-0.185
4136,-0.065,-0.175
4137,-0.055,-0.185
4138,-0.055,-0.195
4139,-0.115,-0.185
4140,-0.065,-0.175
4141,-0.055,-0.185
4142,-0.035,-0.185
4143,-0.065,-0.175
4144,-0.045,-0.175
4145,-0.055,-0.185
4146,-0.065,-0.175
4147,0.005,-0.155
4148,0.015,-0.145
4149,0.055,-0.115
4150,0.065,-0.075
4151,0.095,-0.075
4152,0.125,-0.065
4153,0.115,-0.095
4154,-0.015,-0.155
4155,-0.015,-0.205
4156,-0.005,-0.165
4157,-0.045,-0.165
4158,-0.065,-0.175
4159,-0.095,-0.205
4160,-0.085,-0.215
4161,-0.095,-0.195
4162,-0.045,-0.195
4163,-0.075,-0.195
4164,0.025,-0.145
4165,0.195,0.095
4166,0.585,0.435
4167,0.875,0.385
4168,0.895,-0.545
4169,-0.305,-0.935
4170,-1.075,-1.475
4171,-0.925,-1.095
4172,-0.505,-0.685
4173,-0.135,-0.305
4174,-0.015,-0.045
4175,0.015,0.015
4176,0.005,0.015
4177,0.005,0.005
4178,0.015,0.005
4179,0.045,0.025
4180,0.045,0.025
4181,0.065,0.045
4182,0.095,0.055
4183,0.105,0.085
4184,0.095,0.095
4185,0.115,0.105
4186,0.105,0.125
4187,0.135,0.135
4188,0.145,0.175
4189,0.175,0.165
4190,0.225,0.195
4191,0.225,0.245
4192,0.255,0.265
4193,0.305,0.295
4194,0.315,0.325
4195,0.355,0.355
4196,0.385,0.405
4197,0.425,0.435
4198,0.485,0.455
4199,0.495,0.495
4200,0.505,0.505
4201,0.525,0.525
4202,0.505,0.525
4203,0.495,0.485
4204,0.455,0.445
4205,0.365,0.325
4206,0.275,0.215
4207,0.185,0.115
4208,0.105,0.025
4209,0.065,-0.035
4210,0.025,-0.095
4211,0.015,-0.125
4212,-0.015,-0.135
4213,-0.005,-0.155
4214,-0.005,-0.175
4215,-0.015,-0.175
4216,-0.035,-0.165
4217,-0.035,-0.195
4218,-0.045,-0.185
4219,-0.035,-0.195
4220,-0.035,-0.175
4221,-0.015,-0.175
4222,0.005,-0.165
4223,-0.005,-0.155
4224,-0.015,-0.145
4225,-0.015,-0.155
4226,-0.035,-0.165
4227,-0.025,-0.165
4228,0.015,-0.145
4229,-0.005,-0.145
4230,0.015,-0.165
4231,-0.005,-0.145
4232,-0.005,-0.155
4233,-0.005,-0.155
4234,-0.015,-0.175
4235,-0.005,-0.185
4236,-0.005,-0.165
4237,-0.015,-0.165
4238,-0.005,-0.185
4239,-0.005,-0.185
4240,-0.015,-0.175
4241,-0.005,-0.195
4242,-0.045,-0.185
4243,-0.025,-0.195
4244,-0.025,-0.185
4245,-0.035,-0.195
4246,-0.015,-0.195
4247,-0.015,-0.185
4248,-0.025,-0.165
4249,-0.015,-0.185
4250,-0.035,-0.195
4251,-0.015,-0.195
4252,-0.025,-0.175
4253,-0.035,-0.185
4254,-0.015,-0.185
4255,0.005,-0.175
4256,0.015,-0.165
4257,-0.005,-0.185
4258,-0.015,-0.185
4259,-0.005,-0.185
4260,0.015,-0.165
4261,0.005,-0.175
4262,0.035,-0.185
4263,0.035,-0.165
4264,0.035,-0.165
4265,0.005,-0.175
4266,-0.015,-0.175
4267,0.015,-0.175
4268,0.015,-0.165
4269,0.035,-0.155
4270,0.045,-0.175
4271,0.055,-0.155
4272,0.015,-0.155
4273,0.015,-0.165
4274,0.005,-0.165
4275,0.025,-0.165
4276,0.045,-0.135
4277,0.055,-0.155
4278,0.075,-0.115
4279,0.065,-0.125
4280,0.125,-0.115
4281,0.175,-0.065
4282,0.135,-0.075
4283,0.225,-0.085
4284,0.195,-0.045
4285,0.105,-0.125
4286,0.075,-0.175
4287,0.115,-0.155
4288,0.075,-0.125
4289,0.005,-0.145
4290,-0.005,-0.175
4291,-0.015,-0.185
4292,0.035,-0.165
4293,0.005,-0.155
4294,0.025,-0.175
4295,0.155,-0.105
4296,0.375,0.165
4297,0.715,0.585
4298,1.075,0.175
4299,0.825,-0.725
4300,-0.335,-0.995
4301,-1.015,-1.385
4302,-0.795,-1.015
4303,-0.435,-0.615
4304,-0.075,-0.295
4305,0.065,-0.005
4306,0.095,0.045
4307,0.125,0.045
4308,0.095,0.045
4309,0.115,0.045
4310,0.125,0.065
4311,0.145,0.075
4312,0.135,0.105
4313,0.125,0.095
4314,0.145,0.105
4315,0.165,0.115
4316,0.185,0.145
4317,0.195,0.155
4318,0.235,0.185
4319,0.245,0.205
4320,0.265,0.205
4321,0.275,0.235
4322,0.275,0.245
4323,0.335,0.295
4324,0.375,0.325
4325,0.395,0.375
4326,0.435,0.395
4327,0.465,0.445
4328,0.525,0.485
4329,0.535,0.535
4330,0.585,0.545
4331,0.635,0.565
4332,0.605,0.595
4333,0.675,0.595
4334,0.675,0.575
4335,0.645,0.535
4336,0.535,0.455
4337,0.475,0.325
4338,0.335,0.215
4339,0.295,0.105
4340,0.205,0.045
4341,0.195,-0.015
4342,0.215,-0.055
4343,0.195,-0.065
4344,0.135,-0.075
4345,0.125,-0.095
4346,0.115,-0.105
4347,0.125,-0.125
4348,0.155,-0.105
4349,0.105,-0.115
4350,0.175,-0.115
4351,0.145,-0.085
4352,0.155,-0.085
4353,0.145,-0.095
4354,0.145,-0.095
4355,0.125,-0.095
4356,0.205,-0.085
4357,0.205,-0.085
4358,0.205,-0.075
4359,0.165,-0.075
4360,0.245,-0.075
4361,0.235,-0.065
4362,0.205,-0.075
4363,0.205,-0.075
4364,0.235,-0.065
4365,0.255,-0.085
4366,0.245,-0.085
4367,0.235,-0.085
4368,0.245,-0.065
4369,0.255,-0.085
4370,0.245,-0.105
4371,0.235,-0.095
4372,0.215,-0.085
4373,0.195,-0.085
4374,0.205,-0.095
4375,0.245,-0.085
4376,0.215,-0.075
4377,0.215,-0.095
4378,0.185,-0.095
4379,0.205,-0.095
4380,0.195,-0.085
4381,0.175,-0.105
4382,0.225,-0.105
4383,0.185,-0.085
4384,0.165,-0.085
4385,0.185,-0.095
4386,0.205,-0.105
4387,0.185,-0.095
4388,0.185,-0.085
4389,0.125,-0.085
4390,0.195,-0.105
4391,0.165,-0.095
4392,0.175,-0.085
4393,0.145,-0.085
4394,0.165,-0.075
4395,0.165,-0.075
4396,0.255,-0.065
4397,0.235,-0.025
4398,0.255,-0.005
4399,0.265,-0.015
4400,0.265,-0.005
4401,0.225,-0.035
4402,0.115,-0.135
4403,0.135,-0.135
4404,0.125,-0.105
4405,0.085,-0.095
4406,-0.015,-0.135
4407,0.005,-0.155
4408,0.015,-0.145
4409,-0.005,-0.145
4410,-0.045,-0.155
4411,0.025,-0.145
4412,0.135,0.005
4413,0.445,0.335
4414,0.745,0.645
4415,1.065,-0.165
4416,0.815,-0.745
4417,-0.355,-1.055
4418,-1.155,-1.425
4419,-0.975,-1.065
4420,-0.465,-0.565
4421,-0.155,-0.145
4422,-0.035,0.035
4423,-0.055,0.045
4424,-0.035,0.025
4425,-0.065,0.025
4426,-0.065,0.025
4427,-0.055,0.025
4428,-0.055,0.045
4429,-0.055,0.045
4430,-0.025,0.055
4431,-0.015,0.075
4432,-0.015,0.095
4433,-0.015,0.085
4434,-0.035,0.115
4435,0.005,0.125
4436,0.015,0.165
4437,0.025,0.165
4438,0.025,0.185
4439,0.055,0.215
4440,0.085,0.255
4441,0.105,0.295
4442,0.115,0.325
4443,0.185,0.375
4444,0.235,0.445
4445,0.265,0.465
4446,0.345,0.495
4447,0.325,0.525
4448,0.365,0.545
4449,0.345,0.555
4450,0.355,0.555
4451,0.335,0.525
4452,0.295,0.445
4453,0.155,0.325
4454,0.075,0.195
4455,-0.045,0.075
4456,-0.095,-0.015
4457,-0.175,-0.095
4458,-0.205,-0.145
4459,-0.225,-0.155
4460,-0.205,-0.165
4461,-0.195,-0.185
4462,-0.225,-0.165
4463,-0.265,-0.165
4464,-0.215,-0.175
4465,-0.225,-0.175
4466,-0.235,-0.185
4467,-0.225,-0.165
4468,-0.235,-0.155
4469,-0.215,-0.175
4470,-0.205,-0.175
4471,-0.215,-0.155
4472,-0.195,-0.155
4473,-0.235,-0.155
4474,-0.235,-0.165
4475,-0.245,-0.165
4476,-0.215,-0.145
4477,-0.215,-0.155
4478,-0.185,-0.165
4479,-0.215,-0.165
4480,-0.195,-0.155
4481,-0.225,-0.165
4482,-0.235,-0.185
4483,-0.255,-0.195
4484,-0.225,-0.175
4485,-0.215,-0.195
4486,-0.235,-0.205
4487,-0.235,-0.195
4488,-0.235,-0.205
4489,-0.225,-0.195
4490,-0.285,-0.215
4491,-0.245,-0.235
4492,-0.275,-0.215
4493,-0.265,-0.225
4494,-0.255,-0.205
4495,-0.255,-0.225
4496,-0.245,-0.225
4497,-0.275,-0.215
4498,-0.285,-0.225
4499,-0.295,-0.235
4500,-0.285,-0.235
4501,-0.275,-0.225
4502,-0.285,-0.215
4503,-0.305,-0.225
4504,-0.285,-0.235
4505,-0.285,-0.225
4506,-0.285,-0.225
4507,-0.265,-0.235
4508,-0.305,-0.245
4509,-0.265,-0.235
4510,-0.275,-0.215
4511,-0.265,-0.235
4512,-0.280,-0.215
4513,-0.290,-0.215
4514,-0.330,-0.215
4515,-0.240,-0.195
4516,-0.230,-0.185
4517,-0.220,-0.185
4518,-0.170,-0.165
4519,-0.150,-0.115
4520,-0.120,-0.125
4521,-0.120,-0.115
4522,-0.110,-0.125
4523,-0.200,-0.145
4524,-0.270,-0.245
4525,-0.240,-0.225
4526,-0.260,-0.195
4527,-0.330,-0.215
4528,-0.300,-0.245
4529,-0.320,-0.245
4530,-0.330,-0.225
4531,-0.290,-0.225
4532,-0.320,-0.235
4533,-0.180,-0.185
4534,0.020,0.095
4535,0.380,0.545
4536,0.820,-0.035
4537,0.190,-0.945
4538,-1.110,-1.295
4539,-1.390,-1.375
4540,-0.940,-0.885
4541,-0.480,-0.465
4542,-0.280,-0.125
4543,-0.220,-0.025
4544,-0.200,-0.015
4545,-0.220,-0.015
4546,-0.220,-0.015
4547,-0.210,-0.005
4548,-0.190,0.005
4549,-0.180,0.025
4550,-0.130,0.025
4551,-0.180,0.065
4552,-0.100,0.065
4553,-0.130,0.085
4554,-0.100,0.105
4555,-0.090,0.125
4556,-0.050,0.165
4557,-0.070,0.185
4558,-0.010,0.215
4559,0.000,0.265
4560,0.040,0.275
4561,0.060,0.325
4562,0.090,0.355
4563,0.160,0.415
4564,0.210,0.445
4565,0.245,0.485
4566,0.295,0.515
4567,0.295,0.545
4568,0.325,0.535
4569,0.265,0.525
4570,0.255,0.485
4571,0.195,0.405
4572,0.065,0.285
4573,0.015,0.155
4574,-0.085,0.055
4575,-0.145,-0.025
4576,-0.195,-0.085
4577,-0.225,-0.135
4578,-0.275,-0.175
4579,-0.245,-0.185
4580,-0.265,-0.195
4581,-0.285,-0.215
4582,-0.265,-0.225
4583,-0.305,-0.215
4584,-0.295,-0.225
4585,-0.315,-0.235
4586,-0.295,-0.235
4587,-0.265,-0.235
4588,-0.255,-0.215
4589,-0.285,-0.215
4590,-0.265,-0.225
4591,-0.265,-0.195
4592,-0.265,-0.195
4593,-0.245,-0.205
4594,-0.265,-0.205
4595,-0.255,-0.205
4596,-0.275,-0.195
4597,-0.265,-0.205
4598,-0.245,-0.205
4599,-0.235,-0.195
4600,-0.245,-0.195
4601,-0.245,-0.205
4602,-0.325,-0.205
4603,-0.275,-0.225
4604,-0.245,-0.215
4605,-0.255,-0.215
4606,-0.245,-0.225
4607,-0.275,-0.225
4608,-0.255,-0.215
4609,-0.295,-0.225
4610,-0.295,-0.225
4611,-0.305,-0.225
4612,-0.295,-0.225
4613,-0.295,-0.225
4614,-0.265,-0.225
4615,-0.305,-0.225
4616,-0.295,-0.215
4617,-0.315,-0.225
4618,-0.325,-0.225
4619,-0.305,-0.225
4620,-0.295,-0.225
4621,-0.285,-0.225
4622,-0.295,-0.235
4623,-0.295,-0.225
4624,-0.295,-0.215
4625,-0.295,-0.235
4626,-0.325,-0.225
4627,-0.305,-0.245
4628,-0.305,-0.215
4629,-0.295,-0.225
4630,-0.295,-0.235
4631,-0.285,-0.225
4632,-0.275,-0.215
4633,-0.305,-0.215
4634,-0.305,-0.225
4635,-0.295,-0.225
4636,-0.275,-0.215
4637,-0.275,-0.225
4638,-0.245,-0.215
4639,-0.235,-0.185
4640,-0.215,-0.185
4641,-0.175,-0.165
4642,-0.175,-0.135
4643,-0.145,-0.145
4644,-0.075,-0.125
4645,-0.155,-0.135
4646,-0.205,-0.205
4647,-0.255,-0.245
4648,-0.195,-0.215
4649,-0.265,-0.205
4650,-0.325,-0.235
4651,-0.335,-0.255
4652,-0.325,-0.245
4653,-0.305,-0.245
4654,-0.275,-0.245
4655,-0.305,-0.225
4656,-0.205,-0.205
4657,-0.025,0.045
4658,0.335,0.465
4659,0.715,0.125
4660,0.505,-0.825
4661,-0.765,-1.205
4662,-1.345,-1.525
4663,-1.125,-1.105
4664,-0.775,-0.725
4665,-0.385,-0.375
4666,-0.265,-0.105
4667,-0.235,-0.045
4668,-0.215,-0.015
4669,-0.205,-0.035
4670,-0.195,-0.035
4671,-0.185,-0.015
4672,-0.165,0.005
4673,-0.165,0.005
4674,-0.175,0.015
4675,-0.175,0.035
4676,-0.135,0.055
4677,-0.145,0.065
4678,-0.075,0.085
4679,-0.095,0.115
4680,-0.055,0.135
4681,-0.055,0.145
4682,-0.065,0.165
4683,-0.015,0.185
4684,0.005,0.235
4685,0.055,0.265
4686,0.095,0.295
4687,0.115,0.345
4688,0.155,0.395
4689,0.215,0.425
4690,0.205,0.445
4691,0.295,0.485
4692,0.315,0.525
4693,0.325,0.545
4694,0.345,0.545
4695,0.335,0.525
4696,0.255,0.485
4697,0.185,0.375
4698,0.075,0.255
4699,0.005,0.125
4700,-0.075,0.045
4701,-0.145,-0.035
4702,-0.175,-0.105
4703,-0.205,-0.135
4704,-0.225,-0.165
4705,-0.255,-0.185
4706,-0.265,-0.205
4707,-0.265,-0.225
4708,-0.235,-0.205
4709,-0.255,-0.215
4710,-0.245,-0.225
4711,-0.235,-0.215
4712,-0.245,-0.205
4713,-0.245,-0.205
4714,-0.255,-0.215
4715,-0.225,-0.215
4716,-0.245,-0.195
4717,-0.215,-0.195
4718,-0.215,-0.195
4719,-0.215,-0.185
4720,-0.235,-0.185
4721,-0.225,-0.195
4722,-0.235,-0.205
4723,-0.215,-0.215
4724,-0.215,-0.195
4725,-0.215,-0.205
4726,-0.205,-0.195
4727,-0.215,-0.205
4728,-0.225,-0.195
4729,-0.225,-0.215
4730,-0.245,-0.225
4731,-0.245,-0.225
4732,-0.225,-0.215
4733,-0.255,-0.215
4734,-0.225,-0.235
4735,-0.265,-0.225
4736,-0.235,-0.205
4737,-0.265,-0.215
4738,-0.275,-0.225
4739,-0.285,-0.225
4740,-0.245,-0.215
4741,-0.255,-0.215
4742,-0.225,-0.235
4743,-0.255,-0.225
4744,-0.255,-0.225
4745,-0.255,-0.225
4746,-0.275,-0.215
4747,-0.265,-0.235
4748,-0.245,-0.215
4749,-0.265,-0.215
4750,-0.235,-0.215
4751,-0.245,-0.205
4752,-0.235,-0.215
4753,-0.245,-0.215
4754,-0.255,-0.205
4755,-0.225,-0.215
4756,-0.235,-0.205
4757,-0.235,-0.205
4758,-0.235,-0.205
4759,-0.215,-0.195
4760,-0.225,-0.195
4761,-0.215,-0.195
4762,-0.205,-0.195
4763,-0.175,-0.175
4764,-0.145,-0.155
4765,-0.095,-0.125
4766,-0.065,-0.105
4767,-0.075,-0.115
4768,-0.025,-0.095
4769,-0.055,-0.105
4770,-0.135,-0.175
4771,-0.185,-0.225
4772,-0.135,-0.185
4773,-0.215,-0.185
4774,-0.235,-0.205
4775,-0.275,-0.215
4776,-0.235,-0.205
4777,-0.225,-0.195
4778,-0.235,-0.205
4779,-0.225,-0.195
4780,-0.135,-0.175
4781,-0.015,0.025
4782,0.415,0.395
4783,0.675,0.435
4784,0.765,-0.585
4785,-0.275,-1.045
4786,-1.245,-1.385
4787,-1.185,-1.195
4788,-0.775,-0.765
4789,-0.345,-0.395
4790,-0.165,-0.075
4791,-0.135,0.005
4792,-0.145,0.015
4793,-0.115,0.005
4794,-0.135,0.015
4795,-0.105,0.015
4796,-0.095,0.045
4797,-0.105,0.055
4798,-0.045,0.055
4799,-0.045,0.085
4800,-0.025,0.095
4801,-0.035,0.125
4802,-0.015,0.125
4803,-0.005,0.145
4804,0.015,0.175
4805,0.025,0.205
4806,0.095,0.215
4807,0.085,0.255
4808,0.115,0.285
4809,0.125,0.325
4810,0.155,0.345
4811,0.205,0.385
4812,0.255,0.445
4813,0.305,0.475
4814,0.345,0.505
4815,0.395,0.555
4816,0.425,0.595
4817,0.435,0.585
4818,0.415,0.595
4819,0.425,0.575
4820,0.355,0.515
4821,0.295,0.415
4822,0.205,0.275
4823,0.095,0.175
4824,0.015,0.095
4825,-0.035,-0.015
4826,-0.095,-0.065
4827,-0.125,-0.115
4828,-0.125,-0.125
4829,-0.145,-0.155
4830,-0.125,-0.165
4831,-0.145,-0.165
4832,-0.155,-0.175
4833,-0.155,-0.175
4834,-0.155,-0.185
4835,-0.165,-0.185
4836,-0.145,-0.165
4837,-0.145,-0.185
4838,-0.105,-0.165
4839,-0.125,-0.145
4840,-0.115,-0.145
4841,-0.115,-0.145
4842,-0.115,-0.155
4843,-0.115,-0.145
4844,-0.095,-0.135
4845,-0.105,-0.145
4846,-0.085,-0.155
4847,-0.095,-0.145
4848,-0.095,-0.135
4849,-0.075,-0.145
4850,-0.115,-0.155
4851,-0.095,-0.155
4852,-0.085,-0.145
4853,-0.095,-0.155
4854,-0.085,-0.165
4855,-0.085,-0.155
4856,-0.105,-0.145
4857,-0.085,-0.155
4858,-0.135,-0.175
4859,-0.115,-0.175
4860,-0.115,-0.155
4861,-0.115,-0.175
4862,-0.105,-0.175
4863,-0.115,-0.165
4864,-0.105,-0.165
4865,-0.105,-0.175
4866,-0.125,-0.175
4867,-0.115,-0.175
4868,-0.105,-0.155
4869,-0.125,-0.165
4870,-0.095,-0.175
4871,-0.125,-0.155
4872,-0.085,-0.155
4873,-0.125,-0.155
4874,-0.115,-0.165
4875,-0.115,-0.165
4876,-0.085,-0.145
4877,-0.115,-0.155
4878,-0.085,-0.165
4879,-0.095,-0.145
4880,-0.105,-0.135
4881,-0.075,-0.135
4882,-0.095,-0.125
4883,-0.065,-0.115
4884,-0.015,-0.105
4885,0.025,-0.055
4886,0.005,-0.055
4887,0.065,-0.045
4888,0.085,-0.025
4889,0.025,-0.055
4890,-0.065,-0.125
4891,-0.065,-0.135
4892,-0.055,-0.105
4893,-0.105,-0.095
4894,-0.125,-0.125
4895,-0.145,-0.145
4896,-0.135,-0.135
4897,-0.125,-0.135
4898,-0.125,-0.125
4899,-0.145,-0.125
4900,0.015,-0.075
4901,0.195,0.135
4902,0.575,0.505
4903,0.905,0.315
4904,0.735,-0.455
4905,-0.385,-0.835
4906,-1.075,-1.195
4907,-1.015,-0.965
4908,-0.585,-0.595
4909,-0.225,-0.305
4910,-0.075,-0.035
4911,-0.055,0.035
4912,-0.045,0.045
4913,-0.035,0.045
4914,-0.065,0.045
4915,-0.025,0.045
4916,-0.025,0.075
4917,0.005,0.075
4918,0.015,0.085
4919,0.035,0.105
4920,0.045,0.125
4921,0.065,0.135
4922,0.045,0.145
4923,0.075,0.145
4924,0.115,0.195
4925,0.115,0.195
4926,0.175,0.225
4927,0.165,0.265
4928,0.215,0.285
4929,0.215,0.315
4930,0.265,0.345
4931,0.285,0.385
4932,0.345,0.435
4933,0.375,0.475
4934,0.435,0.485
4935,0.445,0.535
4936,0.485,0.545
4937,0.485,0.555
4938,0.455,0.545
4939,0.435,0.505
4940,0.365,0.445
4941,0.255,0.315
4942,0.165,0.185
4943,0.055,0.105
4944,-0.015,0.015
4945,-0.055,-0.045
4946,-0.115,-0.095
4947,-0.115,-0.125
4948,-0.145,-0.125
4949,-0.145,-0.155
4950,-0.145,-0.155
4951,-0.145,-0.165
4952,-0.165,-0.155
4953,-0.175,-0.165
4954,-0.195,-0.175
4955,-0.195,-0.175
4956,-0.175,-0.155
4957,-0.165,-0.155
4958,-0.155,-0.155
4959,-0.185,-0.145
4960,-0.165,-0.145
4961,-0.165,-0.145
4962,-0.165,-0.155
4963,-0.175,-0.135
4964,-0.145,-0.135
4965,-0.155,-0.135
4966,-0.125,-0.145
4967,-0.155,-0.145
4968,-0.145,-0.145
4969,-0.145,-0.145
4970,-0.175,-0.165
4971,-0.175,-0.175
4972,-0.165,-0.165
4973,-0.155,-0.165
4974,-0.145,-0.175
4975,-0.145,-0.175
4976,-0.175,-0.165
4977,-0.145,-0.175
4978,-0.195,-0.185
4979,-0.165,-0.185
4980,-0.185,-0.175
4981,-0.165,-0.185
4982,-0.175,-0.175
4983,-0.175,-0.175
4984,-0.175,-0.165
4985,-0.185,-0.195
4986,-0.185,-0.195
4987,-0.185,-0.195
4988,-0.175,-0.165
4989,-0.185,-0.185
4990,-0.145,-0.185
4991,-0.165,-0.175
4992,-0.155,-0.175
4993,-0.175,-0.185
4994,-0.185,-0.195
4995,-0.175,-0.195
4996,-0.155,-0.165
4997,-0.185,-0.175
4998,-0.155,-0.185
4999,-0.135,-0.165
5000,-0.115,-0.155
5001,-0.105,-0.135
5002,-0.095,-0.145
5003,-0.035,-0.105
5004,-0.035,-0.075
5005,-0.015,-0.105
5006,0.015,-0.095
5007,-0.015,-0.095
5008,-0.095,-0.175
5009,-0.135,-0.205
5010,-0.115,-0.195
5011,-0.155,-0.175
5012,-0.205,-0.185
5013,-0.215,-0.215
5014,-0.195,-0.225
5015,-0.175,-0.195
5016,-0.165,-0.185
5017,-0.195,-0.195
5018,-0.085,-0.175
5019,0.065,0.065
5020,0.555,0.565
5021,0.865,0.205
5022,0.785,-0.885
5023,-0.605,-1.205
5024,-1.355,-1.485
5025,-1.105,-1.025
5026,-0.625,-0.635
5027,-0.245,-0.235
5028,-0.125,-0.005
5029,-0.105,0.015
5030,-0.095,0.005
5031,-0.105,0.015
5032,-0.085,0.035
5033,-0.085,0.035
5034,-0.085,0.025
5035,-0.055,0.055
5036,-0.045,0.085
5037,-0.035,0.085
5038,-0.015,0.105
5039,0.005,0.125
5040,0.005,0.155
5041,0.025,0.155
5042,0.005,0.175
5043,0.045,0.195
5044,0.055,0.245
5045,0.095,0.265
5046,0.125,0.295
5047,0.175,0.345
5048,0.175,0.395
5049,0.245,0.435
5050,0.245,0.465
5051,0.325,0.505
5052,0.355,0.565
5053,0.385,0.575
5054,0.415,0.585
5055,0.415,0.595
5056,0.395,0.575
5057,0.325,0.495
5058,0.235,0.395
5059,0.135,0.265
5060,0.065,0.175
5061,-0.045,0.065
5062,-0.055,-0.025
5063,-0.145,-0.075
5064,-0.175,-0.105
5065,-0.195,-0.135
5066,-0.215,-0.165
5067,-0.225,-0.165
5068,-0.205,-0.175
5069,-0.235,-0.175
5070,-0.215,-0.195
5071,-0.225,-0.165
5072,-0.235,-0.175
5073,-0.215,-0.165
5074,-0.255,-0.175
5075,-0.225,-0.175
5076,-0.225,-0.165
5077,-0.205,-0.165
5078,-0.205,-0.155
5079,-0.195,-0.165
5080,-0.225,-0.145
5081,-0.205,-0.145
5082,-0.235,-0.155
5083,-0.215,-0.155
5084,-0.215,-0.145
5085,-0.205,-0.155
5086,-0.185,-0.165
5087,-0.215,-0.155
5088,-0.195,-0.165
5089,-0.205,-0.175
5090,-0.225,-0.185
5091,-0.225,-0.185
5092,-0.205,-0.175
5093,-0.235,-0.185
5094,-0.215,-0.195
5095,-0.235,-0.195
5096,-0.215,-0.185
5097,-0.235,-0.205
5098,-0.265,-0.205
5099,-0.255,-0.205
5100,-0.235,-0.195
5101,-0.235,-0.215
5102,-0.235,-0.215
5103,-0.225,-0.205
5104,-0.245,-0.205
5105,-0.225,-0.215
5106,-0.265,-0.215
5107,-0.245,-0.215
5108,-0.245,-0.205
5109,-0.235,-0.205
5110,-0.225,-0.225
5111,-0.235,-0.215
5112,-0.185,-0.195
5113,-0.165,-0.215
5114,-0.175,-0.215
5115,-0.175,-0.225
5116,-0.155,-0.205
5117,-0.175,-0.205
5118,-0.155,-0.215
5119,-0.175,-0.195
5120,-0.175,-0.205
5121,-0.185,-0.205
5122,-0.175,-0.205
5123,-0.205,-0.205
5124,-0.155,-0.185
5125,-0.155,-0.175
5126,-0.105,-0.175
5127,-0.075,-0.135
5128,-0.055,-0.105
5129,-0.065,-0.115
5130,-0.035,-0.105
5131,-0.015,-0.105
5132,-0.105,-0.145
5133,-0.145,-0.215
5134,-0.155,-0.215
5135,-0.155,-0.195
5136,-0.225,-0.185
5137,-0.245,-0.225
5138,-0.255,-0.235
5139,-0.235,-0.235
5140,-0.205,-0.215
5141,-0.215,-0.215
5142,-0.195,-0.215
5143,-0.045,-0.055
5144,0.305,0.255
5145,0.575,0.545
5146,0.885,-0.445
5147,-0.015,-1.075
5148,-1.165,-1.385
5149,-1.285,-1.265
5150,-0.855,-0.865
5151,-0.435,-0.495
5152,-0.175,-0.115
5153,-0.155,-0.005
5154,-0.145,-0.005
5155,-0.125,-0.015
5156,-0.105,0.015
5157,-0.105,0.015
5158,-0.065,0.025
5159,-0.085,0.045
5160,-0.055,0.055
5161,-0.055,0.075
5162,-0.045,0.075
5163,-0.025,0.095
5164,0.005,0.125
5165,0.015,0.135
5166,0.045,0.145
5167,0.065,0.185
5168,0.075,0.215
5169,0.115,0.235
5170,0.125,0.265
5171,0.175,0.295
5172,0.205,0.345
5173,0.265,0.375
5174,0.305,0.415
5175,0.345,0.465
5176,0.365,0.505
5177,0.415,0.515
5178,0.405,0.535
5179,0.435,0.535
5180,0.435,0.565
5181,0.415,0.525
5182,0.365,0.435
5183,0.255,0.345
5184,0.155,0.225
5185,0.065,0.115
5186,-0.005,0.025
5187,-0.085,-0.045
5188,-0.095,-0.085
5189,-0.145,-0.125
5190,-0.125,-0.165
5191,-0.165,-0.165
5192,-0.155,-0.175
5193,-0.185,-0.185
5194,-0.195,-0.195
5195,-0.195,-0.195
5196,-0.175,-0.175
5197,-0.185,-0.185
5198,-0.175,-0.195
5199,-0.155,-0.175
5200,-0.185,-0.165
5201,-0.165,-0.165
5202,-0.195,-0.165
5203,-0.155,-0.165
5204,-0.155,-0.155
5205,-0.155,-0.165
5206,-0.135,-0.165
5207,-0.125,-0.165
5208,-0.135,-0.145
5209,-0.145,-0.165
5210,-0.145,-0.175
5211,-0.145,-0.185
5212,-0.135,-0.175
5213,-0.145,-0.175
5214,-0.115,-0.185
5215,-0.135,-0.195
5216,-0.125,-0.185
5217,-0.165,-0.205
5218,-0.155,-0.205
5219,-0.165,-0.205
5220,-0.155,-0.205
5221,-0.165,-0.205
5222,-0.135,-0.205
5223,-0.165,-0.195
5224,-0.135,-0.205
5225,-0.145,-0.205
5226,-0.155,-0.215
5227,-0.145,-0.215
5228,-0.135,-0.205
5229,-0.145,-0.215
5230,-0.135,-0.205
5231,-0.135,-0.195
5232,-0.155,-0.195
5233,-0.125,-0.215
5234,-0.155,-0.215
5235,-0.135,-0.215
5236,-0.145,-0.195
5237,-0.135,-0.205
5238,-0.135,-0.215
5239,-0.125,-0.205
5240,-0.125,-0.195
5241,-0.115,-0.195
5242,-0.135,-0.205
5243,-0.135,-0.215
5244,-0.135,-0.195
5245,-0.135,-0.195
5246,-0.095,-0.195
5247,-0.105,-0.185
5248,-0.085,-0.165
5249,-0.095,-0.165
5250,-0.035,-0.165
5251,-0.015,-0.125
5252,0.015,-0.095
5253,-0.005,-0.115
5254,0.095,-0.105
5255,0.015,-0.115
5256,-0.055,-0.205
5257,-0.075,-0.205
5258,-0.055,-0.185
5259,-0.135,-0.195
5260,-0.165,-0.205
5261,-0.175,-0.225
5262,-0.135,-0.235
5263,-0.125,-0.205
5264,-0.145,-0.195
5265,-0.135,-0.205
5266,-0.055,-0.155
5267,0.165,0.125
5268,0.565,0.615
5269,1.005,0.095
5270,0.635,-0.815
5271,-0.745,-1.195
5272,-1.185,-1.375
5273,-0.875,-0.905
5274,-0.515,-0.545
5275,-0.175,-0.225
5276,-0.105,-0.015
5277,-0.065,-0.005
5278,-0.025,-0.005
5279,-0.065,0.005
5280,-0.055,0.015
5281,-0.035,0.015
5282,-0.025,0.025
5283,-0.015,0.045
5284,0.005,0.065
5285,-0.015,0.075
5286,0.045,0.085
5287,0.025,0.105
5288,0.055,0.125
5289,0.045,0.125
5290,0.065,0.145
5291,0.085,0.165
5292,0.105,0.205
5293,0.145,0.235
5294,0.195,0.255
5295,0.195,0.295
5296,0.225,0.335
5297,0.285,0.365
5298,0.295,0.415
5299,0.355,0.445
5300,0.375,0.485
5301,0.395,0.485
5302,0.435,0.515
5303,0.455,0.545
5304,0.435,0.545
5305,0.405,0.505
5306,0.315,0.425
5307,0.235,0.305
5308,0.145,0.215
5309,0.035,0.085
5310,-0.005,0.005
5311,-0.085,-0.045
5312,-0.115,-0.105
5313,-0.145,-0.145
5314,-0.175,-0.175
5315,-0.205,-0.205
5316,-0.175,-0.205
5317,-0.215,-0.205
5318,-0.195,-0.225
5319,-0.205,-0.215
5320,-0.215,-0.205
5321,-0.215,-0.215
5322,-0.205,-0.215
5323,-0.225,-0.215
5324,-0.215,-0.195
5325,-0.205,-0.185
5326,-0.185,-0.185
5327,-0.175,-0.185
5328,-0.195,-0.165
5329,-0.195,-0.185
5330,-0.195,-0.185
5331,-0.185,-0.195
5332,-0.195,-0.175
5333,-0.185,-0.175
5334,-0.185,-0.185
5335,-0.175,-0.175
5336,-0.185,-0.185
5337,-0.205,-0.185
5338,-0.205,-0.185
5339,-0.195,-0.195
5340,-0.185,-0.185
5341,-0.195,-0.175
5342,-0.185,-0.185
5343,-0.215,-0.185
5344,-0.205,-0.175
5345,-0.235,-0.185
5346,-0.215,-0.195
5347,-0.215,-0.195
5348,-0.205,-0.165
5349,-0.215,-0.175
5350,-0.195,-0.185
5351,-0.225,-0.175
5352,-0.215,-0.165
5353,-0.235,-0.175
5354,-0.225,-0.175
5355,-0.225,-0.165
5356,-0.225,-0.165
5357,-0.235,-0.165
5358,-0.225,-0.165
5359,-0.215,-0.155
5360,-0.225,-0.155
5361,-0.215,-0.165
5362,-0.245,-0.175
5363,-0.225,-0.165
5364,-0.235,-0.165
5365,-0.215,-0.175
5366,-0.215,-0.175
5367,-0.205,-0.165
5368,-0.215,-0.165
5369,-0.215,-0.175
5370,-0.235,-0.185
5371,-0.215,-0.185
5372,-0.225,-0.185
5373,-0.235,-0.175
5374,-0.205,-0.185
5375,-0.185,-0.155
5376,-0.175,-0.145
5377,-0.145,-0.165
5378,-0.105,-0.125
5379,-0.115,-0.115
5380,-0.075,-0.105
5381,-0.045,-0.095
5382,-0.065,-0.115
5383,-0.175,-0.185
5384,-0.205,-0.215
5385,-0.175,-0.205
5386,-0.225,-0.185
5387,-0.285,-0.215
5388,-0.295,-0.235
5389,-0.275,-0.245
5390,-0.255,-0.245
5391,-0.235,-0.225
5392,-0.285,-0.215
5393,-0.145,-0.185
5394,-0.045,0.065
5395,0.425,0.525
5396,0.695,0.225
5397,0.825,-0.865
5398,-0.425,-1.205
5399,-1.395,-1.555
5400,-1.275,-1.155
5401,-0.805,-0.745
5402,-0.395,-0.335
5403,-0.245,-0.055
5404,-0.185,-0.005
5405,-0.205,-0.015
5406,-0.175,-0.015
5407,-0.175,0.015
5408,-0.145,0.025
5409,-0.165,0.025
5410,-0.155,0.025
5411,-0.135,0.045
5412,-0.105,0.075
5413,-0.115,0.085
5414,-0.085,0.085
5415,-0.065,0.115
5416,-0.055,0.145
5417,-0.045,0.155
5418,-0.035,0.175
5419,-0.005,0.185
5420,0.035,0.235
5421,0.065,0.265
5422,0.075,0.285
5423,0.135,0.335
5424,0.135,0.385
5425,0.195,0.415
5426,0.225,0.445
5427,0.275,0.475
5428,0.315,0.525
5429,0.335,0.525
5430,0.365,0.535
5431,0.365,0.545
5432,0.335,0.525
5433,0.255,0.455
5434,0.145,0.335
5435,0.045,0.205
5436,-0.025,0.115
5437,-0.125,0.015
5438,-0.155,-0.065
5439,-0.205,-0.105
5440,-0.225,-0.135
5441,-0.265,-0.165
5442,-0.275,-0.195
5443,-0.285,-0.205
5444,-0.275,-0.205
5445,-0.285,-0.205
5446,-0.255,-0.225
5447,-0.285,-0.215
5448,-0.265,-0.205
5449,-0.285,-0.215
5450,-0.285,-0.225
5451,-0.275,-0.225
5452,-0.255,-0.205
5453,-0.275,-0.205
5454,-0.245,-0.215
5455,-0.235,-0.185
5456,-0.255,-0.195
5457,-0.235,-0.205
5458,-0.275,-0.215
5459,-0.235,-0.205
5460,-0.235,-0.205
5461,-0.245,-0.215
5462,-0.245,-0.225
5463,-0.235,-0.215
5464,-0.255,-0.215
5465,-0.235,-0.225
5466,-0.265,-0.215
5467,-0.255,-0.235
5468,-0.255,-0.215
5469,-0.265,-0.235
5470,-0.235,-0.225
5471,-0.255,-0.225
5472,-0.245,-0.215
5473,-0.265,-0.235
5474,-0.275,-0.245
5475,-0.285,-0.225
5476,-0.265,-0.225
5477,-0.275,-0.225
5478,-0.235,-0.235
5479,-0.265,-0.225
5480,-0.265,-0.215
5481,-0.265,-0.225
5482,-0.275,-0.245
5483,-0.255,-0.235
5484,-0.265,-0.225
5485,-0.255,-0.225
5486,-0.265,-0.235
5487,-0.245,-0.225
5488,-0.255,-0.225
5489,-0.245,-0.225
5490,-0.275,-0.235
5491,-0.255,-0.235
5492,-0.265,-0.215
5493,-0.245,-0.215
5494,-0.235,-0.215
5495,-0.225,-0.215
5496,-0.245,-0.205
5497,-0.235,-0.235
5498,-0.235,-0.225
5499,-0.245,-0.225
5500,-0.235,-0.205
5501,-0.235,-0.215
5502,-0.195,-0.205
5503,-0.195,-0.175
5504,-0.165,-0.165
5505,-0.145,-0.165
5506,-0.095,-0.115
5507,-0.125,-0.125
5508,-0.035,-0.115
5509,-0.045,-0.105
5510,-0.095,-0.165
5511,-0.175,-0.215
5512,-0.165,-0.205
5513,-0.175,-0.195
5514,-0.255,-0.215
5515,-0.265,-0.235
5516,-0.255,-0.235
5517,-0.235,-0.235
5518,-0.215,-0.215
5519,-0.205,-0.225
5520,-0.205,-0.215
5521,-0.035,-0.025
5522,0.275,0.325
5523,0.585,0.555
5524,0.975,-0.495
5525,0.305,-1.105
5526,-1.065,-1.405
5527,-1.345,-1.385
5528,-0.905,-0.875
5529,-0.405,-0.455
5530,-0.135,-0.065
5531,-0.055,0.025
5532,-0.035,0.055
5533,-0.025,0.045
5534,0.005,0.045
5535,0.025,0.065
5536,0.045,0.085
5537,0.055,0.095
5538,0.085,0.105
5539,0.085,0.115
5540,0.135,0.145
5541,0.155,0.165
5542,0.185,0.175
5543,0.235,0.215
5544,0.245,0.235
5545,0.265,0.255
5546,0.305,0.275
5547,0.335,0.305
5548,0.365,0.365
5549,0.425,0.385
5550,0.435,0.415
5551,0.525,0.475
5552,0.545,0.525
5553,0.595,0.565
5554,0.645,0.605
5555,0.685,0.645
5556,0.735,0.695
5557,0.765,0.705
5558,0.745,0.705
5559,0.775,0.705
5560,0.745,0.665
5561,0.655,0.565
5562,0.575,0.435
5563,0.455,0.315
5564,0.395,0.205
5565,0.275,0.105
5566,0.245,0.025
5567,0.195,-0.005
5568,0.205,-0.025
5569,0.165,-0.065
5570,0.165,-0.085
5571,0.145,-0.095
5572,0.115,-0.105
5573,0.175,-0.095
5574,0.165,-0.105
5575,0.165,-0.105
5576,0.145,-0.095
5577,0.185,-0.105
5578,0.125,-0.105
5579,0.165,-0.095
5580,0.145,-0.085
5581,0.165,-0.085
5582,0.165,-0.085
5583,0.155,-0.075
5584,0.155,-0.065
5585,0.195,-0.075
5586,0.145,-0.075
5587,0.185,-0.075
5588,0.205,-0.065
5589,0.245,-0.085
5590,0.255,-0.065
5591,0.275,-0.065
5592,0.275,-0.065
5593,0.285,-0.055
5594,0.265,-0.065
5595,0.275,-0.075
5596,0.275,-0.065
5597,0.255,-0.065
5598,0.305,-0.075
5599,0.275,-0.065
5600,0.265,-0.065
5601,0.245,-0.075
5602,0.255,-0.075
5603,0.225,-0.075
5604,0.265,-0.065
5605,0.235,-0.075
5606,0.255,-0.085
5607,0.225,-0.065
5608,0.245,-0.075
5609,0.245,-0.085
5610,0.215,-0.085
5611,0.205,-0.085
5612,0.215,-0.085
5613,0.235,-0.095
5614,0.245,-0.095
5615,0.245,-0.075
5616,0.205,-0.075
5617,0.225,-0.085
5618,0.205,-0.085
5619,0.245,-0.075
5620,0.225,-0.075
5621,0.225,-0.075
5622,0.215,-0.085
5623,0.265,-0.065
5624,0.245,-0.065
5625,0.255,-0.075
5626,0.245,-0.065
5627,0.275,-0.055
5628,0.315,-0.025
5629,0.355,-0.025
5630,0.425,0.025
5631,0.405,0.035
5632,0.475,0.025
5633,0.495,0.045
5634,0.425,0.015
5635,0.365,-0.065
5636,0.395,-0.035
5637,0.395,-0.015
5638,0.405,-0.015
5639,0.385,-0.015
5640,0.395,-0.025
5641,0.425,-0.015
5642,0.455,-0.015
5643,0.505,0.005
5644,0.505,0.025
5645,0.675,0.125
5646,0.955,0.435
5647,1.345,0.895
5648,1.715,0.305
5649,1.415,-0.425
5650,0.285,-0.785
5651,-0.155,-1.055
5652,0.025,-0.565
5653,0.425,-0.235
5654,0.815,0.045
5655,0.995,0.325
5656,1.115,0.415
5657,1.165,0.415
5658,1.185,0.425
5659,1.215,0.425
5660,1.255,0.465
5661,1.255,0.485
5662,1.295,0.495
5663,1.275,0.515
5664,1.295,0.525
5665,1.265,0.535
5666,1.305,0.535
5667,1.295,0.545
5668,1.315,0.555
5669,1.305,0.585
5670,1.315,0.575
5671,1.335,0.615
5672,1.325,0.625
5673,1.335,0.635
5674,1.335,0.655
5675,1.375,0.675
5676,1.395,0.725
5677,1.425,0.755
5678,1.425,0.785
5679,1.465,0.805
5680,1.475,0.835
5681,1.505,0.835
5682,1.455,0.835
5683,1.475,0.825
5684,1.435,0.805
5685,1.365,0.735
5686,1.255,0.625
5687,1.155,0.525
5688,1.045,0.435
5689,0.955,0.325
5690,0.865,0.265
5691,0.805,0.185
5692,0.785,0.175
5693,0.745,0.145
5694,0.755,0.135
5695,0.705,0.125
5696,0.685,0.115
5697,0.635,0.085
5698,0.645,0.085
5699,0.585,0.085
5700,0.625,0.095
5701,0.565,0.085
5702,0.605,0.065
5703,0.555,0.085
5704,0.565,0.085
5705,0.545,0.085
5706,0.525,0.065
5707,0.505,0.065
5708,0.495,0.085
5709,0.485,0.075
5710,0.505,0.045
5711,0.485,0.075
5712,0.445,0.065
5713,0.495,0.045
5714,0.415,0.045
5715,0.425,0.045
5716,0.425,0.045
5717,0.425,0.025
5718,0.405,0.025
5719,0.395,0.025
5720,0.345,0.025
5721,0.375,0.005
5722,0.375,0.005
5723,0.325,-0.005
5724,0.355,0.005
5725,0.325,-0.015
5726,0.325,-0.025
5727,0.305,-0.005
5728,0.375,-0.005
5729,0.315,-0.025
5730,0.245,-0.035
5731,0.275,-0.035
5732,0.275,-0.025
5733,0.235,-0.015
5734,0.335,-0.045
5735,0.305,-0.015
5736,0.275,-0.025
5737,0.255,-0.035
5738,0.225,-0.045
5739,0.205,-0.035
5740,0.235,-0.005
5741,0.275,-0.005
5742,0.275,-0.005
5743,0.385,0.055
5744,0.305,0.055
5745,0.365,0.045
5746,0.335,0.045
5747,0.255,-0.005
5748,0.185,-0.055
5749,0.165,-0.075
5750,0.175,-0.035
5751,0.095,-0.055
5752,0.015,-0.075
5753,-0.005,-0.105
5754,0.075,-0.095
5755,0.045,-0.085
5756,0.035,-0.075
5757,0.015,-0.075
5758,0.175,0.025
5759,0.425,0.305
5760,0.835,0.665
5761,1.135,-0.105
5762,0.495,-0.775
5763,-0.885,-1.115
5764,-1.085,-1.125
5765,-0.755,-0.725
5766,-0.305,-0.395
5767,-0.005,-0.065
5768,0.045,0.095
5769,0.005,0.125
5770,0.025,0.115
5771,0.015,0.105
5772,0.025,0.135
5773,0.065,0.145
5774,0.115,0.145
5775,0.075,0.165
5776,0.085,0.185
5777,0.115,0.185
5778,0.075,0.195
5779,0.105,0.205
5780,0.095,0.255
5781,0.115,0.255
5782,0.125,0.275
5783,0.175,0.305
5784,0.145,0.335
5785,0.215,0.355
5786,0.185,0.385
5787,0.245,0.405
5788,0.285,0.475
5789,0.295,0.505
5790,0.405,0.545
5791,0.435,0.585
5792,0.455,0.625
5793,0.455,0.645
5794,0.485,0.645
5795,0.465,0.645
5796,0.465,0.635
5797,0.395,0.575
5798,0.345,0.465
5799,0.155,0.345
5800,0.115,0.235
5801,0.065,0.125
5802,-0.055,0.025
5803,-0.135,-0.025
5804,-0.115,-0.065
5805,-0.145,-0.085
5806,-0.175,-0.125
5807,-0.185,-0.115
5808,-0.205,-0.135
5809,-0.215,-0.145
5810,-0.255,-0.135
5811,-0.255,-0.155
5812,-0.255,-0.145
5813,-0.235,-0.155
5814,-0.255,-0.155
5815,-0.245,-0.135
5816,-0.255,-0.125
5817,-0.215,-0.145
5818,-0.285,-0.125
5819,-0.255,-0.135
5820,-0.215,-0.115
5821,-0.255,-0.135
5822,-0.235,-0.135
5823,-0.315,-0.125
5824,-0.235,-0.125
5825,-0.255,-0.145
5826,-0.215,-0.135
5827,-0.325,-0.155
5828,-0.225,-0.145
5829,-0.225,-0.145
5830,-0.265,-0.155
5831,-0.255,-0.145
5832,-0.285,-0.145
5833,-0.245,-0.145
5834,-0.265,-0.155
5835,-0.305,-0.145
5836,-0.305,-0.135
5837,-0.265,-0.145
5838,-0.265,-0.145
5839,-0.265,-0.135
5840,-0.275,-0.125
5841,-0.275,-0.125
5842,-0.305,-0.135
5843,-0.275,-0.135
5844,-0.275,-0.115
5845,-0.265,-0.125
5846,-0.365,-0.115
5847,-0.265,-0.105
5848,-0.215,-0.095
5849,-0.265,-0.095
5850,-0.285,-0.105
5851,-0.325,-0.095
5852,-0.275,-0.085
5853,-0.265,-0.075
5854,-0.255,-0.065
5855,-0.205,-0.075
5856,-0.115,-0.035
5857,-0.145,-0.025
5858,-0.165,-0.025
5859,-0.095,-0.015
5860,-0.155,-0.015
5861,-0.235,-0.075
5862,-0.205,-0.095
5863,-0.315,-0.065
5864,-0.275,-0.075
5865,-0.335,-0.085
5866,-0.435,-0.105
5867,-0.325,-0.105
5868,-0.315,-0.085
5869,-0.295,-0.095
5870,-0.365,-0.095
5871,-0.255,-0.085
5872,-0.045,0.065
5873,0.365,0.345
5874,0.605,0.245
5875,0.465,-0.365
5876,-0.725,-0.685
5877,-1.295,-1.005
5878,-1.325,-0.865
5879,-0.915,-0.625
5880,-0.475,-0.355
5881,-0.275,-0.105
5882,-0.245,-0.015
5883,-0.255,0.005
5884,-0.275,0.025
5885,-0.295,0.025
5886,-0.245,0.035
5887,-0.215,0.055
5888,-0.185,0.075
5889,-0.215,0.065
5890,-0.205,0.085
5891,-0.175,0.115
5892,-0.155,0.125
5893,-0.155,0.135
5894,-0.125,0.135
5895,-0.105,0.175
5896,-0.085,0.195
5897,-0.085,0.205
5898,-0.065,0.235
5899,-0.025,0.275
5900,0.005,0.325
5901,0.025,0.345
5902,0.085,0.385
5903,0.125,0.445
5904,0.155,0.485
5905,0.235,0.505
5906,0.205,0.535
5907,0.255,0.535
5908,0.255,0.555
5909,0.285,0.555
5910,0.245,0.525
5911,0.175,0.455
5912,0.055,0.365
5913,-0.025,0.225
5914,-0.115,0.115
5915,-0.205,0.035
5916,-0.245,-0.025
5917,-0.275,-0.095
5918,-0.295,-0.125
5919,-0.315,-0.145
5920,-0.325,-0.165
5921,-0.345,-0.185
5922,-0.335,-0.205
5923,-0.355,-0.205
5924,-0.345,-0.185
5925,-0.355,-0.185
5926,-0.325,-0.205
5927,-0.345,-0.185
5928,-0.335,-0.185
5929,-0.345,-0.185
5930,-0.335,-0.185
5931,-0.325,-0.185
5932,-0.315,-0.175
5933,-0.315,-0.175
5934,-0.315,-0.195
5935,-0.305,-0.175
5936,-0.325,-0.185
5937,-0.315,-0.185
5938,-0.325,-0.195
5939,-0.295,-0.195
5940,-0.325,-0.195
5941,-0.305,-0.195
5942,-0.315,-0.205
5943,-0.295,-0.205
5944,-0.315,-0.195
5945,-0.315,-0.205
5946,-0.355,-0.215
5947,-0.325,-0.225
5948,-0.315,-0.195
5949,-0.335,-0.205
5950,-0.305,-0.205
5951,-0.305,-0.215
5952,-0.325,-0.195
5953,-0.335,-0.215
5954,-0.335,-0.215
5955,-0.325,-0.215
5956,-0.315,-0.205
5957,-0.345,-0.225
5958,-0.285,-0.225
5959,-0.305,-0.195
5960,-0.275,-0.195
5961,-0.295,-0.215
5962,-0.315,-0.225
5963,-0.305,-0.215
5964,-0.315,-0.195
5965,-0.295,-0.195
5966,-0.295,-0.205
5967,-0.285,-0.195
5968,-0.305,-0.185
5969,-0.275,-0.195
5970,-0.285,-0.185
5971,-0.225,-0.135
5972,-0.245,-0.135
5973,-0.345,-0.135
5974,1.165,-0.235
5975,-0.805,1.575
5976,0.605,-1.380
5977,-0.085,0.680
5978,-0.125,-0.180
5979,-0.125,-0.170
5980,-0.225,-0.170
5981,-0.255,-0.250
5982,-0.245,-0.220
5983,-0.245,-0.210
5984,-0.255,-0.185
5985,-0.335,-0.185
5986,-0.315,-0.225
5987,-0.335,-0.225
5988,-0.305,-0.225
5989,-0.315,-0.215
5990,-0.295,-0.205
5991,-0.245,-0.195
5992,-0.175,-0.115
5993,0.105,0.135
5994,0.395,0.585
5995,0.585,0.315
5996,0.805,-0.525
5997,0.095,-0.955
5998,-1.185,-1.205
5999,-1.445,-1.465
6000,-1.055,-1.005
6001,-0.675,-0.635
6002,-0.355,-0.275
6003,-0.235,-0.025
6004,-0.235,0.025
6005,-0.235,0.005
6006,-0.255,-0.005
6007,-0.255,0.005
6008,-0.225,0.015
6009,-0.215,0.035
6010,-0.185,0.035
6011,-0.215,0.045
6012,-0.175,0.065
6013,-0.175,0.075
6014,-0.135,0.085
6015,-0.165,0.095
6016,-0.135,0.105
6017,-0.095,0.125
6018,-0.095,0.145
6019,-0.055,0.165
6020,-0.055,0.195
6021,-0.015,0.215
6022,-0.015,0.245
6023,0.035,0.275
6024,0.040,0.315
6025,0.090,0.345
6026,0.130,0.405
6027,0.180,0.425
6028,0.230,0.465
6029,0.260,0.505
6030,0.200,0.525
6031,0.280,0.485
6032,0.280,0.525
6033,0.260,0.495
6034,0.180,0.425
6035,0.080,0.295
6036,-0.020,0.175
6037,-0.110,0.055
6038,-0.160,-0.025
6039,-0.250,-0.105
6040,-0.240,-0.135
6041,-0.290,-0.145
6042,-0.290,-0.185
6043,-0.310,-0.205
6044,-0.300,-0.205
6045,-0.310,-0.195
6046,-0.330,-0.225
6047,-0.350,-0.235
6048,-0.340,-0.235
6049,-0.330,-0.215
6050,-0.340,-0.215
6051,-0.310,-0.225
6052,-0.340,-0.215
6053,-0.310,-0.205
6054,-0.340,-0.205
6055,-0.340,-0.215
6056,-0.330,-0.205
6057,-0.290,-0.205
6058,-0.330,-0.205
6059,-0.300,-0.225
6060,-0.330,-0.195
6061,-0.280,-0.205
6062,-0.320,-0.215
6063,-0.310,-0.235
6064,-0.310,-0.225
6065,-0.300,-0.225
6066,-0.330,-0.235
6067,-0.300,-0.255
6068,-0.320,-0.245
6069,-0.310,-0.245
6070,-0.310,-0.255
6071,-0.330,-0.275
6072,-0.320,-0.245
6073,-0.330,-0.245
6074,-0.320,-0.255
6075,-0.300,-0.265
6076,-0.310,-0.255
6077,-0.340,-0.255
6078,-0.290,-0.265
6079,-0.360,-0.265
6080,-0.300,-0.255
6081,-0.320,-0.265
6082,-0.280,-0.265
6083,-0.310,-0.255
6084,-0.240,-0.225
6085,-0.270,-0.225
6086,-0.200,-0.225
6087,-0.190,-0.175
6088,-0.190,-0.175
6089,-0.150,-0.175
6090,-0.130,-0.175
6091,-0.220,-0.215
6092,-0.270,-0.275
6093,-0.280,-0.275
6094,-0.330,-0.255
6095,-0.360,-0.265
6096,-0.380,-0.295
6097,-0.355,-0.305
6098,-0.365,-0.305
6099,-0.295,-0.275
6100,-0.345,-0.275
6101,-0.335,-0.295
6102,-0.255,-0.255
6103,-0.065,-0.005
6104,0.345,0.475
6105,0.705,0.155
6106,0.445,-0.855
6107,-0.865,-1.185
6108,-1.455,-1.575
6109,-1.175,-1.145
6110,-0.755,-0.755
6111,-0.425,-0.395
6112,-0.295,-0.105
6113,-0.275,-0.075
6114,-0.265,-0.085
6115,-0.265,-0.095
6116,-0.255,-0.075
6117,-0.245,-0.065
6118,-0.235,-0.055
6119,-0.225,-0.045
6120,-0.205,-0.015
6121,-0.205,-0.015
6122,-0.155,-0.005
6123,-0.155,0.015
6124,-0.125,0.045
6125,-0.135,0.055
6126,-0.095,0.065
6127,-0.105,0.105
6128,-0.035,0.125
6129,-0.035,0.165
6130,0.015,0.195
6131,0.005,0.245
6132,0.095,0.285
6133,0.115,0.325
6134,0.165,0.345
6135,0.165,0.405
6136,0.195,0.425
6137,0.255,0.425
6138,0.255,0.445
6139,0.275,0.465
6140,0.205,0.445
6141,0.165,0.365
6142,0.015,0.245
6143,-0.075,0.105
6144,-0.165,0.005
6145,-0.205,-0.105
6146,-0.275,-0.175
6147,-0.315,-0.215
6148,-0.325,-0.245
6149,-0.325,-0.265
6150,-0.385,-0.285
6151,-0.335,-0.285
6152,-0.365,-0.275
6153,-0.345,-0.285
6154,-0.365,-0.285
6155,-0.375,-0.295
6156,-0.385,-0.325
6157,-0.255,-0.295
6158,-0.135,-0.245
6159,-0.535,-0.215
6160,-0.025,-0.175
6161,-0.555,-0.275
6162,-0.385,-0.215
6163,-0.315,-0.215
6164,-0.325,-0.245
6165,-0.335,-0.275
6166,-0.305,-0.255
6167,-0.290,-0.255
6168,-0.330,-0.265
6169,-0.330,-0.275
6170,-0.290,-0.275
6171,-0.280,-0.275
6172,-0.320,-0.265
6173,-0.330,-0.275
6174,-0.300,-0.275
6175,-0.320,-0.275
6176,-0.340,-0.295
6177,-0.310,-0.285
6178,-0.330,-0.285
6179,-0.310,-0.275
6180,-0.330,-0.285
6181,-0.310,-0.275
6182,-0.310,-0.275
6183,-0.300,-0.285
6184,-0.320,-0.285
6185,-0.320,-0.295
6186,-0.310,-0.265
6187,-0.290,-0.275
6188,-0.320,-0.285
6189,-0.280,-0.275
6190,-0.300,-0.265
6191,-0.270,-0.275
6192,-0.280,-0.265
6193,-0.230,-0.235
6194,-0.220,-0.235
6195,-0.160,-0.185
6196,-0.170,-0.185
6197,-0.110,-0.155
6198,-0.150,-0.185
6199,-0.230,-0.275
6200,-0.250,-0.285
6201,-0.250,-0.255
6202,-0.290,-0.275
6203,-0.330,-0.295
6204,-0.310,-0.295
6205,-0.330,-0.295
6206,-0.310,-0.285
6207,-0.340,-0.285
6208,-0.240,-0.255
6209,-0.100,0.025
6210,0.370,0.505
6211,0.630,-0.235
6212,0.540,-0.925
6213,-0.810,-1.245
6214,-1.390,-1.465
6215,-1.100,-0.985
6216,-0.680,-0.635
6217,-0.370,-0.255
6218,-0.230,-0.085
6219,-0.240,-0.065
6220,-0.230,-0.075
6221,-0.240,-0.085
6222,-0.220,-0.075
6223,-0.210,-0.045
6224,-0.190,-0.045
6225,-0.190,-0.035
6226,-0.160,-0.015
6227,-0.140,0.005
6228,-0.150,0.025
6229,-0.130,0.025
6230,-0.140,0.045
6231,-0.080,0.085
6232,-0.100,0.085
6233,-0.050,0.105
6234,-0.040,0.145
6235,0.000,0.175
6236,0.000,0.205
6237,0.040,0.225
6238,0.065,0.265
6239,0.105,0.315
6240,0.175,0.365
6241,0.175,0.385
6242,0.245,0.405
6243,0.255,0.455
6244,0.285,0.465
6245,0.275,0.475
6246,0.265,0.455
6247,0.265,0.445
6248,0.215,0.405
6249,0.155,0.315
6250,0.035,0.185
6251,-0.025,0.065
6252,-0.135,-0.025
6253,-0.165,-0.125
6254,-0.255,-0.175
6255,-0.255,-0.215
6256,-0.275,-0.205
6257,-0.285,-0.235
6258,-0.285,-0.255
6259,-0.275,-0.255
6260,-0.295,-0.255
6261,-0.305,-0.255
6262,-0.305,-0.265
6263,-0.325,-0.265
6264,-0.295,-0.245
6265,-0.315,-0.255
6266,-0.285,-0.245
6267,-0.305,-0.235
6268,-0.275,-0.215
6269,-0.305,-0.235
6270,-0.275,-0.235
6271,-0.305,-0.235
6272,-0.275,-0.225
6273,-0.295,-0.235
6274,-0.285,-0.235
6275,-0.275,-0.215
6276,-0.285,-0.225
6277,-0.275,-0.235
6278,-0.305,-0.255
6279,-0.285,-0.255
6280,-0.285,-0.245
6281,-0.265,-0.235
6282,-0.285,-0.265
6283,-0.265,-0.255
6284,-0.295,-0.245
6285,-0.275,-0.255
6286,-0.305,-0.265
6287,-0.285,-0.265
6288,-0.305,-0.245
6289,-0.275,-0.255
6290,-0.285,-0.265
6291,-0.275,-0.245
6292,-0.265,-0.245
6293,-0.285,-0.255
6294,-0.275,-0.255
6295,-0.285,-0.275
6296,-0.285,-0.245
6297,-0.285,-0.265
6298,-0.265,-0.255
6299,-0.265,-0.255
6300,-0.265,-0.245
6301,-0.275,-0.245
6302,-0.265,-0.255
6303,-0.285,-0.245
6304,-0.265,-0.235
6305,-0.275,-0.255
6306,-0.235,-0.255
6307,-0.265,-0.235
6308,-0.255,-0.235
6309,-0.225,-0.195
6310,-0.235,-0.215
6311,-0.175,-0.195
6312,-0.135,-0.135
6313,-0.125,-0.135
6314,-0.105,-0.155
6315,-0.045,-0.135
6316,-0.185,-0.195
6317,-0.195,-0.265
6318,-0.195,-0.265
6319,-0.235,-0.245
6320,-0.235,-0.225
6321,-0.305,-0.235
6322,-0.315,-0.275
6323,-0.305,-0.285
6324,-0.285,-0.255
6325,-0.305,-0.255
6326,-0.275,-0.265
6327,-0.285,-0.255
6328,-0.105,0.005
6329,0.205,0.365
6330,0.445,0.405
6331,0.785,-0.645
6332,-0.055,-1.125
6333,-1.205,-1.525
6334,-1.265,-1.215
6335,-0.875,-0.765
6336,-0.455,-0.365
6337,-0.265,-0.085
6338,-0.245,-0.065
6339,-0.185,-0.055
6340,-0.215,-0.055
6341,-0.195,-0.045
6342,-0.205,-0.035
6343,-0.175,-0.035
6344,-0.175,-0.005
6345,-0.145,0.015
6346,-0.155,0.005
6347,-0.105,0.045
6348,-0.115,0.065
6349,-0.085,0.075
6350,-0.085,0.085
6351,-0.065,0.105
6352,-0.045,0.155
6353,-0.005,0.165
6354,0.015,0.185
6355,0.035,0.225
6356,0.065,0.265
6357,0.115,0.295
6358,0.125,0.345
6359,0.175,0.365
6360,0.225,0.415
6361,0.225,0.435
6362,0.285,0.445
6363,0.285,0.465
6364,0.325,0.485
6365,0.295,0.485
6366,0.285,0.445
6367,0.205,0.365
6368,0.135,0.275
6369,0.015,0.155
6370,-0.055,0.045
6371,-0.115,-0.015
6372,-0.175,-0.065
6373,-0.225,-0.125
6374,-0.255,-0.165
6375,-0.245,-0.185
6376,-0.275,-0.185
6377,-0.265,-0.195
6378,-0.265,-0.215
6379,-0.255,-0.195
6380,-0.285,-0.205
6381,-0.265,-0.205
6382,-0.295,-0.205
6383,-0.275,-0.195
6384,-0.285,-0.195
6385,-0.245,-0.195
6386,-0.255,-0.205
6387,-0.235,-0.195
6388,-0.265,-0.175
6389,-0.245,-0.195
6390,-0.265,-0.185
6391,-0.245,-0.195
6392,-0.245,-0.185
6393,-0.265,-0.195
6394,-0.215,-0.195
6395,-0.245,-0.205
6396,-0.235,-0.195
6397,-0.245,-0.205
6398,-0.235,-0.215
6399,-0.265,-0.225
6400,-0.225,-0.225
6401,-0.255,-0.225
6402,-0.215,-0.235
6403,-0.255,-0.215
6404,-0.235,-0.215
6405,-0.245,-0.225
6406,-0.255,-0.235
6407,-0.245,-0.235
6408,-0.255,-0.225
6409,-0.225,-0.225
6410,-0.255,-0.235
6411,-0.215,-0.215
6412,-0.245,-0.215
6413,-0.215,-0.225
6414,-0.255,-0.235
6415,-0.235,-0.235
6416,-0.245,-0.215
6417,-0.215,-0.235
6418,-0.235,-0.225
6419,-0.215,-0.215
6420,-0.225,-0.205
6421,-0.225,-0.215
6422,-0.205,-0.215
6423,-0.245,-0.225
6424,-0.205,-0.205
6425,-0.235,-0.205
6426,-0.205,-0.205
6427,-0.225,-0.205
6428,-0.185,-0.205
6429,-0.225,-0.215
6430,-0.195,-0.215
6431,-0.205,-0.195
6432,-0.175,-0.165
6433,-0.155,-0.165
6434,-0.125,-0.165
6435,-0.035,-0.105
6436,-0.075,-0.105
6437,-0.025,-0.105
6438,-0.045,-0.115
6439,-0.115,-0.165
6440,-0.185,-0.225
6441,-0.145,-0.195
6442,-0.185,-0.185
6443,-0.195,-0.185
6444,-0.255,-0.225
6445,-0.235,-0.235
6446,-0.245,-0.235
6447,-0.225,-0.235
6448,-0.215,-0.215
6449,-0.205,-0.215
6450,-0.095,-0.045
6451,0.205,0.285
6452,0.515,0.575
6453,0.805,-0.465
6454,0.305,-1.065
6455,-0.985,-1.385
6456,-1.265,-1.335
6457,-0.935,-0.865
6458,-0.445,-0.425
6459,-0.215,-0.055
6460,-0.125,0.015
6461,-0.145,0.005
6462,-0.135,-0.015
6463,-0.155,0.005
6464,-0.115,0.025
6465,-0.125,0.035
6466,-0.115,0.035
6467,-0.065,0.065
6468,-0.075,0.075
6469,-0.055,0.085
6470,-0.055,0.085
6471,-0.025,0.115
6472,-0.015,0.155
6473,0.025,0.165
6474,0.025,0.165
6475,0.065,0.215
6476,0.065,0.245
6477,0.105,0.245
6478,0.095,0.275
6479,0.165,0.315
6480,0.175,0.375
6481,0.235,0.415
6482,0.275,0.445
6483,0.315,0.485
6484,0.335,0.525
6485,0.365,0.515
6486,0.375,0.545
6487,0.365,0.545
6488,0.385,0.545
6489,0.315,0.465
6490,0.255,0.365
6491,0.145,0.245
6492,0.075,0.145
6493,-0.035,0.045
6494,-0.075,-0.045
6495,-0.125,-0.095
6496,-0.135,-0.115
6497,-0.175,-0.155
6498,-0.155,-0.175
6499,-0.175,-0.165
6500,-0.175,-0.185
6501,-0.195,-0.195
6502,-0.205,-0.205
6503,-0.195,-0.195
6504,-0.195,-0.195
6505,-0.195,-0.195
6506,-0.185,-0.195
6507,-0.175,-0.175
6508,-0.195,-0.175
6509,-0.165,-0.175
6510,-0.195,-0.185
6511,-0.165,-0.175
6512,-0.185,-0.165
6513,-0.165,-0.175
6514,-0.155,-0.185
6515,-0.145,-0.175
6516,-0.155,-0.165
6517,-0.165,-0.175
6518,-0.155,-0.185
6519,-0.165,-0.185
6520,-0.145,-0.185
6521,-0.185,-0.185
6522,-0.135,-0.205
6523,-0.175,-0.195
6524,-0.155,-0.195
6525,-0.175,-0.195
6526,-0.165,-0.215
6527,-0.175,-0.215
6528,-0.145,-0.195
6529,-0.165,-0.195
6530,-0.135,-0.215
6531,-0.145,-0.195
6532,-0.145,-0.195
6533,-0.125,-0.205
6534,-0.175,-0.215
6535,-0.145,-0.215
6536,-0.145,-0.205
6537,-0.145,-0.195
6538,-0.155,-0.205
6539,-0.105,-0.215
6540,-0.135,-0.185
6541,-0.125,-0.205
6542,-0.135,-0.205
6543,-0.145,-0.225
6544,-0.125,-0.205
6545,-0.145,-0.205
6546,-0.125,-0.195
6547,-0.125,-0.205
6548,-0.105,-0.205
6549,-0.135,-0.195
6550,-0.105,-0.205
6551,-0.145,-0.205
6552,-0.095,-0.185
6553,-0.135,-0.205
6554,-0.125,-0.205
6555,-0.115,-0.205
6556,-0.115,-0.185
6557,-0.105,-0.175
6558,-0.075,-0.165
6559,-0.085,-0.175
6560,-0.015,-0.135
6561,0.015,-0.085
6562,-0.015,-0.115
6563,0.085,-0.095
6564,0.045,-0.085
6565,-0.035,-0.175
6566,-0.095,-0.235
6567,-0.055,-0.215
6568,-0.095,-0.185
6569,-0.135,-0.205
6570,-0.195,-0.235
6571,-0.145,-0.235
6572,-0.155,-0.215
6573,-0.125,-0.215
6574,-0.155,-0.215
6575,-0.065,-0.195
6576,0.035,0.065
6577,0.415,0.445
