'sample interval','ECG1','ECG2'
'0.0078125 sec','mV','mV'
0,0.165,0.085
1,0.155,0.085
2,0.155,0.085
3,0.135,0.075
4,0.135,0.065
5,0.125,0.065
6,0.115,0.055
7,0.095,0.045
8,0.085,0.035
9,0.065,0.065
10,-0.615,-0.565
11,-0.585,-0.605
12,-0.535,-0.545
13,-0.515,-0.515
14,-0.505,-0.505
15,-0.505,-0.505
16,-0.505,-0.505
17,-0.505,-0.505
18,-0.495,-0.495
19,-0.495,-0.485
20,-0.495,-0.485
21,-0.495,-0.485
22,-0.485,-0.475
23,-0.485,-0.475
24,-0.475,-0.475
25,-0.475,-0.465
26,-0.465,-0.465
27,-0.465,-0.455
28,-0.465,-0.455
29,-0.455,-0.445
30,-0.445,-0.445
31,-0.445,-0.435
32,-0.435,-0.425
33,-0.435,-0.425
34,-0.435,-0.415
35,-0.425,-0.415
36,-0.415,-0.405
37,-0.415,-0.405
38,-0.405,-0.395
39,-0.395,-0.385
40,-0.385,-0.375
41,-0.385,-0.385
42,-0.375,-0.375
43,-0.375,-0.365
44,-0.365,-0.355
45,-0.365,-0.355
46,-0.355,-0.345
47,-0.345,-0.345
48,-0.345,-0.335
49,-0.335,-0.335
50,-0.325,-0.325
51,-0.325,-0.325
52,-0.315,-0.315
53,-0.305,-0.315
54,-0.295,-0.305
55,-0.295,-0.295
56,-0.285,-0.295
57,-0.275,-0.285
58,-0.265,-0.275
59,-0.265,-0.275
60,-0.255,-0.265
61,-0.245,-0.255
62,-0.235,-0.245
63,-0.225,-0.245
64,-0.215,-0.245
65,-0.205,-0.235
66,-0.195,-0.225
67,-0.185,-0.215
68,-0.175,-0.215
69,-0.175,-0.205
70,-0.155,-0.195
71,-0.145,-0.185
72,-0.135,-0.185
73,-0.125,-0.175
74,0.505,0.315
75,0.565,0.485
76,0.495,0.415
77,0.475,0.375
78,0.465,0.375
79,0.455,0.365
80,0.465,0.355
81,0.455,0.355
82,0.455,0.355
83,0.445,0.355
84,0.445,0.345
85,0.445,0.345
86,0.445,0.345
87,0.435,0.335
88,0.425,0.325
89,0.425,0.325
90,0.425,0.325
91,0.415,0.315
92,0.405,0.315
93,0.405,0.305
94,0.395,0.305
95,0.395,0.295
96,0.385,0.285
97,0.385,0.285
98,0.375,0.285
99,0.365,0.275
100,0.365,0.265
101,0.355,0.255
102,0.345,0.255
103,0.345,0.245
104,0.345,0.245
105,0.335,0.235
106,0.325,0.235
107,0.315,0.225
108,0.315,0.225
109,0.305,0.215
110,0.295,0.215
111,0.295,0.205
112,0.295,0.195
113,0.285,0.195
114,0.275,0.195
115,0.265,0.185
116,0.265,0.175
117,0.255,0.175
118,0.255,0.175
119,0.245,0.165
120,0.235,0.155
121,0.235,0.155
122,0.225,0.155
123,0.215,0.145
124,0.205,0.135
125,0.195,0.125
126,0.195,0.125
127,0.185,0.115
128,0.175,0.105
129,0.165,0.095
130,0.155,0.095
131,0.145,0.085
132,0.145,0.075
133,0.135,0.075
134,0.125,0.075
135,0.115,0.065
136,0.105,0.055
137,0.085,0.035
138,-0.385,-0.185
139,-0.625,-0.625
140,-0.555,-0.565
141,-0.515,-0.515
142,-0.495,-0.495
143,-0.505,-0.495
144,-0.495,-0.485
145,-0.495,-0.485
146,-0.495,-0.475
147,-0.495,-0.475
148,-0.495,-0.475
149,-0.485,-0.475
150,-0.485,-0.465
151,-0.485,-0.455
152,-0.475,-0.455
153,-0.475,-0.455
154,-0.465,-0.445
155,-0.455,-0.445
156,-0.455,-0.435
157,-0.455,-0.435
158,-0.445,-0.425
159,-0.445,-0.415
160,-0.435,-0.415
161,-0.435,-0.415
162,-0.415,-0.405
163,-0.415,-0.395
164,-0.415,-0.395
165,-0.405,-0.385
166,-0.395,-0.375
167,-0.395,-0.375
168,-0.385,-0.375
169,-0.375,-0.375
170,-0.375,-0.355
171,-0.365,-0.355
172,-0.365,-0.355
173,-0.355,-0.345
174,-0.345,-0.335
175,-0.345,-0.335
176,-0.335,-0.335
177,-0.325,-0.325
178,-0.315,-0.315
179,-0.315,-0.315
180,-0.305,-0.305
181,-0.305,-0.305
182,-0.295,-0.295
183,-0.295,-0.295
184,-0.285,-0.285
185,-0.275,-0.285
186,-0.265,-0.265
187,-0.265,-0.265
188,-0.255,-0.265
189,-0.245,-0.255
190,-0.235,-0.245
191,-0.225,-0.235
192,-0.215,-0.235
193,-0.205,-0.235
194,-0.195,-0.215
195,-0.195,-0.215
196,-0.185,-0.215
197,-0.175,-0.205
198,-0.165,-0.195
199,-0.155,-0.185
200,-0.135,-0.185
201,-0.135,-0.165
202,0.525,0.345
203,0.565,0.485
204,0.495,0.415
205,0.475,0.385
206,0.465,0.375
207,0.455,0.365
208,0.455,0.355
209,0.455,0.355
210,0.445,0.355
211,0.445,0.355
212,0.445,0.345
213,0.435,0.345
214,0.435,0.345
215,0.435,0.335
216,0.435,0.325
217,0.425,0.325
218,0.415,0.325
219,0.415,0.315
220,0.405,0.305
221,0.405,0.305
222,0.405,0.305
223,0.395,0.295
224,0.385,0.285
225,0.385,0.275
226,0.375,0.285
227,0.375,0.275
228,0.365,0.265
229,0.365,0.265
230,0.355,0.255
231,0.345,0.255
232,0.345,0.245
233,0.335,0.235
234,0.335,0.235
235,0.325,0.225
236,0.325,0.215
237,0.315,0.215
238,0.305,0.215
239,0.305,0.205
240,0.295,0.205
241,0.285,0.195
242,0.285,0.195
243,0.275,0.185
244,0.265,0.175
245,0.265,0.175
246,0.255,0.175
247,0.245,0.165
248,0.245,0.155
249,0.235,0.155
250,0.225,0.155
251,0.215,0.145
252,0.215,0.135
253,0.205,0.125
254,0.195,0.125
255,0.185,0.115
256,0.185,0.105
257,0.175,0.095
258,0.165,0.095
259,0.155,0.085
260,0.145,0.075
261,0.135,0.075
262,0.125,0.065
263,0.115,0.065
264,0.095,0.045
265,0.085,0.035
266,-0.505,-0.335
267,-0.615,-0.615
268,-0.545,-0.555
269,-0.515,-0.515
270,-0.505,-0.505
271,-0.505,-0.495
272,-0.505,-0.495
273,-0.495,-0.495
274,-0.495,-0.485
275,-0.495,-0.485
276,-0.485,-0.485
277,-0.485,-0.485
278,-0.485,-0.475
279,-0.475,-0.465
280,-0.475,-0.465
281,-0.465,-0.465
282,-0.465,-0.455
283,-0.455,-0.445
284,-0.445,-0.445
285,-0.445,-0.445
286,-0.435,-0.435
287,-0.435,-0.435
288,-0.425,-0.425
289,-0.415,-0.425
290,-0.415,-0.415
291,-0.405,-0.405
292,-0.395,-0.405
293,-0.395,-0.405
294,-0.385,-0.395
295,-0.375,-0.385
296,-0.375,-0.395
297,-0.365,-0.385
298,-0.365,-0.375
299,-0.355,-0.365
300,-0.345,-0.365
301,-0.345,-0.365
302,-0.345,-0.355
303,-0.335,-0.345
304,-0.325,-0.345
305,-0.325,-0.335
306,-0.315,-0.335
307,-0.315,-0.325
308,-0.305,-0.325
309,-0.305,-0.325
310,-0.295,-0.305
311,-0.285,-0.305
312,-0.275,-0.305
313,-0.275,-0.295
314,-0.275,-0.285
315,-0.265,-0.285
316,-0.255,-0.275
317,-0.245,-0.275
318,-0.235,-0.255
319,-0.235,-0.255
320,-0.225,-0.255
321,-0.215,-0.245
322,-0.205,-0.235
323,-0.195,-0.225
324,-0.185,-0.225
325,-0.175,-0.225
326,-0.165,-0.205
327,-0.155,-0.205
328,-0.145,-0.205
329,-0.125,-0.185
330,0.335,0.035
331,0.585,0.485
332,0.505,0.415
333,0.475,0.375
334,0.465,0.365
335,0.455,0.355
336,0.455,0.345
337,0.455,0.345
338,0.455,0.345
339,0.445,0.345
340,0.445,0.335
341,0.445,0.325
342,0.445,0.335
343,0.435,0.325
344,0.435,0.315
345,0.425,0.315
346,0.425,0.305
347,0.415,0.305
348,0.415,0.295
349,0.405,0.295
350,0.405,0.295
351,0.395,0.275
352,0.385,0.275
353,0.385,0.265
354,0.375,0.265
355,0.375,0.255
356,0.365,0.245
357,0.355,0.235
358,0.355,0.245
359,0.345,0.235
360,0.345,0.225
361,0.335,0.215
362,0.325,0.215
363,0.325,0.205
364,0.315,0.205
365,0.305,0.195
366,0.305,0.195
367,0.295,0.185
368,0.295,0.185
369,0.285,0.175
370,0.275,0.175
371,0.275,0.165
372,0.265,0.165
373,0.255,0.155
374,0.255,0.155
375,0.245,0.145
376,0.245,0.135
377,0.235,0.135
378,0.225,0.135
379,0.215,0.125
380,0.215,0.115
381,0.205,0.105
382,0.195,0.105
383,0.185,0.095
384,0.175,0.095
385,0.165,0.085
386,0.155,0.075
387,0.155,0.065
388,0.145,0.065
389,0.135,0.055
390,0.115,0.055
391,0.105,0.045
392,0.095,0.035
393,0.085,0.055
394,-0.605,-0.565
395,-0.575,-0.605
396,-0.515,-0.545
397,-0.495,-0.525
398,-0.495,-0.505
399,-0.495,-0.505
400,-0.485,-0.505
401,-0.475,-0.495
402,-0.475,-0.495
403,-0.475,-0.495
404,-0.475,-0.495
405,-0.465,-0.485
406,-0.465,-0.475
407,-0.465,-0.475
408,-0.455,-0.475
409,-0.455,-0.475
410,-0.445,-0.455
411,-0.445,-0.455
412,-0.435,-0.455
413,-0.435,-0.455
414,-0.425,-0.435
415,-0.425,-0.435
416,-0.415,-0.435
417,-0.415,-0.435
418,-0.415,-0.425
419,-0.405,-0.415
420,-0.395,-0.415
421,-0.395,-0.405
422,-0.385,-0.395
423,-0.385,-0.395
424,-0.385,-0.395
425,-0.375,-0.385
426,-0.365,-0.375
427,-0.365,-0.375
428,-0.365,-0.375
429,-0.355,-0.365
430,-0.345,-0.355
431,-0.345,-0.355
432,-0.345,-0.355
433,-0.335,-0.345
434,-0.325,-0.335
435,-0.325,-0.335
436,-0.315,-0.325
437,-0.305,-0.325
438,-0.305,-0.315
439,-0.295,-0.305
440,-0.295,-0.305
441,-0.285,-0.305
442,-0.275,-0.295
443,-0.275,-0.285
444,-0.265,-0.285
445,-0.255,-0.275
446,-0.245,-0.265
447,-0.245,-0.265
448,-0.235,-0.255
449,-0.225,-0.255
450,-0.215,-0.245
451,-0.205,-0.235
452,-0.195,-0.225
453,-0.185,-0.225
454,-0.175,-0.215
455,-0.165,-0.215
456,-0.145,-0.205
457,-0.115,-0.195
458,0.105,-0.195
459,0.525,0.475
460,0.495,0.435
461,0.465,0.375
462,0.445,0.355
463,0.445,0.345
464,0.445,0.345
465,0.445,0.335
466,0.445,0.335
467,0.435,0.335
468,0.435,0.335
469,0.435,0.325
470,0.435,0.325
471,0.425,0.315
472,0.425,0.315
473,0.425,0.315
474,0.415,0.305
475,0.405,0.305
476,0.405,0.305
477,0.405,0.295
478,0.395,0.285
479,0.385,0.285
480,0.375,0.285
481,0.375,0.265
482,0.375,0.265
483,0.365,0.265
484,0.365,0.255
485,0.355,0.245
486,0.345,0.245
487,0.345,0.235
488,0.335,0.235
489,0.335,0.225
490,0.325,0.225
491,0.315,0.215
492,0.305,0.215
493,0.305,0.205
494,0.295,0.205
495,0.295,0.195
496,0.285,0.185
497,0.275,0.185
498,0.275,0.185
499,0.265,0.175
500,0.265,0.165
501,0.245,0.165
502,0.245,0.155
503,0.235,0.145
504,0.225,0.145
505,0.215,0.135
506,0.215,0.135
507,0.205,0.125
508,0.205,0.115
509,0.195,0.115
510,0.185,0.105
511,0.175,0.095
512,0.165,0.085
513,0.155,0.085
514,0.145,0.085
515,0.135,0.075
516,0.125,0.065
517,0.115,0.065
518,0.105,0.055
519,0.095,0.045
520,0.085,0.035
521,0.075,0.025
522,-0.585,-0.495
523,-0.615,-0.615
524,-0.545,-0.555
525,-0.525,-0.525
526,-0.515,-0.505
527,-0.515,-0.505
528,-0.515,-0.505
529,-0.515,-0.505
530,-0.505,-0.495
531,-0.505,-0.495
532,-0.505,-0.495
533,-0.505,-0.485
534,-0.495,-0.475
535,-0.495,-0.485
536,-0.485,-0.475
537,-0.485,-0.475
538,-0.475,-0.465
539,-0.475,-0.455
540,-0.465,-0.455
541,-0.465,-0.445
542,-0.455,-0.445
543,-0.455,-0.435
544,-0.445,-0.435
545,-0.445,-0.425
546,-0.435,-0.415
547,-0.435,-0.415
548,-0.425,-0.415
549,-0.425,-0.405
550,-0.415,-0.395
551,-0.415,-0.395
552,-0.405,-0.395
553,-0.395,-0.385
554,-0.395,-0.375
555,-0.385,-0.375
556,-0.375,-0.365
557,-0.375,-0.365
558,-0.365,-0.355
559,-0.365,-0.345
560,-0.355,-0.345
561,-0.355,-0.345
562,-0.335,-0.335
563,-0.335,-0.325
564,-0.325,-0.325
565,-0.325,-0.325
566,-0.315,-0.305
567,-0.305,-0.305
568,-0.305,-0.305
569,-0.295,-0.295
570,-0.285,-0.285
571,-0.275,-0.285
572,-0.265,-0.275
573,-0.265,-0.275
574,-0.255,-0.265
575,-0.245,-0.255
576,-0.235,-0.255
577,-0.225,-0.245
578,-0.215,-0.235
579,-0.205,-0.225
580,-0.195,-0.225
581,-0.185,-0.215
582,-0.175,-0.205
583,-0.165,-0.205
584,-0.145,-0.195
585,-0.125,-0.175
586,0.445,0.265
587,0.545,0.475
588,0.485,0.405
589,0.455,0.365
590,0.445,0.365
591,0.445,0.355
592,0.445,0.345
593,0.445,0.345
594,0.435,0.345
595,0.435,0.335
596,0.435,0.335
597,0.435,0.335
598,0.425,0.335
599,0.425,0.325
600,0.415,0.315
601,0.415,0.315
602,0.405,0.315
603,0.395,0.305
604,0.395,0.295
605,0.395,0.285
606,0.385,0.295
607,0.375,0.275
608,0.375,0.265
609,0.375,0.265
610,0.365,0.265
611,0.355,0.255
612,0.355,0.255
613,0.345,0.245
614,0.335,0.245
615,0.335,0.235
616,0.335,0.235
617,0.325,0.225
618,0.315,0.225
619,0.305,0.215
620,0.305,0.215
621,0.295,0.205
622,0.295,0.205
623,0.285,0.195
624,0.275,0.195
625,0.275,0.185
626,0.265,0.185
627,0.255,0.175
628,0.255,0.165
629,0.245,0.165
630,0.235,0.165
631,0.225,0.155
632,0.225,0.145
633,0.215,0.145
634,0.215,0.145
635,0.205,0.135
636,0.195,0.125
637,0.185,0.115
638,0.185,0.115
639,0.165,0.105
640,0.165,0.105
641,0.155,0.095
642,0.145,0.095
643,0.135,0.075
644,0.125,0.075
645,0.115,0.065
646,0.105,0.065
647,0.095,0.055
648,0.085,0.045
649,0.075,0.035
650,-0.575,-0.465
651,-0.615,-0.615
652,-0.555,-0.545
653,-0.525,-0.515
654,-0.515,-0.505
655,-0.515,-0.495
656,-0.515,-0.495
657,-0.505,-0.495
658,-0.505,-0.485
659,-0.505,-0.485
660,-0.505,-0.485
661,-0.505,-0.475
662,-0.495,-0.475
663,-0.485,-0.465
664,-0.485,-0.465
665,-0.485,-0.465
666,-0.475,-0.455
667,-0.475,-0.445
668,-0.465,-0.445
669,-0.455,-0.445
670,-0.455,-0.435
671,-0.455,-0.425
672,-0.445,-0.425
673,-0.445,-0.415
674,-0.435,-0.405
675,-0.435,-0.405
676,-0.425,-0.395
677,-0.415,-0.395
678,-0.415,-0.385
679,-0.405,-0.385
680,-0.405,-0.385
681,-0.395,-0.375
682,-0.385,-0.365
683,-0.385,-0.365
684,-0.375,-0.365
685,-0.365,-0.355
686,-0.355,-0.345
687,-0.355,-0.345
688,-0.345,-0.335
689,-0.345,-0.335
690,-0.335,-0.325
691,-0.325,-0.325
692,-0.315,-0.315
693,-0.315,-0.315
694,-0.305,-0.305
695,-0.305,-0.305
696,-0.295,-0.305
697,-0.285,-0.295
698,-0.275,-0.285
699,-0.275,-0.275
700,-0.265,-0.275
701,-0.255,-0.265
702,-0.245,-0.255
703,-0.235,-0.255
704,-0.225,-0.255
705,-0.225,-0.245
706,-0.215,-0.235
707,-0.205,-0.235
708,-0.195,-0.225
709,-0.185,-0.215
710,-0.175,-0.205
711,-0.165,-0.205
712,-0.155,-0.195
713,-0.135,-0.185
714,0.415,0.195
715,0.565,0.475
716,0.495,0.405
717,0.465,0.375
718,0.455,0.365
719,0.455,0.355
720,0.455,0.345
721,0.445,0.345
722,0.445,0.345
723,0.435,0.345
724,0.435,0.335
725,0.435,0.325
726,0.435,0.335
727,0.425,0.325
728,0.425,0.315
729,0.415,0.315
730,0.415,0.305
731,0.405,0.305
732,0.395,0.295
733,0.395,0.295
734,0.395,0.285
735,0.385,0.285
736,0.375,0.275
737,0.375,0.265
738,0.365,0.265
739,0.365,0.255
740,0.355,0.245
741,0.345,0.245
742,0.345,0.245
743,0.335,0.235
744,0.335,0.225
745,0.325,0.225
746,0.325,0.225
747,0.315,0.215
748,0.315,0.205
749,0.305,0.195
750,0.295,0.195
751,0.285,0.195
752,0.285,0.185
753,0.285,0.175
754,0.275,0.175
755,0.265,0.175
756,0.255,0.165
757,0.255,0.155
758,0.245,0.155
759,0.235,0.145
760,0.225,0.135
761,0.225,0.135
762,0.215,0.125
763,0.205,0.125
764,0.205,0.105
765,0.195,0.105
766,0.185,0.105
767,0.175,0.095
768,0.165,0.085
769,0.155,0.075
770,0.145,0.075
771,0.135,0.065
772,0.135,0.055
773,0.115,0.055
774,0.105,0.055
775,0.095,0.035
776,0.085,0.025
777,0.065,0.015
778,-0.495,-0.435
779,-0.595,-0.635
780,-0.535,-0.565
781,-0.515,-0.535
782,-0.505,-0.515
783,-0.505,-0.515
784,-0.505,-0.515
785,-0.505,-0.515
786,-0.505,-0.505
787,-0.505,-0.505
788,-0.505,-0.505
789,-0.495,-0.495
790,-0.495,-0.485
791,-0.485,-0.485
792,-0.485,-0.485
793,-0.485,-0.475
794,-0.475,-0.465
795,-0.475,-0.465
796,-0.465,-0.465
797,-0.465,-0.455
798,-0.455,-0.455
799,-0.455,-0.445
800,-0.445,-0.445
801,-0.435,-0.435
802,-0.435,-0.425
803,-0.425,-0.425
804,-0.425,-0.425
805,-0.415,-0.415
806,-0.405,-0.405
807,-0.405,-0.395
808,-0.395,-0.405
809,-0.395,-0.395
810,-0.385,-0.385
811,-0.375,-0.385
812,-0.365,-0.385
813,-0.365,-0.375
814,-0.355,-0.365
815,-0.355,-0.365
816,-0.345,-0.355
817,-0.335,-0.355
818,-0.335,-0.345
819,-0.325,-0.345
820,-0.315,-0.345
821,-0.305,-0.335
822,-0.305,-0.325
823,-0.295,-0.315
824,-0.295,-0.315
825,-0.285,-0.305
826,-0.275,-0.295
827,-0.275,-0.295
828,-0.265,-0.295
829,-0.255,-0.285
830,-0.245,-0.275
831,-0.235,-0.265
832,-0.225,-0.265
833,-0.215,-0.255
834,-0.215,-0.245
835,-0.205,-0.245
836,-0.185,-0.245
837,-0.185,-0.235
838,-0.175,-0.225
839,-0.165,-0.225
840,-0.145,-0.215
841,-0.155,-0.205
842,0.515,0.325
843,0.555,0.455
844,0.495,0.385
845,0.465,0.355
846,0.455,0.345
847,0.455,0.335
848,0.455,0.325
849,0.445,0.325
850,0.445,0.325
851,0.435,0.315
852,0.445,0.315
853,0.435,0.305
854,0.425,0.305
855,0.425,0.305
856,0.425,0.295
857,0.415,0.295
858,0.405,0.285
859,0.405,0.285
860,0.395,0.275
861,0.385,0.265
862,0.385,0.265
863,0.385,0.265
864,0.375,0.255
865,0.375,0.245
866,0.365,0.245
867,0.355,0.235
868,0.355,0.225
869,0.345,0.225
870,0.345,0.225
871,0.335,0.215
872,0.325,0.205
873,0.325,0.205
874,0.315,0.205
875,0.305,0.195
876,0.305,0.185
877,0.295,0.185
878,0.295,0.175
879,0.285,0.175
880,0.275,0.165
881,0.275,0.155
882,0.265,0.155
883,0.255,0.155
884,0.255,0.145
885,0.245,0.135
886,0.235,0.145
887,0.225,0.135
888,0.225,0.125
889,0.215,0.115
890,0.215,0.115
891,0.205,0.105
892,0.195,0.095
893,0.185,0.095
894,0.185,0.095
895,0.165,0.075
896,0.165,0.075
897,0.155,0.065
898,0.145,0.065
899,0.135,0.055
900,0.125,0.045
901,0.115,0.045
902,0.105,0.045
903,0.105,0.025
904,0.075,0.015
905,0.065,0.045
906,-0.625,-0.595
907,-0.605,-0.625
908,-0.545,-0.565
909,-0.525,-0.535
910,-0.525,-0.525
911,-0.515,-0.515
912,-0.515,-0.515
913,-0.515,-0.515
914,-0.515,-0.505
915,-0.505,-0.505
916,-0.505,-0.505
917,-0.505,-0.495
918,-0.495,-0.485
919,-0.495,-0.485
920,-0.485,-0.485
921,-0.485,-0.475
922,-0.475,-0.475
923,-0.475,-0.465
924,-0.465,-0.465
925,-0.465,-0.455
926,-0.455,-0.445
927,-0.455,-0.445
928,-0.445,-0.435
929,-0.445,-0.435
930,-0.435,-0.425
931,-0.425,-0.415
932,-0.425,-0.415
933,-0.415,-0.415
934,-0.415,-0.405
935,-0.405,-0.405
936,-0.395,-0.395
937,-0.395,-0.395
938,-0.385,-0.375
939,-0.385,-0.375
940,-0.375,-0.375
941,-0.365,-0.365
942,-0.365,-0.355
943,-0.355,-0.355
944,-0.345,-0.355
945,-0.345,-0.355
946,-0.335,-0.345
947,-0.335,-0.335
948,-0.325,-0.335
949,-0.315,-0.335
950,-0.305,-0.315
951,-0.305,-0.315
952,-0.295,-0.315
953,-0.285,-0.305
954,-0.275,-0.295
955,-0.275,-0.295
956,-0.265,-0.285
957,-0.255,-0.285
958,-0.245,-0.275
959,-0.245,-0.265
960,-0.225,-0.265
961,-0.215,-0.255
962,-0.215,-0.245
963,-0.205,-0.235
964,-0.195,-0.235
965,-0.185,-0.225
966,-0.175,-0.215
967,-0.165,-0.215
968,-0.155,-0.205
969,-0.135,-0.195
970,0.345,0.055
971,0.575,0.465
972,0.505,0.405
973,0.465,0.355
974,0.455,0.355
975,0.455,0.345
976,0.455,0.335
977,0.455,0.335
978,0.445,0.335
979,0.445,0.325
980,0.445,0.325
981,0.435,0.315
982,0.435,0.325
983,0.435,0.315
984,0.425,0.305
985,0.425,0.305
986,0.415,0.305
987,0.405,0.295
988,0.405,0.285
989,0.405,0.285
990,0.395,0.285
991,0.385,0.275
992,0.385,0.265
993,0.375,0.265
994,0.375,0.255
995,0.365,0.255
996,0.365,0.245
997,0.355,0.245
998,0.355,0.235
999,0.345,0.235
1000,0.335,0.225
1001,0.335,0.215
1002,0.325,0.225
1003,0.325,0.215
1004,0.325,0.195
1005,0.305,0.195
1006,0.305,0.195
1007,0.295,0.185
1008,0.295,0.185
1009,0.285,0.175
1010,0.275,0.175
1011,0.275,0.165
1012,0.265,0.155
1013,0.255,0.155
1014,0.245,0.155
1015,0.245,0.155
1016,0.235,0.145
1017,0.235,0.135
1018,0.225,0.135
1019,0.215,0.125
1020,0.215,0.115
1021,0.205,0.115
1022,0.195,0.105
1023,0.185,0.105
1024,0.175,0.095
1025,0.175,0.085
1026,0.155,0.085
1027,0.155,0.075
1028,0.145,0.065
1029,0.135,0.065
1030,0.125,0.065
1031,0.115,0.045
1032,0.095,0.035
1033,0.105,0.025
1034,-0.575,-0.495
1035,-0.595,-0.615
1036,-0.545,-0.555
1037,-0.515,-0.525
1038,-0.505,-0.505
1039,-0.505,-0.505
1040,-0.505,-0.505
1041,-0.495,-0.495
1042,-0.495,-0.495
1043,-0.485,-0.485
1044,-0.485,-0.485
1045,-0.485,-0.485
1046,-0.475,-0.475
1047,-0.475,-0.475
1048,-0.465,-0.475
1049,-0.465,-0.465
1050,-0.455,-0.455
1051,-0.455,-0.455
1052,-0.445,-0.445
1053,-0.445,-0.445
1054,-0.435,-0.435
1055,-0.435,-0.425
1056,-0.425,-0.425
1057,-0.425,-0.425
1058,-0.415,-0.405
1059,-0.415,-0.405
1060,-0.405,-0.405
1061,-0.405,-0.395
1062,-0.395,-0.385
1063,-0.395,-0.385
1064,-0.385,-0.385
1065,-0.375,-0.375
1066,-0.365,-0.365
1067,-0.365,-0.365
1068,-0.365,-0.365
1069,-0.355,-0.355
1070,-0.355,-0.345
1071,-0.345,-0.345
1072,-0.335,-0.345
1073,-0.335,-0.335
1074,-0.315,-0.325
1075,-0.325,-0.325
1076,-0.305,-0.325
1077,-0.305,-0.315
1078,-0.295,-0.305
1079,-0.295,-0.305
1080,-0.275,-0.295
1081,-0.275,-0.295
1082,-0.265,-0.285
1083,-0.265,-0.275
1084,-0.255,-0.275
1085,-0.245,-0.265
1086,-0.235,-0.255
1087,-0.225,-0.255
1088,-0.215,-0.245
1089,-0.215,-0.235
1090,-0.205,-0.225
1091,-0.195,-0.225
1092,-0.185,-0.215
1093,-0.175,-0.215
1094,-0.165,-0.195
1095,-0.155,-0.195
1096,-0.135,-0.185
1097,-0.145,-0.175
1098,0.525,0.335
1099,0.555,0.465
1100,0.495,0.395
1101,0.465,0.375
1102,0.465,0.365
1103,0.455,0.355
1104,0.455,0.345
1105,0.445,0.345
1106,0.445,0.345
1107,0.445,0.335
1108,0.445,0.325
1109,0.435,0.325
1110,0.435,0.325
1111,0.425,0.315
1112,0.425,0.315
1113,0.415,0.305
1114,0.415,0.305
1115,0.405,0.305
1116,0.405,0.295
1117,0.395,0.285
1118,0.395,0.285
1119,0.385,0.275
1120,0.375,0.275
1121,0.375,0.265
1122,0.375,0.265
1123,0.365,0.265
1124,0.365,0.255
1125,0.355,0.245
1126,0.345,0.245
1127,0.345,0.245
1128,0.335,0.235
1129,0.335,0.225
1130,0.325,0.225
1131,0.315,0.215
1132,0.315,0.215
1133,0.305,0.205
1134,0.295,0.205
1135,0.295,0.195
1136,0.295,0.185
1137,0.285,0.185
1138,0.275,0.185
1139,0.265,0.175
1140,0.265,0.175
1141,0.255,0.165
1142,0.245,0.165
1143,0.235,0.155
1144,0.235,0.145
1145,0.225,0.145
1146,0.225,0.145
1147,0.215,0.135
1148,0.205,0.125
1149,0.195,0.115
1150,0.195,0.115
1151,0.185,0.115
1152,0.175,0.095
1153,0.165,0.095
1154,0.155,0.095
1155,0.145,0.085
1156,0.135,0.075
1157,0.135,0.065
1158,0.125,0.065
1159,0.105,0.055
1160,0.095,0.045
1161,0.085,0.035
1162,-0.415,-0.225
1163,-0.635,-0.615
1164,-0.555,-0.555
1165,-0.525,-0.515
1166,-0.515,-0.495
1167,-0.515,-0.495
1168,-0.505,-0.495
1169,-0.505,-0.485
1170,-0.505,-0.485
1171,-0.495,-0.485
1172,-0.495,-0.475
1173,-0.495,-0.475
1174,-0.485,-0.465
1175,-0.485,-0.465
1176,-0.475,-0.465
1177,-0.475,-0.455
1178,-0.465,-0.445
1179,-0.465,-0.445
1180,-0.455,-0.445
1181,-0.455,-0.435
1182,-0.445,-0.425
1183,-0.445,-0.425
1184,-0.435,-0.425
1185,-0.435,-0.415
1186,-0.425,-0.405
1187,-0.425,-0.405
1188,-0.415,-0.405
1189,-0.405,-0.395
1190,-0.395,-0.385
1191,-0.395,-0.375
1192,-0.385,-0.375
1193,-0.385,-0.375
1194,-0.375,-0.365
1195,-0.375,-0.355
1196,-0.365,-0.355
1197,-0.355,-0.355
1198,-0.355,-0.345
1199,-0.345,-0.335
1200,-0.335,-0.335
1201,-0.325,-0.325
1202,-0.325,-0.315
1203,-0.315,-0.315
1204,-0.315,-0.315
1205,-0.315,-0.305
1206,-0.295,-0.305
1207,-0.295,-0.295
1208,-0.285,-0.295
1209,-0.275,-0.295
1210,-0.275,-0.285
1211,-0.265,-0.275
1212,-0.255,-0.275
1213,-0.255,-0.265
1214,-0.245,-0.255
1215,-0.235,-0.255
1216,-0.225,-0.245
1217,-0.215,-0.245
1218,-0.205,-0.235
1219,-0.195,-0.225
1220,-0.185,-0.225
1221,-0.175,-0.215
1222,-0.175,-0.205
1223,-0.155,-0.195
1224,-0.145,-0.195
1225,-0.125,-0.185
1226,0.225,-0.045
1227,0.585,0.485
1228,0.515,0.425
1229,0.475,0.385
1230,0.465,0.365
1231,0.455,0.355
1232,0.455,0.355
1233,0.455,0.345
1234,0.455,0.345
1235,0.445,0.345
1236,0.445,0.335
1237,0.445,0.335
1238,0.435,0.335
1239,0.425,0.315
1240,0.415,0.315
1241,0.415,0.305
1242,0.415,0.305
1243,0.405,0.295
1244,0.395,0.295
1245,0.395,0.285
1246,0.385,0.285
1247,0.385,0.275
1248,0.375,0.265
1249,0.375,0.255
1250,0.375,0.255
1251,0.365,0.255
1252,0.355,0.245
1253,0.355,0.235
1254,0.345,0.235
1255,0.335,0.225
1256,0.335,0.225
1257,0.325,0.215
1258,0.325,0.215
1259,0.315,0.205
1260,0.305,0.205
1261,0.305,0.195
1262,0.295,0.195
1263,0.295,0.185
1264,0.285,0.175
1265,0.275,0.175
1266,0.275,0.175
1267,0.265,0.165
1268,0.255,0.155
1269,0.255,0.155
1270,0.245,0.155
1271,0.235,0.145
1272,0.225,0.135
1273,0.225,0.135
1274,0.215,0.125
1275,0.205,0.115
1276,0.205,0.105
1277,0.195,0.105
1278,0.185,0.095
1279,0.175,0.085
1280,0.165,0.085
1281,0.155,0.075
1282,0.145,0.075
1283,0.135,0.065
1284,0.135,0.055
1285,0.125,0.045
1286,0.115,0.045
1287,0.095,0.035
1288,0.085,0.025
1289,0.105,0.045
1290,-0.605,-0.565
1291,-0.605,-0.625
1292,-0.545,-0.565
1293,-0.525,-0.535
1294,-0.515,-0.525
1295,-0.515,-0.515
1296,-0.505,-0.515
1297,-0.505,-0.515
1298,-0.505,-0.505
1299,-0.495,-0.505
1300,-0.485,-0.495
1301,-0.485,-0.495
1302,-0.485,-0.485
1303,-0.475,-0.485
1304,-0.475,-0.485
1305,-0.465,-0.475
1306,-0.465,-0.465
1307,-0.455,-0.465
1308,-0.455,-0.465
1309,-0.445,-0.455
1310,-0.445,-0.445
1311,-0.435,-0.445
1312,-0.435,-0.435
1313,-0.425,-0.435
1314,-0.415,-0.425
1315,-0.415,-0.425
1316,-0.405,-0.415
1317,-0.405,-0.415
1318,-0.395,-0.405
1319,-0.385,-0.405
1320,-0.385,-0.395
1321,-0.375,-0.385
1322,-0.375,-0.385
1323,-0.365,-0.375
1324,-0.365,-0.375
1325,-0.355,-0.375
1326,-0.345,-0.355
1327,-0.345,-0.355
1328,-0.335,-0.355
1329,-0.325,-0.345
1330,-0.325,-0.335
1331,-0.315,-0.335
1332,-0.305,-0.335
1333,-0.305,-0.335
1334,-0.295,-0.325
1335,-0.295,-0.315
1336,-0.285,-0.315
1337,-0.275,-0.315
1338,-0.275,-0.295
1339,-0.265,-0.305
1340,-0.255,-0.295
1341,-0.245,-0.285
1342,-0.235,-0.275
1343,-0.235,-0.275
1344,-0.225,-0.265
1345,-0.215,-0.265
1346,-0.205,-0.255
1347,-0.195,-0.245
1348,-0.195,-0.245
1349,-0.185,-0.235
1350,-0.175,-0.225
1351,-0.155,-0.225
1352,-0.145,-0.215
1353,-0.125,-0.205
1354,0.385,0.155
1355,0.565,0.465
1356,0.505,0.395
1357,0.465,0.355
1358,0.455,0.345
1359,0.455,0.335
1360,0.445,0.335
1361,0.455,0.325
1362,0.455,0.335
1363,0.445,0.325
1364,0.445,0.315
1365,0.435,0.315
1366,0.435,0.315
1367,0.425,0.305
1368,0.425,0.295
1369,0.415,0.295
1370,0.415,0.295
1371,0.405,0.285
1372,0.405,0.275
1373,0.395,0.275
1374,0.395,0.275
1375,0.385,0.265
1376,0.375,0.255
1377,0.375,0.245
1378,0.365,0.245
1379,0.365,0.235
1380,0.355,0.235
1381,0.345,0.225
1382,0.345,0.225
1383,0.335,0.215
1384,0.335,0.205
1385,0.325,0.205
1386,0.315,0.205
1387,0.315,0.195
1388,0.305,0.185
1389,0.295,0.185
1390,0.295,0.185
1391,0.285,0.175
1392,0.285,0.165
1393,0.275,0.165
1394,0.265,0.165
1395,0.255,0.155
1396,0.255,0.145
1397,0.245,0.145
1398,0.245,0.145
1399,0.235,0.135
1400,0.225,0.125
1401,0.215,0.125
1402,0.215,0.115
1403,0.205,0.115
1404,0.195,0.105
1405,0.185,0.095
1406,0.185,0.095
1407,0.175,0.085
1408,0.165,0.075
1409,0.155,0.075
1410,0.155,0.075
1411,0.145,0.065
1412,0.135,0.055
1413,0.125,0.055
1414,0.115,0.045
1415,0.105,0.035
1416,0.085,0.025
1417,0.085,0.015
1418,-0.575,-0.485
1419,-0.615,-0.625
1420,-0.545,-0.565
1421,-0.525,-0.535
1422,-0.515,-0.515
1423,-0.515,-0.515
1424,-0.505,-0.505
1425,-0.505,-0.505
1426,-0.505,-0.495
1427,-0.505,-0.495
1428,-0.495,-0.495
1429,-0.495,-0.495
1430,-0.495,-0.485
1431,-0.485,-0.475
1432,-0.475,-0.475
1433,-0.475,-0.475
1434,-0.475,-0.455
1435,-0.465,-0.455
1436,-0.465,-0.455
1437,-0.455,-0.455
1438,-0.445,-0.445
1439,-0.445,-0.435
1440,-0.435,-0.435
1441,-0.435,-0.425
1442,-0.425,-0.425
1443,-0.425,-0.415
1444,-0.415,-0.415
1445,-0.415,-0.415
1446,-0.405,-0.395
1447,-0.395,-0.395
1448,-0.395,-0.395
1449,-0.385,-0.385
1450,-0.385,-0.375
1451,-0.375,-0.375
1452,-0.375,-0.375
1453,-0.365,-0.365
1454,-0.355,-0.355
1455,-0.355,-0.355
1456,-0.345,-0.355
1457,-0.335,-0.355
1458,-0.335,-0.335
1459,-0.325,-0.335
1460,-0.325,-0.335
1461,-0.315,-0.335
1462,-0.305,-0.325
1463,-0.305,-0.315
1464,-0.295,-0.315
1465,-0.285,-0.305
1466,-0.285,-0.295
1467,-0.275,-0.295
1468,-0.275,-0.295
1469,-0.265,-0.285
1470,-0.255,-0.275
1471,-0.245,-0.265
1472,-0.235,-0.265
1473,-0.225,-0.255
1474,-0.215,-0.245
1475,-0.215,-0.245
1476,-0.205,-0.245
1477,-0.195,-0.235
1478,-0.185,-0.225
1479,-0.175,-0.215
1480,-0.155,-0.205
1481,-0.165,-0.195
1482,0.505,0.325
1483,0.545,0.455
1484,0.485,0.385
1485,0.455,0.355
1486,0.445,0.345
1487,0.445,0.345
1488,0.435,0.335
1489,0.435,0.335
1490,0.435,0.335
1491,0.435,0.325
1492,0.425,0.315
1493,0.425,0.315
1494,0.425,0.315
1495,0.415,0.305
1496,0.415,0.295
1497,0.405,0.295
1498,0.395,0.295
1499,0.385,0.285
1500,0.385,0.275
1501,0.385,0.275
1502,0.375,0.275
1503,0.375,0.265
1504,0.365,0.255
1505,0.355,0.255
1506,0.355,0.245
1507,0.345,0.245
1508,0.345,0.235
1509,0.335,0.235
1510,0.335,0.225
1511,0.325,0.225
1512,0.325,0.215
1513,0.315,0.215
1514,0.305,0.205
1515,0.305,0.205
1516,0.295,0.195
1517,0.295,0.185
1518,0.285,0.195
1519,0.275,0.185
1520,0.275,0.175
1521,0.265,0.175
1522,0.265,0.165
1523,0.255,0.165
1524,0.245,0.155
1525,0.245,0.155
1526,0.235,0.155
1527,0.235,0.145
1528,0.225,0.135
1529,0.215,0.135
1530,0.215,0.125
1531,0.205,0.125
1532,0.195,0.115
1533,0.185,0.105
1534,0.185,0.105
1535,0.175,0.105
1536,0.165,0.095
1537,0.165,0.085
1538,0.145,0.085
1539,0.145,0.075
1540,0.135,0.065
1541,0.125,0.065
1542,0.115,0.055
1543,0.105,0.055
1544,0.095,0.045
1545,0.075,0.025
1546,-0.105,0.025
1547,-0.645,-0.625
1548,-0.585,-0.595
1549,-0.535,-0.545
1550,-0.515,-0.515
1551,-0.515,-0.515
1552,-0.515,-0.515
1553,-0.515,-0.505
1554,-0.515,-0.505
1555,-0.505,-0.495
1556,-0.505,-0.495
1557,-0.505,-0.495
1558,-0.495,-0.485
1559,-0.495,-0.485
1560,-0.495,-0.475
1561,-0.485,-0.475
1562,-0.475,-0.465
1563,-0.475,-0.455
1564,-0.465,-0.455
1565,-0.455,-0.455
1566,-0.445,-0.445
1567,-0.445,-0.435
1568,-0.435,-0.435
1569,-0.425,-0.425
1570,-0.425,-0.425
1571,-0.415,-0.415
1572,-0.415,-0.415
1573,-0.405,-0.405
1574,-0.395,-0.395
1575,-0.395,-0.395
1576,-0.385,-0.395
1577,-0.375,-0.385
1578,-0.375,-0.375
1579,-0.365,-0.375
1580,-0.355,-0.375
1581,-0.355,-0.365
1582,-0.345,-0.355
1583,-0.345,-0.355
1584,-0.335,-0.355
1585,-0.335,-0.345
1586,-0.335,-0.335
1587,-0.325,-0.335
1588,-0.315,-0.335
1589,-0.315,-0.325
1590,-0.305,-0.315
1591,-0.305,-0.315
1592,-0.295,-0.315
1593,-0.285,-0.305
1594,-0.285,-0.295
1595,-0.285,-0.295
1596,-0.275,-0.285
1597,-0.265,-0.285
1598,-0.255,-0.265
1599,-0.255,-0.265
1600,-0.245,-0.265
1601,-0.235,-0.255
1602,-0.235,-0.245
1603,-0.225,-0.235
1604,-0.215,-0.235
1605,-0.205,-0.225
1606,-0.195,-0.215
1607,-0.185,-0.215
1608,-0.165,-0.195
1609,-0.125,-0.225
1610,0.545,0.415
1611,0.515,0.445
1612,0.465,0.385
1613,0.435,0.355
1614,0.435,0.345
1615,0.435,0.345
1616,0.435,0.335
1617,0.425,0.335
1618,0.425,0.335
1619,0.425,0.325
1620,0.425,0.325
1621,0.415,0.315
1622,0.415,0.315
1623,0.405,0.315
1624,0.405,0.305
1625,0.395,0.305
1626,0.395,0.305
1627,0.385,0.295
1628,0.385,0.285
1629,0.375,0.285
1630,0.375,0.285
1631,0.365,0.275
1632,0.365,0.265
1633,0.355,0.255
1634,0.355,0.255
1635,0.345,0.245
1636,0.345,0.235
1637,0.335,0.235
1638,0.335,0.235
1639,0.325,0.225
1640,0.315,0.225
1641,0.315,0.215
1642,0.315,0.215
1643,0.305,0.205
1644,0.295,0.205
1645,0.295,0.195
1646,0.285,0.195
1647,0.285,0.185
1648,0.275,0.175
1649,0.265,0.175
1650,0.265,0.175
1651,0.255,0.165
1652,0.255,0.165
1653,0.245,0.155
1654,0.235,0.155
1655,0.225,0.145
1656,0.225,0.145
1657,0.215,0.135
1658,0.215,0.135
1659,0.205,0.125
1660,0.195,0.125
1661,0.195,0.115
1662,0.185,0.115
1663,0.175,0.105
1664,0.165,0.095
1665,0.165,0.085
1666,0.155,0.085
1667,0.145,0.075
1668,0.135,0.065
1669,0.125,0.065
1670,0.115,0.065
1671,0.105,0.055
1672,0.095,0.045
1673,0.075,0.025
1674,-0.235,-0.055
1675,-0.625,-0.595
1676,-0.565,-0.555
1677,-0.525,-0.515
1678,-0.505,-0.495
1679,-0.505,-0.485
1680,-0.505,-0.485
1681,-0.505,-0.485
1682,-0.495,-0.475
1683,-0.495,-0.475
1684,-0.495,-0.475
1685,-0.495,-0.475
1686,-0.485,-0.465
1687,-0.495,-0.465
1688,-0.485,-0.465
1689,-0.475,-0.455
1690,-0.465,-0.445
1691,-0.465,-0.445
1692,-0.465,-0.445
1693,-0.455,-0.435
1694,-0.455,-0.435
1695,-0.445,-0.425
1696,-0.445,-0.425
1697,-0.435,-0.415
1698,-0.435,-0.405
1699,-0.425,-0.405
1700,-0.425,-0.405
1701,-0.415,-0.395
1702,-0.415,-0.385
1703,-0.405,-0.385
1704,-0.395,-0.385
1705,-0.395,-0.375
1706,-0.385,-0.365
1707,-0.385,-0.365
1708,-0.375,-0.365
1709,-0.365,-0.365
1710,-0.365,-0.345
1711,-0.355,-0.345
1712,-0.345,-0.345
1713,-0.345,-0.335
1714,-0.335,-0.325
1715,-0.325,-0.325
1716,-0.315,-0.325
1717,-0.315,-0.325
1718,-0.315,-0.315
1719,-0.305,-0.315
1720,-0.295,-0.315
1721,-0.285,-0.295
1722,-0.285,-0.295
1723,-0.275,-0.285
1724,-0.265,-0.285
1725,-0.255,-0.285
1726,-0.255,-0.275
1727,-0.245,-0.265
1728,-0.235,-0.265
1729,-0.225,-0.255
1730,-0.215,-0.245
1731,-0.215,-0.245
1732,-0.195,-0.235
1733,-0.185,-0.225
1734,-0.185,-0.215
1735,-0.175,-0.215
1736,-0.155,-0.205
1737,-0.155,-0.195
1738,0.495,0.325
1739,0.545,0.445
1740,0.485,0.375
1741,0.455,0.355
1742,0.455,0.345
1743,0.445,0.335
1744,0.445,0.335
1745,0.445,0.325
1746,0.445,0.325
1747,0.435,0.325
1748,0.435,0.315
1749,0.425,0.315
1750,0.425,0.315
1751,0.415,0.305
1752,0.415,0.295
1753,0.415,0.295
1754,0.405,0.295
1755,0.405,0.285
1756,0.395,0.275
1757,0.385,0.275
1758,0.385,0.265
1759,0.375,0.265
1760,0.375,0.255
1761,0.365,0.245
1762,0.365,0.255
1763,0.355,0.245
1764,0.355,0.235
1765,0.345,0.225
1766,0.335,0.225
1767,0.335,0.215
1768,0.325,0.215
1769,0.315,0.205
1770,0.315,0.205
1771,0.305,0.195
1772,0.305,0.185
1773,0.295,0.185
1774,0.285,0.185
1775,0.285,0.175
1776,0.275,0.165
1777,0.275,0.165
1778,0.265,0.165
1779,0.255,0.155
1780,0.245,0.145
1781,0.245,0.145
1782,0.235,0.145
1783,0.225,0.135
1784,0.225,0.125
1785,0.215,0.115
1786,0.215,0.115
1787,0.205,0.105
1788,0.195,0.095
1789,0.185,0.095
1790,0.185,0.095
1791,0.175,0.085
1792,0.165,0.075
1793,0.155,0.065
1794,0.145,0.075
1795,0.135,0.055
1796,0.135,0.055
1797,0.125,0.045
1798,0.115,0.045
1799,0.095,0.025
1800,0.085,0.015
1801,0.065,0.005
1802,-0.515,-0.415
1803,-0.635,-0.645
1804,-0.565,-0.575
1805,-0.535,-0.545
1806,-0.525,-0.525
1807,-0.525,-0.525
1808,-0.515,-0.525
1809,-0.515,-0.525
1810,-0.515,-0.515
1811,-0.505,-0.505
1812,-0.505,-0.505
1813,-0.505,-0.505
1814,-0.495,-0.495
1815,-0.495,-0.495
1816,-0.485,-0.495
1817,-0.485,-0.485
1818,-0.475,-0.475
1819,-0.475,-0.475
1820,-0.465,-0.465
1821,-0.465,-0.465
1822,-0.455,-0.455
1823,-0.455,-0.455
1824,-0.445,-0.455
1825,-0.445,-0.445
1826,-0.435,-0.435
1827,-0.425,-0.435
1828,-0.425,-0.425
1829,-0.415,-0.425
1830,-0.415,-0.415
1831,-0.405,-0.415
1832,-0.395,-0.405
1833,-0.395,-0.405
1834,-0.395,-0.395
1835,-0.385,-0.385
1836,-0.375,-0.385
1837,-0.365,-0.385
1838,-0.365,-0.375
1839,-0.355,-0.365
1840,-0.355,-0.365
1841,-0.345,-0.365
1842,-0.335,-0.355
1843,-0.335,-0.345
1844,-0.325,-0.345
1845,-0.315,-0.345
1846,-0.305,-0.335
1847,-0.305,-0.325
1848,-0.295,-0.325
1849,-0.295,-0.325
1850,-0.285,-0.315
1851,-0.275,-0.305
1852,-0.275,-0.305
1853,-0.265,-0.295
1854,-0.255,-0.285
1855,-0.255,-0.285
1856,-0.245,-0.285
1857,-0.235,-0.265
1858,-0.225,-0.265
1859,-0.215,-0.255
1860,-0.205,-0.245
1861,-0.195,-0.245
1862,-0.185,-0.235
1863,-0.175,-0.225
1864,-0.155,-0.225
1865,-0.145,-0.205
1866,0.325,0.105
1867,0.565,0.455
1868,0.495,0.385
1869,0.465,0.345
1870,0.445,0.335
1871,0.445,0.325
1872,0.435,0.325
1873,0.435,0.315
1874,0.435,0.315
1875,0.435,0.315
1876,0.435,0.305
1877,0.425,0.305
1878,0.425,0.305
1879,0.415,0.305
1880,0.415,0.295
1881,0.415,0.285
1882,0.405,0.285
1883,0.395,0.275
1884,0.395,0.265
1885,0.385,0.265
1886,0.385,0.265
1887,0.375,0.255
1888,0.365,0.245
1889,0.365,0.245
1890,0.355,0.245
1891,0.355,0.235
1892,0.345,0.225
1893,0.345,0.225
1894,0.335,0.225
1895,0.325,0.215
1896,0.325,0.205
1897,0.315,0.195
1898,0.315,0.205
1899,0.305,0.195
1900,0.305,0.185
1901,0.295,0.185
1902,0.285,0.185
1903,0.285,0.175
1904,0.275,0.165
1905,0.275,0.165
1906,0.265,0.165
1907,0.255,0.155
1908,0.255,0.145
1909,0.245,0.145
1910,0.235,0.145
1911,0.235,0.135
1912,0.225,0.125
1913,0.215,0.115
1914,0.215,0.115
1915,0.205,0.105
1916,0.195,0.095
1917,0.185,0.095
1918,0.185,0.095
1919,0.175,0.085
1920,0.165,0.075
1921,0.155,0.065
1922,0.145,0.075
1923,0.135,0.065
1924,0.135,0.055
1925,0.115,0.045
1926,0.115,0.045
1927,0.095,0.035
1928,0.085,0.025
1929,0.075,0.015
1930,-0.105,-0.025
1931,-0.635,-0.635
1932,-0.585,-0.595
1933,-0.535,-0.555
1934,-0.515,-0.525
1935,-0.525,-0.525
1936,-0.515,-0.525
1937,-0.515,-0.515
1938,-0.505,-0.515
1939,-0.505,-0.505
1940,-0.505,-0.505
1941,-0.495,-0.505
1942,-0.495,-0.495
1943,-0.495,-0.495
1944,-0.495,-0.495
1945,-0.485,-0.485
1946,-0.475,-0.475
1947,-0.475,-0.465
1948,-0.465,-0.465
1949,-0.455,-0.465
1950,-0.455,-0.455
1951,-0.445,-0.445
1952,-0.445,-0.445
1953,-0.435,-0.435
1954,-0.425,-0.425
1955,-0.425,-0.425
1956,-0.415,-0.415
1957,-0.415,-0.415
1958,-0.405,-0.405
1959,-0.395,-0.395
1960,-0.395,-0.405
1961,-0.385,-0.395
1962,-0.375,-0.385
1963,-0.375,-0.385
1964,-0.365,-0.375
1965,-0.365,-0.375
1966,-0.355,-0.365
1967,-0.345,-0.355
1968,-0.345,-0.355
1969,-0.335,-0.355
1970,-0.335,-0.345
1971,-0.325,-0.335
1972,-0.325,-0.335
1973,-0.315,-0.325
1974,-0.305,-0.315
1975,-0.295,-0.315
1976,-0.295,-0.315
1977,-0.285,-0.305
1978,-0.285,-0.295
1979,-0.275,-0.295
1980,-0.265,-0.285
1981,-0.255,-0.275
1982,-0.245,-0.265
1983,-0.245,-0.265
1984,-0.225,-0.255
1985,-0.225,-0.255
1986,-0.215,-0.245
1987,-0.205,-0.235
1988,-0.195,-0.235
1989,-0.185,-0.225
1990,-0.175,-0.215
1991,-0.165,-0.205
1992,-0.145,-0.195
1993,-0.145,-0.185
1994,0.495,0.325
1995,0.555,0.455
1996,0.495,0.385
1997,0.465,0.355
1998,0.455,0.345
1999,0.445,0.345
2000,0.455,0.335
2001,0.445,0.335
2002,0.445,0.335
2003,0.435,0.325
2004,0.435,0.325
2005,0.435,0.315
2006,0.425,0.315
2007,0.425,0.315
2008,0.415,0.305
2009,0.415,0.305
2010,0.415,0.305
2011,0.405,0.295
2012,0.395,0.285
2013,0.395,0.275
2014,0.385,0.275
2015,0.385,0.265
2016,0.375,0.265
2017,0.375,0.255
2018,0.365,0.255
2019,0.355,0.245
2020,0.355,0.245
2021,0.355,0.235
2022,0.345,0.235
2023,0.335,0.225
2024,0.335,0.225
2025,0.325,0.215
2026,0.325,0.215
2027,0.315,0.205
2028,0.305,0.205
2029,0.305,0.195
2030,0.295,0.195
2031,0.285,0.195
2032,0.285,0.185
2033,0.275,0.175
2034,0.275,0.175
2035,0.265,0.175
2036,0.265,0.165
2037,0.245,0.155
2038,0.245,0.165
2039,0.235,0.145
2040,0.235,0.145
2041,0.225,0.135
2042,0.215,0.135
2043,0.205,0.125
2044,0.205,0.115
2045,0.195,0.115
2046,0.195,0.115
2047,0.185,0.105
2048,0.175,0.095
2049,0.165,0.095
2050,0.155,0.085
2051,0.145,0.085
2052,0.135,0.065
2053,0.135,0.065
2054,0.125,0.065
2055,0.105,0.055
2056,0.095,0.045
2057,0.075,0.035
2058,-0.275,-0.155
2059,-0.635,-0.625
2060,-0.565,-0.565
2061,-0.525,-0.525
2062,-0.515,-0.505
2063,-0.505,-0.505
2064,-0.505,-0.495
2065,-0.505,-0.495
2066,-0.505,-0.485
2067,-0.505,-0.485
2068,-0.495,-0.485
2069,-0.495,-0.485
2070,-0.495,-0.475
2071,-0.485,-0.465
2072,-0.475,-0.465
2073,-0.475,-0.465
2074,-0.475,-0.455
2075,-0.465,-0.445
2076,-0.455,-0.445
2077,-0.455,-0.435
2078,-0.445,-0.425
2079,-0.445,-0.425
2080,-0.435,-0.425
2081,-0.435,-0.415
2082,-0.425,-0.405
2083,-0.415,-0.405
2084,-0.415,-0.405
2085,-0.415,-0.395
2086,-0.405,-0.385
2087,-0.405,-0.385
2088,-0.395,-0.385
2089,-0.385,-0.375
2090,-0.385,-0.365
2091,-0.375,-0.355
2092,-0.365,-0.365
2093,-0.365,-0.355
2094,-0.355,-0.345
2095,-0.355,-0.335
2096,-0.345,-0.335
2097,-0.335,-0.335
2098,-0.325,-0.325
2099,-0.325,-0.315
2100,-0.315,-0.315
2101,-0.305,-0.315
2102,-0.295,-0.295
2103,-0.295,-0.295
2104,-0.285,-0.295
2105,-0.285,-0.285
2106,-0.275,-0.275
2107,-0.265,-0.275
2108,-0.255,-0.275
2109,-0.255,-0.265
2110,-0.245,-0.255
2111,-0.235,-0.255
2112,-0.225,-0.245
2113,-0.215,-0.245
2114,-0.215,-0.225
2115,-0.205,-0.225
2116,-0.195,-0.215
2117,-0.185,-0.215
2118,-0.175,-0.205
2119,-0.165,-0.195
2120,-0.145,-0.185
2121,-0.135,-0.175
2122,0.435,0.285
2123,0.565,0.475
2124,0.495,0.405
2125,0.465,0.375
2126,0.455,0.365
2127,0.455,0.355
2128,0.445,0.345
2129,0.445,0.345
2130,0.445,0.345
2131,0.445,0.345
2132,0.435,0.335
2133,0.435,0.335
2134,0.435,0.335
2135,0.425,0.325
2136,0.425,0.315
2137,0.415,0.315
2138,0.415,0.315
2139,0.405,0.305
2140,0.405,0.295
2141,0.395,0.295
2142,0.395,0.295
2143,0.385,0.285
2144,0.385,0.275
2145,0.375,0.275
2146,0.375,0.275
2147,0.365,0.265
2148,0.365,0.255
2149,0.355,0.255
2150,0.345,0.245
2151,0.345,0.245
2152,0.335,0.235
2153,0.335,0.225
2154,0.325,0.225
2155,0.325,0.225
2156,0.315,0.215
2157,0.305,0.205
2158,0.305,0.205
2159,0.295,0.205
2160,0.285,0.195
2161,0.275,0.185
2162,0.275,0.185
2163,0.265,0.175
2164,0.265,0.175
2165,0.255,0.165
2166,0.245,0.165
2167,0.245,0.155
2168,0.235,0.155
2169,0.235,0.145
2170,0.225,0.145
2171,0.215,0.135
2172,0.205,0.125
2173,0.205,0.115
2174,0.195,0.115
2175,0.185,0.105
2176,0.175,0.095
2177,0.165,0.095
2178,0.165,0.085
2179,0.145,0.085
2180,0.145,0.075
2181,0.135,0.065
2182,0.125,0.065
2183,0.105,0.055
2184,0.095,0.045
2185,0.085,0.025
2186,-0.415,-0.305
2187,-0.625,-0.625
2188,-0.555,-0.565
2189,-0.525,-0.525
2190,-0.515,-0.505
2191,-0.515,-0.505
2192,-0.505,-0.505
2193,-0.505,-0.495
2194,-0.505,-0.485
2195,-0.495,-0.485
2196,-0.495,-0.485
2197,-0.495,-0.485
2198,-0.495,-0.475
2199,-0.485,-0.475
2200,-0.475,-0.465
2201,-0.475,-0.465
2202,-0.465,-0.455
2203,-0.465,-0.455
2204,-0.465,-0.455
2205,-0.455,-0.445
2206,-0.455,-0.435
2207,-0.445,-0.435
2208,-0.445,-0.425
2209,-0.435,-0.425
2210,-0.425,-0.415
2211,-0.425,-0.415
2212,-0.415,-0.415
2213,-0.415,-0.405
2214,-0.405,-0.395
2215,-0.395,-0.385
2216,-0.395,-0.385
2217,-0.385,-0.385
2218,-0.385,-0.375
2219,-0.385,-0.375
2220,-0.365,-0.365
2221,-0.365,-0.365
2222,-0.355,-0.355
2223,-0.355,-0.345
2224,-0.345,-0.345
2225,-0.335,-0.345
2226,-0.335,-0.335
2227,-0.325,-0.325
2228,-0.325,-0.325
2229,-0.315,-0.325
2230,-0.305,-0.315
2231,-0.295,-0.315
2232,-0.295,-0.305
2233,-0.285,-0.305
2234,-0.285,-0.295
2235,-0.275,-0.285
2236,-0.265,-0.285
2237,-0.255,-0.275
2238,-0.255,-0.265
2239,-0.245,-0.265
2240,-0.235,-0.265
2241,-0.225,-0.255
2242,-0.215,-0.245
2243,-0.215,-0.245
2244,-0.195,-0.235
2245,-0.185,-0.225
2246,-0.175,-0.215
2247,-0.165,-0.215
2248,-0.155,-0.205
2249,-0.135,-0.185
2250,0.415,0.225
2251,0.555,0.455
2252,0.495,0.385
2253,0.455,0.355
2254,0.455,0.345
2255,0.445,0.335
2256,0.445,0.335
2257,0.435,0.335
2258,0.445,0.335
2259,0.435,0.325
2260,0.435,0.315
2261,0.435,0.315
2262,0.425,0.315
2263,0.425,0.305
2264,0.415,0.295
2265,0.415,0.295
2266,0.415,0.295
2267,0.405,0.285
2268,0.405,0.285
2269,0.395,0.275
2270,0.395,0.275
2271,0.385,0.265
2272,0.385,0.265
2273,0.375,0.255
2274,0.365,0.255
2275,0.365,0.245
2276,0.355,0.235
2277,0.345,0.235
2278,0.345,0.235
2279,0.335,0.225
2280,0.335,0.215
2281,0.325,0.215
2282,0.325,0.215
2283,0.315,0.205
2284,0.315,0.195
2285,0.305,0.195
2286,0.295,0.195
2287,0.295,0.185
2288,0.285,0.175
2289,0.285,0.175
2290,0.275,0.175
2291,0.265,0.165
2292,0.265,0.155
2293,0.255,0.145
2294,0.245,0.145
2295,0.245,0.135
2296,0.235,0.135
2297,0.225,0.125
2298,0.225,0.125
2299,0.215,0.115
2300,0.205,0.105
2301,0.205,0.105
2302,0.195,0.105
2303,0.185,0.095
2304,0.175,0.085
2305,0.165,0.075
2306,0.165,0.075
2307,0.145,0.065
2308,0.145,0.055
2309,0.135,0.055
2310,0.125,0.055
2311,0.115,0.045
2312,0.105,0.025
2313,0.085,0.015
2314,-0.435,-0.345
2315,-0.615,-0.625
2316,-0.545,-0.565
2317,-0.515,-0.525
2318,-0.505,-0.505
2319,-0.505,-0.505
2320,-0.495,-0.505
2321,-0.495,-0.505
2322,-0.485,-0.495
2323,-0.485,-0.495
2324,-0.485,-0.485
2325,-0.485,-0.485
2326,-0.475,-0.475
2327,-0.475,-0.475
2328,-0.475,-0.475
2329,-0.465,-0.475
2330,-0.455,-0.465
2331,-0.455,-0.455
2332,-0.445,-0.455
2333,-0.445,-0.455
2334,-0.445,-0.445
2335,-0.435,-0.435
2336,-0.425,-0.435
2337,-0.425,-0.425
2338,-0.415,-0.425
2339,-0.415,-0.415
2340,-0.405,-0.415
2341,-0.405,-0.405
2342,-0.395,-0.395
2343,-0.385,-0.395
2344,-0.385,-0.395
2345,-0.375,-0.385
2346,-0.375,-0.375
2347,-0.365,-0.375
2348,-0.365,-0.365
2349,-0.355,-0.365
2350,-0.345,-0.355
2351,-0.345,-0.355
2352,-0.335,-0.345
2353,-0.325,-0.345
2354,-0.325,-0.335
2355,-0.315,-0.335
2356,-0.315,-0.335
2357,-0.305,-0.325
2358,-0.295,-0.315
2359,-0.295,-0.315
2360,-0.285,-0.315
2361,-0.275,-0.305
2362,-0.275,-0.295
2363,-0.265,-0.295
2364,-0.255,-0.295
2365,-0.255,-0.285
2366,-0.245,-0.265
2367,-0.235,-0.265
2368,-0.225,-0.265
2369,-0.225,-0.255
2370,-0.215,-0.245
2371,-0.205,-0.245
2372,-0.195,-0.235
2373,-0.185,-0.235
2374,-0.175,-0.215
2375,-0.155,-0.215
2376,-0.145,-0.205
2377,-0.135,-0.195
2378,0.375,0.155
2379,0.575,0.455
2380,0.505,0.385
2381,0.465,0.355
2382,0.455,0.345
2383,0.455,0.335
2384,0.445,0.325
2385,0.445,0.325
2386,0.445,0.325
2387,0.435,0.325
2388,0.435,0.315
2389,0.435,0.315
2390,0.425,0.305
2391,0.425,0.305
2392,0.415,0.295
2393,0.415,0.295
2394,0.405,0.295
2395,0.405,0.285
2396,0.395,0.275
2397,0.385,0.275
2398,0.385,0.275
2399,0.375,0.265
2400,0.375,0.255
2401,0.375,0.255
2402,0.365,0.255
2403,0.365,0.245
2404,0.355,0.235
2405,0.345,0.225
2406,0.345,0.225
2407,0.335,0.225
2408,0.335,0.215
2409,0.325,0.205
2410,0.315,0.205
2411,0.315,0.195
2412,0.305,0.195
2413,0.305,0.195
2414,0.295,0.185
2415,0.295,0.185
2416,0.285,0.175
2417,0.275,0.165
2418,0.275,0.165
2419,0.265,0.165
2420,0.255,0.155
2421,0.245,0.145
2422,0.245,0.155
2423,0.235,0.135
2424,0.235,0.135
2425,0.225,0.135
2426,0.225,0.125
2427,0.215,0.115
2428,0.205,0.105
2429,0.195,0.105
2430,0.185,0.105
2431,0.175,0.095
2432,0.175,0.085
2433,0.165,0.075
2434,0.155,0.075
2435,0.145,0.065
2436,0.135,0.065
2437,0.125,0.055
2438,0.125,0.055
2439,0.105,0.045
2440,0.095,0.035
2441,0.085,0.015
2442,0.005,0.025
2443,-0.635,-0.625
2444,-0.585,-0.595
2445,-0.535,-0.555
2446,-0.515,-0.525
2447,-0.515,-0.515
2448,-0.515,-0.515
2449,-0.505,-0.515
2450,-0.505,-0.505
2451,-0.505,-0.505
2452,-0.495,-0.505
2453,-0.495,-0.495
2454,-0.495,-0.495
2455,-0.495,-0.485
2456,-0.485,-0.485
2457,-0.475,-0.485
2458,-0.475,-0.475
2459,-0.475,-0.465
2460,-0.475,-0.465
2461,-0.465,-0.455
2462,-0.455,-0.455
2463,-0.455,-0.445
2464,-0.445,-0.445
2465,-0.445,-0.435
2466,-0.435,-0.425
2467,-0.435,-0.425
2468,-0.425,-0.415
2469,-0.415,-0.415
2470,-0.405,-0.405
2471,-0.405,-0.405
2472,-0.395,-0.395
2473,-0.385,-0.395
2474,-0.385,-0.385
2475,-0.385,-0.375
2476,-0.375,-0.375
2477,-0.365,-0.375
2478,-0.355,-0.355
2479,-0.355,-0.355
2480,-0.345,-0.355
2481,-0.335,-0.345
2482,-0.335,-0.335
2483,-0.325,-0.335
2484,-0.315,-0.335
2485,-0.315,-0.325
2486,-0.305,-0.315
2487,-0.295,-0.315
2488,-0.285,-0.315
2489,-0.285,-0.305
2490,-0.275,-0.295
2491,-0.275,-0.295
2492,-0.265,-0.285
2493,-0.255,-0.275
2494,-0.255,-0.265
2495,-0.245,-0.265
2496,-0.225,-0.265
2497,-0.225,-0.255
2498,-0.215,-0.245
2499,-0.205,-0.245
2500,-0.195,-0.235
2501,-0.185,-0.225
2502,-0.175,-0.215
2503,-0.165,-0.215
2504,-0.155,-0.205
2505,-0.155,-0.205
2506,0.485,0.355
2507,0.545,0.445
2508,0.485,0.385
2509,0.455,0.345
2510,0.445,0.345
2511,0.435,0.335
2512,0.435,0.335
2513,0.435,0.325
2514,0.435,0.325
2515,0.435,0.325
2516,0.425,0.315
2517,0.425,0.315
2518,0.415,0.315
2519,0.415,0.305
2520,0.405,0.295
2521,0.405,0.295
2522,0.395,0.295
2523,0.395,0.285
2524,0.385,0.275
2525,0.385,0.275
2526,0.375,0.275
2527,0.375,0.265
2528,0.365,0.255
2529,0.365,0.255
2530,0.355,0.255
2531,0.345,0.245
2532,0.345,0.235
2533,0.345,0.235
2534,0.335,0.235
2535,0.325,0.225
2536,0.325,0.215
2537,0.315,0.215
2538,0.315,0.205
2539,0.305,0.205
2540,0.295,0.195
2541,0.295,0.185
2542,0.285,0.185
2543,0.285,0.185
2544,0.275,0.175
2545,0.265,0.165
2546,0.265,0.165
2547,0.255,0.165
2548,0.255,0.155
2549,0.245,0.145
2550,0.235,0.145
2551,0.225,0.145
2552,0.225,0.135
2553,0.215,0.125
2554,0.215,0.125
2555,0.205,0.115
2556,0.195,0.105
2557,0.195,0.105
2558,0.185,0.105
2559,0.175,0.095
2560,0.165,0.085
2561,0.155,0.075
2562,0.145,0.075
2563,0.135,0.065
2564,0.135,0.065
2565,0.125,0.055
2566,0.115,0.055
2567,0.095,0.035
2568,0.095,0.035
2569,0.075,0.015
2570,-0.335,-0.245
2571,-0.625,-0.625
2572,-0.565,-0.575
2573,-0.525,-0.535
2574,-0.515,-0.515
2575,-0.505,-0.505
2576,-0.505,-0.505
2577,-0.505,-0.505
2578,-0.495,-0.495
2579,-0.505,-0.495
2580,-0.495,-0.495
2581,-0.495,-0.495
2582,-0.485,-0.485
2583,-0.485,-0.485
2584,-0.485,-0.485
2585,-0.475,-0.475
2586,-0.475,-0.465
2587,-0.465,-0.465
2588,-0.465,-0.465
2589,-0.455,-0.455
2590,-0.455,-0.445
2591,-0.445,-0.435
2592,-0.435,-0.435
2593,-0.435,-0.435
2594,-0.435,-0.425
2595,-0.425,-0.415
2596,-0.415,-0.415
2597,-0.415,-0.405
2598,-0.405,-0.405
2599,-0.395,-0.395
2600,-0.395,-0.395
2601,-0.385,-0.385
2602,-0.375,-0.375
2603,-0.375,-0.375
2604,-0.365,-0.375
2605,-0.365,-0.365
2606,-0.355,-0.355
2607,-0.355,-0.345
2608,-0.345,-0.345
2609,-0.335,-0.345
2610,-0.325,-0.335
2611,-0.325,-0.325
2612,-0.325,-0.325
2613,-0.315,-0.325
2614,-0.305,-0.315
2615,-0.305,-0.315
2616,-0.295,-0.305
2617,-0.295,-0.305
2618,-0.285,-0.295
2619,-0.275,-0.285
2620,-0.265,-0.285
2621,-0.265,-0.275
2622,-0.255,-0.265
2623,-0.245,-0.255
2624,-0.245,-0.255
2625,-0.235,-0.255
2626,-0.225,-0.235
2627,-0.215,-0.235
2628,-0.205,-0.235
2629,-0.195,-0.225
2630,-0.185,-0.215
2631,-0.175,-0.205
2632,-0.155,-0.205
2633,-0.145,-0.185
2634,0.375,0.195
2635,0.555,0.455
2636,0.495,0.385
2637,0.455,0.355
2638,0.445,0.345
2639,0.435,0.335
2640,0.435,0.335
2641,0.435,0.335
2642,0.435,0.335
2643,0.425,0.325
2644,0.435,0.315
2645,0.425,0.315
2646,0.425,0.315
2647,0.415,0.315
2648,0.415,0.305
2649,0.415,0.295
2650,0.405,0.305
2651,0.405,0.295
2652,0.395,0.285
2653,0.395,0.285
2654,0.385,0.285
2655,0.375,0.275
2656,0.375,0.265
2657,0.375,0.255
2658,0.365,0.265
2659,0.365,0.255
2660,0.355,0.245
2661,0.355,0.235
2662,0.345,0.235
2663,0.335,0.225
2664,0.335,0.225
2665,0.325,0.215
2666,0.315,0.215
2667,0.305,0.205
2668,0.305,0.195
2669,0.305,0.195
2670,0.295,0.195
2671,0.285,0.185
2672,0.285,0.175
2673,0.275,0.175
2674,0.265,0.175
2675,0.265,0.165
2676,0.255,0.155
2677,0.245,0.155
2678,0.245,0.155
2679,0.235,0.145
2680,0.235,0.135
2681,0.225,0.135
2682,0.215,0.135
2683,0.205,0.125
2684,0.205,0.115
2685,0.195,0.105
2686,0.185,0.105
2687,0.175,0.095
2688,0.175,0.085
2689,0.165,0.085
2690,0.155,0.075
2691,0.145,0.075
2692,0.135,0.065
2693,0.125,0.055
2694,0.115,0.055
2695,0.105,0.045
2696,0.085,0.025
2697,0.115,0.045
2698,-0.585,-0.545
2699,-0.605,-0.615
2700,-0.535,-0.555
2701,-0.515,-0.525
2702,-0.515,-0.515
2703,-0.505,-0.505
2704,-0.505,-0.505
2705,-0.505,-0.505
2706,-0.505,-0.495
2707,-0.505,-0.495
2708,-0.495,-0.495
2709,-0.495,-0.495
2710,-0.495,-0.485
2711,-0.495,-0.485
2712,-0.485,-0.485
2713,-0.485,-0.475
2714,-0.475,-0.465
2715,-0.475,-0.465
2716,-0.465,-0.465
2717,-0.465,-0.455
2718,-0.455,-0.445
2719,-0.455,-0.445
2720,-0.445,-0.445
2721,-0.435,-0.435
2722,-0.435,-0.425
2723,-0.425,-0.425
2724,-0.425,-0.415
2725,-0.415,-0.415
2726,-0.405,-0.405
2727,-0.405,-0.405
2728,-0.405,-0.405
2729,-0.395,-0.395
2730,-0.385,-0.385
2731,-0.385,-0.385
2732,-0.375,-0.375
2733,-0.365,-0.375
2734,-0.365,-0.365
2735,-0.355,-0.355
2736,-0.355,-0.355
2737,-0.345,-0.355
2738,-0.335,-0.345
2739,-0.335,-0.345
2740,-0.335,-0.335
2741,-0.325,-0.335
2742,-0.315,-0.325
2743,-0.305,-0.325
2744,-0.305,-0.315
2745,-0.295,-0.315
2746,-0.285,-0.305
2747,-0.285,-0.305
2748,-0.275,-0.295
2749,-0.265,-0.295
2750,-0.255,-0.285
2751,-0.255,-0.275
2752,-0.245,-0.265
2753,-0.235,-0.265
2754,-0.225,-0.255
2755,-0.215,-0.245
2756,-0.205,-0.245
2757,-0.205,-0.245
2758,-0.185,-0.235
2759,-0.175,-0.225
2760,-0.165,-0.215
2761,-0.145,-0.215
2762,-0.165,-0.235
2763,0.565,0.435
2764,0.525,0.425
2765,0.465,0.365
2766,0.455,0.345
2767,0.445,0.335
2768,0.435,0.335
2769,0.435,0.325
2770,0.445,0.325
2771,0.435,0.325
2772,0.435,0.315
2773,0.435,0.315
2774,0.435,0.305
2775,0.425,0.305
2776,0.415,0.295
2777,0.415,0.295
2778,0.415,0.295
2779,0.405,0.285
2780,0.405,0.275
2781,0.395,0.275
2782,0.395,0.275
2783,0.385,0.265
2784,0.375,0.255
2785,0.375,0.245
2786,0.365,0.245
2787,0.365,0.245
2788,0.355,0.235
2789,0.355,0.225
2790,0.345,0.225
2791,0.335,0.215
2792,0.335,0.205
2793,0.325,0.205
2794,0.315,0.205
2795,0.315,0.195
2796,0.305,0.185
2797,0.305,0.175
2798,0.295,0.175
2799,0.285,0.175
2800,0.285,0.165
2801,0.275,0.155
2802,0.265,0.165
2803,0.265,0.155
2804,0.255,0.145
2805,0.245,0.145
2806,0.245,0.135
2807,0.235,0.135
2808,0.225,0.125
2809,0.215,0.125
2810,0.215,0.125
2811,0.215,0.115
2812,0.205,0.095
2813,0.195,0.095
2814,0.185,0.095
2815,0.175,0.085
2816,0.175,0.075
2817,0.165,0.065
2818,0.155,0.065
2819,0.145,0.055
2820,0.135,0.045
2821,0.125,0.045
2822,0.115,0.045
2823,0.105,0.025
2824,0.095,0.015
2825,0.075,0.005
2826,-0.505,-0.435
2827,-0.625,-0.645
2828,-0.555,-0.575
2829,-0.525,-0.535
2830,-0.515,-0.525
2831,-0.515,-0.525
2832,-0.505,-0.525
2833,-0.505,-0.515
2834,-0.505,-0.515
2835,-0.505,-0.505
2836,-0.505,-0.505
2837,-0.495,-0.505
2838,-0.495,-0.495
2839,-0.485,-0.495
2840,-0.485,-0.485
2841,-0.485,-0.485
2842,-0.475,-0.475
2843,-0.475,-0.465
2844,-0.465,-0.465
2845,-0.465,-0.465
2846,-0.455,-0.455
2847,-0.455,-0.460
2848,-0.445,-0.450
2849,-0.445,-0.450
2850,-0.435,-0.440
2851,-0.425,-0.440
2852,-0.415,-0.430
2853,-0.415,-0.430
2854,-0.415,-0.420
2855,-0.405,-0.420
2856,-0.395,-0.410
2857,-0.395,-0.410
2858,-0.385,-0.400
2859,-0.385,-0.390
2860,-0.375,-0.390
2861,-0.365,-0.390
2862,-0.365,-0.380
2863,-0.355,-0.370
2864,-0.345,-0.370
2865,-0.345,-0.360
2866,-0.335,-0.350
2867,-0.325,-0.345
2868,-0.325,-0.345
2869,-0.315,-0.335
2870,-0.315,-0.325
2871,-0.305,-0.325
2872,-0.295,-0.325
2873,-0.295,-0.315
2874,-0.285,-0.305
2875,-0.275,-0.305
2876,-0.265,-0.295
2877,-0.265,-0.285
2878,-0.255,-0.275
2879,-0.245,-0.275
2880,-0.235,-0.265
2881,-0.225,-0.265
2882,-0.215,-0.255
2883,-0.215,-0.245
2884,-0.205,-0.245
2885,-0.195,-0.235
2886,-0.185,-0.225
2887,-0.175,-0.215
2888,-0.155,-0.205
2889,-0.145,-0.195
2890,0.425,0.235
2891,0.555,0.445
2892,0.485,0.385
2893,0.455,0.355
2894,0.445,0.345
2895,0.445,0.335
2896,0.445,0.325
2897,0.435,0.325
2898,0.435,0.325
2899,0.435,0.325
2900,0.435,0.315
2901,0.425,0.315
2902,0.425,0.315
2903,0.425,0.305
2904,0.415,0.305
2905,0.415,0.295
2906,0.405,0.295
2907,0.405,0.285
2908,0.395,0.275
2909,0.395,0.275
2910,0.385,0.275
2911,0.385,0.275
2912,0.375,0.265
2913,0.375,0.255
2914,0.365,0.255
2915,0.365,0.245
2916,0.355,0.235
2917,0.345,0.235
2918,0.345,0.235
2919,0.335,0.225
2920,0.335,0.215
2921,0.325,0.215
2922,0.315,0.215
2923,0.315,0.205
2924,0.305,0.195
2925,0.295,0.195
2926,0.295,0.195
2927,0.285,0.185
2928,0.285,0.175
2929,0.275,0.175
2930,0.265,0.165
2931,0.255,0.165
2932,0.255,0.155
2933,0.255,0.155
2934,0.245,0.155
2935,0.235,0.145
2936,0.235,0.135
2937,0.225,0.125
2938,0.215,0.135
2939,0.205,0.115
2940,0.205,0.115
2941,0.195,0.105
2942,0.185,0.105
2943,0.175,0.095
2944,0.165,0.085
2945,0.155,0.085
2946,0.155,0.075
2947,0.145,0.075
2948,0.135,0.065
2949,0.125,0.055
2950,0.115,0.055
2951,0.105,0.045
2952,0.085,0.035
2953,0.075,0.015
2954,-0.445,-0.355
2955,-0.635,-0.635
2956,-0.565,-0.565
2957,-0.525,-0.525
2958,-0.515,-0.515
2959,-0.515,-0.505
2960,-0.515,-0.505
2961,-0.505,-0.505
2962,-0.505,-0.495
2963,-0.505,-0.495
2964,-0.495,-0.495
2965,-0.495,-0.485
2966,-0.495,-0.475
2967,-0.495,-0.475
2968,-0.485,-0.475
2969,-0.475,-0.465
2970,-0.475,-0.465
2971,-0.475,-0.455
2972,-0.465,-0.455
2973,-0.455,-0.445
2974,-0.455,-0.435
2975,-0.455,-0.435
2976,-0.445,-0.435
2977,-0.435,-0.425
2978,-0.435,-0.415
2979,-0.425,-0.415
2980,-0.415,-0.405
2981,-0.415,-0.395
2982,-0.405,-0.395
2983,-0.395,-0.385
2984,-0.395,-0.385
2985,-0.385,-0.375
2986,-0.385,-0.365
2987,-0.375,-0.365
2988,-0.365,-0.365
2989,-0.365,-0.355
2990,-0.355,-0.345
2991,-0.355,-0.345
2992,-0.345,-0.335
2993,-0.345,-0.335
2994,-0.335,-0.325
2995,-0.325,-0.325
2996,-0.315,-0.315
2997,-0.315,-0.315
2998,-0.305,-0.305
2999,-0.295,-0.305
3000,-0.295,-0.295
3001,-0.285,-0.295
3002,-0.275,-0.275
3003,-0.275,-0.275
3004,-0.265,-0.275
3005,-0.255,-0.265
3006,-0.245,-0.255
3007,-0.235,-0.255
3008,-0.225,-0.245
3009,-0.215,-0.235
3010,-0.205,-0.225
3011,-0.205,-0.225
3012,-0.195,-0.215
3013,-0.185,-0.215
3014,-0.175,-0.205
3015,-0.165,-0.195
3016,-0.145,-0.195
3017,-0.135,-0.175
3018,0.245,0.045
3019,0.575,0.485
3020,0.515,0.425
3021,0.475,0.375
3022,0.455,0.365
3023,0.455,0.365
3024,0.445,0.355
3025,0.445,0.355
3026,0.445,0.355
3027,0.445,0.345
3028,0.445,0.335
3029,0.435,0.335
3030,0.435,0.335
3031,0.435,0.335
3032,0.425,0.325
3033,0.425,0.315
3034,0.425,0.325
3035,0.405,0.315
3036,0.405,0.315
3037,0.405,0.305
3038,0.395,0.305
3039,0.395,0.295
3040,0.385,0.285
3041,0.385,0.285
3042,0.375,0.275
3043,0.365,0.275
3044,0.365,0.265
3045,0.355,0.265
3046,0.355,0.255
3047,0.345,0.255
3048,0.335,0.245
3049,0.335,0.235
3050,0.325,0.235
3051,0.315,0.225
3052,0.315,0.215
3053,0.315,0.215
3054,0.305,0.215
3055,0.295,0.205
3056,0.285,0.195
3057,0.285,0.195
3058,0.275,0.195
3059,0.265,0.185
3060,0.265,0.175
3061,0.255,0.175
3062,0.245,0.175
3063,0.235,0.165
3064,0.235,0.155
3065,0.225,0.145
3066,0.225,0.145
3067,0.205,0.135
3068,0.205,0.135
3069,0.195,0.125
3070,0.185,0.125
3071,0.175,0.115
3072,0.175,0.105
3073,0.165,0.095
3074,0.155,0.095
3075,0.145,0.085
3076,0.135,0.075
3077,0.125,0.075
3078,0.115,0.075
3079,0.105,0.065
3080,0.095,0.045
3081,0.075,0.035
3082,-0.515,-0.445
3083,-0.615,-0.605
3084,-0.545,-0.545
3085,-0.515,-0.515
3086,-0.515,-0.495
3087,-0.505,-0.495
3088,-0.505,-0.495
3089,-0.505,-0.485
3090,-0.505,-0.485
3091,-0.495,-0.475
3092,-0.495,-0.475
3093,-0.495,-0.475
3094,-0.495,-0.465
3095,-0.495,-0.465
3096,-0.475,-0.465
3097,-0.475,-0.455
3098,-0.475,-0.445
3099,-0.465,-0.445
3100,-0.465,-0.445
3101,-0.455,-0.435
3102,-0.455,-0.425
3103,-0.455,-0.425
3104,-0.445,-0.425
3105,-0.445,-0.415
3106,-0.435,-0.405
3107,-0.435,-0.405
3108,-0.425,-0.405
3109,-0.415,-0.395
3110,-0.415,-0.385
3111,-0.405,-0.385
3112,-0.405,-0.375
3113,-0.395,-0.375
3114,-0.395,-0.365
3115,-0.385,-0.365
3116,-0.375,-0.365
3117,-0.375,-0.355
3118,-0.365,-0.345
3119,-0.355,-0.345
3120,-0.355,-0.345
3121,-0.345,-0.335
3122,-0.335,-0.325
3123,-0.335,-0.325
3124,-0.325,-0.315
3125,-0.315,-0.315
3126,-0.315,-0.305
3127,-0.305,-0.295
3128,-0.295,-0.295
3129,-0.295,-0.295
3130,-0.285,-0.285
3131,-0.275,-0.275
3132,-0.275,-0.275
3133,-0.265,-0.265
3134,-0.255,-0.255
3135,-0.245,-0.255
3136,-0.235,-0.245
3137,-0.225,-0.245
3138,-0.215,-0.225
3139,-0.205,-0.225
3140,-0.195,-0.215
3141,-0.195,-0.215
3142,-0.185,-0.205
3143,-0.175,-0.195
3144,-0.165,-0.185
3145,-0.145,-0.185
3146,-0.175,-0.205
3147,0.565,0.465
3148,0.535,0.455
3149,0.475,0.395
3150,0.455,0.365
3151,0.445,0.365
3152,0.445,0.355
3153,0.455,0.345
3154,0.445,0.345
3155,0.435,0.345
3156,0.435,0.335
3157,0.435,0.335
3158,0.425,0.335
3159,0.425,0.325
3160,0.415,0.325
3161,0.415,0.315
3162,0.415,0.315
3163,0.405,0.305
3164,0.395,0.305
3165,0.395,0.295
3166,0.395,0.295
3167,0.385,0.285
3168,0.375,0.285
3169,0.375,0.265
3170,0.365,0.275
3171,0.365,0.265
3172,0.355,0.255
3173,0.345,0.255
3174,0.345,0.245
3175,0.335,0.235
3176,0.335,0.235
3177,0.325,0.225
3178,0.315,0.225
3179,0.315,0.215
3180,0.315,0.215
3181,0.305,0.205
3182,0.295,0.205
3183,0.285,0.195
3184,0.285,0.185
3185,0.275,0.185
3186,0.275,0.185
3187,0.265,0.175
3188,0.255,0.165
3189,0.245,0.165
3190,0.245,0.155
3191,0.235,0.155
3192,0.225,0.145
3193,0.225,0.135
3194,0.215,0.135
3195,0.205,0.125
3196,0.205,0.115
3197,0.185,0.115
3198,0.185,0.105
3199,0.175,0.095
3200,0.165,0.095
3201,0.155,0.085
3202,0.145,0.085
3203,0.135,0.075
3204,0.135,0.065
3205,0.125,0.055
3206,0.115,0.055
3207,0.105,0.045
3208,0.085,0.035
3209,0.075,0.035
3210,-0.535,-0.495
3211,-0.615,-0.625
3212,-0.555,-0.565
3213,-0.525,-0.525
3214,-0.515,-0.515
3215,-0.515,-0.505
3216,-0.515,-0.515
3217,-0.505,-0.505
3218,-0.505,-0.495
3219,-0.505,-0.495
3220,-0.495,-0.495
3221,-0.495,-0.495
3222,-0.485,-0.485
3223,-0.495,-0.485
3224,-0.485,-0.485
3225,-0.475,-0.475
3226,-0.475,-0.465
3227,-0.475,-0.465
3228,-0.465,-0.455
3229,-0.465,-0.455
3230,-0.455,-0.445
3231,-0.455,-0.435
3232,-0.445,-0.435
3233,-0.445,-0.435
3234,-0.435,-0.425
3235,-0.425,-0.415
3236,-0.425,-0.415
3237,-0.425,-0.415
3238,-0.415,-0.395
3239,-0.405,-0.395
3240,-0.395,-0.395
3241,-0.395,-0.385
3242,-0.385,-0.375
3243,-0.385,-0.375
3244,-0.375,-0.375
3245,-0.365,-0.365
3246,-0.365,-0.355
3247,-0.365,-0.355
3248,-0.355,-0.355
3249,-0.345,-0.345
3250,-0.335,-0.345
3251,-0.335,-0.335
3252,-0.325,-0.335
3253,-0.315,-0.325
3254,-0.315,-0.315
3255,-0.305,-0.315
3256,-0.295,-0.315
3257,-0.285,-0.305
3258,-0.285,-0.295
3259,-0.275,-0.285
3260,-0.265,-0.285
3261,-0.265,-0.285
3262,-0.255,-0.265
3263,-0.245,-0.265
3264,-0.235,-0.255
3265,-0.225,-0.255
3266,-0.215,-0.245
3267,-0.205,-0.235
3268,-0.195,-0.235
3269,-0.185,-0.225
3270,-0.175,-0.215
3271,-0.165,-0.215
3272,-0.155,-0.205
3273,-0.135,-0.195
3274,0.435,0.275
3275,0.555,0.455
3276,0.495,0.395
3277,0.455,0.355
3278,0.445,0.345
3279,0.445,0.335
3280,0.445,0.335
3281,0.445,0.335
3282,0.435,0.325
3283,0.435,0.325
3284,0.435,0.315
3285,0.425,0.315
3286,0.425,0.315
3287,0.425,0.305
3288,0.415,0.305
3289,0.415,0.295
3290,0.405,0.295
3291,0.395,0.285
3292,0.395,0.285
3293,0.395,0.275
3294,0.385,0.275
3295,0.385,0.265
3296,0.375,0.255
3297,0.375,0.255
3298,0.375,0.255
3299,0.365,0.245
3300,0.355,0.235
3301,0.345,0.235
3302,0.345,0.235
3303,0.335,0.225
3304,0.335,0.215
3305,0.325,0.205
3306,0.325,0.215
3307,0.315,0.205
3308,0.305,0.195
3309,0.305,0.195
3310,0.295,0.195
3311,0.295,0.185
3312,0.285,0.175
3313,0.275,0.165
3314,0.275,0.165
3315,0.265,0.165
3316,0.255,0.155
3317,0.255,0.145
3318,0.245,0.145
3319,0.235,0.145
3320,0.235,0.135
3321,0.225,0.125
3322,0.215,0.125
3323,0.205,0.115
3324,0.195,0.105
3325,0.195,0.105
3326,0.185,0.105
3327,0.175,0.095
3328,0.175,0.085
3329,0.155,0.075
3330,0.155,0.075
3331,0.145,0.075
3332,0.135,0.065
3333,0.125,0.055
3334,0.115,0.045
3335,0.105,0.045
3336,0.095,0.025
3337,0.075,0.015
3338,-0.275,-0.185
3339,-0.635,-0.645
3340,-0.575,-0.585
3341,-0.535,-0.535
3342,-0.515,-0.515
3343,-0.515,-0.515
3344,-0.515,-0.515
3345,-0.505,-0.515
3346,-0.505,-0.505
3347,-0.505,-0.495
3348,-0.505,-0.495
3349,-0.505,-0.495
3350,-0.495,-0.485
3351,-0.495,-0.485
3352,-0.485,-0.485
3353,-0.485,-0.475
3354,-0.485,-0.465
3355,-0.475,-0.465
3356,-0.475,-0.465
3357,-0.465,-0.455
3358,-0.465,-0.445
3359,-0.455,-0.445
3360,-0.455,-0.435
3361,-0.445,-0.435
3362,-0.445,-0.425
3363,-0.435,-0.415
3364,-0.425,-0.415
3365,-0.425,-0.415
3366,-0.415,-0.405
3367,-0.405,-0.405
3368,-0.405,-0.395
3369,-0.405,-0.395
3370,-0.395,-0.385
3371,-0.385,-0.375
3372,-0.385,-0.375
3373,-0.375,-0.375
3374,-0.365,-0.355
3375,-0.365,-0.355
3376,-0.355,-0.355
3377,-0.355,-0.355
3378,-0.345,-0.345
3379,-0.335,-0.335
3380,-0.325,-0.335
3381,-0.325,-0.335
3382,-0.315,-0.325
3383,-0.315,-0.315
3384,-0.305,-0.315
3385,-0.295,-0.305
3386,-0.285,-0.295
3387,-0.285,-0.295
3388,-0.275,-0.285
3389,-0.265,-0.285
3390,-0.255,-0.265
3391,-0.245,-0.265
3392,-0.245,-0.265
3393,-0.235,-0.255
3394,-0.225,-0.245
3395,-0.215,-0.245
3396,-0.205,-0.235
3397,-0.195,-0.225
3398,-0.185,-0.215
3399,-0.175,-0.215
3400,-0.165,-0.205
3401,-0.145,-0.195
3402,0.355,0.195
3403,0.545,0.465
3404,0.485,0.395
3405,0.455,0.365
3406,0.445,0.355
3407,0.435,0.345
3408,0.435,0.335
3409,0.425,0.335
3410,0.425,0.335
3411,0.425,0.335
3412,0.425,0.325
3413,0.415,0.325
3414,0.415,0.325
3415,0.405,0.315
3416,0.405,0.305
3417,0.405,0.305
3418,0.395,0.305
3419,0.385,0.295
3420,0.385,0.285
3421,0.375,0.285
3422,0.375,0.285
3423,0.365,0.275
3424,0.365,0.265
3425,0.365,0.265
3426,0.355,0.265
3427,0.345,0.255
3428,0.345,0.245
3429,0.335,0.245
3430,0.335,0.235
3431,0.325,0.235
3432,0.325,0.225
3433,0.315,0.215
3434,0.305,0.215
3435,0.305,0.215
3436,0.295,0.205
3437,0.285,0.195
3438,0.285,0.205
3439,0.275,0.195
3440,0.265,0.185
3441,0.265,0.175
3442,0.255,0.175
3443,0.245,0.175
3444,0.245,0.165
3445,0.235,0.165
3446,0.225,0.155
3447,0.225,0.155
3448,0.215,0.145
3449,0.215,0.135
3450,0.205,0.135
3451,0.195,0.125
3452,0.185,0.115
3453,0.175,0.115
3454,0.165,0.105
3455,0.165,0.095
3456,0.145,0.095
3457,0.135,0.085
3458,0.135,0.085
3459,0.125,0.075
3460,0.115,0.065
3461,0.105,0.055
3462,0.095,0.055
3463,0.075,0.045
3464,0.075,0.035
3465,0.055,0.025
3466,-0.525,-0.425
3467,-0.645,-0.625
3468,-0.575,-0.565
3469,-0.545,-0.525
3470,-0.535,-0.515
3471,-0.535,-0.515
3472,-0.525,-0.505
3473,-0.535,-0.505
3474,-0.525,-0.495
3475,-0.525,-0.495
3476,-0.515,-0.485
3477,-0.515,-0.485
3478,-0.515,-0.475
3479,-0.515,-0.475
3480,-0.505,-0.475
3481,-0.495,-0.465
3482,-0.495,-0.455
3483,-0.495,-0.455
3484,-0.485,-0.455
3485,-0.485,-0.445
3486,-0.475,-0.435
3487,-0.465,-0.435
3488,-0.465,-0.435
3489,-0.465,-0.425
3490,-0.455,-0.415
3491,-0.445,-0.415
3492,-0.445,-0.405
3493,-0.435,-0.405
3494,-0.435,-0.395
3495,-0.425,-0.385
3496,-0.425,-0.385
3497,-0.415,-0.375
3498,-0.405,-0.375
3499,-0.405,-0.365
3500,-0.395,-0.365
3501,-0.385,-0.355
3502,-0.385,-0.345
3503,-0.375,-0.345
3504,-0.365,-0.345
3505,-0.365,-0.335
3506,-0.355,-0.325
3507,-0.355,-0.325
3508,-0.345,-0.315
3509,-0.335,-0.315
3510,-0.325,-0.305
3511,-0.325,-0.305
3512,-0.315,-0.295
3513,-0.315,-0.295
3514,-0.305,-0.285
3515,-0.305,-0.285
3516,-0.295,-0.275
3517,-0.285,-0.265
3518,-0.275,-0.255
3519,-0.275,-0.255
3520,-0.265,-0.245
3521,-0.255,-0.245
3522,-0.245,-0.235
3523,-0.235,-0.225
3524,-0.235,-0.225
3525,-0.225,-0.215
3526,-0.205,-0.195
3527,-0.205,-0.195
3528,-0.185,-0.185
3529,-0.165,-0.175
3530,0.215,0.055
3531,0.545,0.485
3532,0.475,0.425
3533,0.435,0.385
3534,0.425,0.375
3535,0.415,0.365
3536,0.415,0.355
3537,0.415,0.355
3538,0.415,0.355
3539,0.405,0.345
3540,0.405,0.345
3541,0.405,0.335
3542,0.395,0.345
3543,0.395,0.335
3544,0.385,0.325
3545,0.385,0.325
3546,0.385,0.325
3547,0.375,0.315
3548,0.365,0.305
3549,0.365,0.305
3550,0.355,0.305
3551,0.355,0.295
3552,0.345,0.285
3553,0.345,0.285
3554,0.335,0.285
3555,0.325,0.275
3556,0.325,0.265
3557,0.315,0.265
3558,0.315,0.255
3559,0.305,0.255
3560,0.295,0.245
3561,0.295,0.235
3562,0.285,0.245
3563,0.285,0.235
3564,0.275,0.225
3565,0.265,0.225
3566,0.265,0.215
3567,0.255,0.215
3568,0.255,0.205
3569,0.245,0.195
3570,0.235,0.205
3571,0.225,0.195
3572,0.225,0.185
3573,0.215,0.185
3574,0.205,0.175
3575,0.195,0.175
3576,0.195,0.165
3577,0.185,0.155
3578,0.175,0.155
3579,0.175,0.145
3580,0.165,0.145
3581,0.155,0.135
3582,0.145,0.135
3583,0.135,0.125
3584,0.135,0.115
3585,0.125,0.105
3586,0.115,0.105
3587,0.105,0.095
3588,0.095,0.095
3589,0.085,0.085
3590,0.075,0.085
3591,0.065,0.075
3592,0.055,0.065
3593,0.035,0.055
3594,-0.555,-0.395
3595,-0.665,-0.595
3596,-0.595,-0.525
3597,-0.565,-0.495
3598,-0.565,-0.475
3599,-0.555,-0.475
3600,-0.555,-0.475
3601,-0.545,-0.465
3602,-0.545,-0.465
3603,-0.545,-0.465
3604,-0.545,-0.455
3605,-0.535,-0.455
3606,-0.535,-0.445
3607,-0.535,-0.445
3608,-0.525,-0.445
3609,-0.525,-0.435
3610,-0.525,-0.425
3611,-0.515,-0.425
3612,-0.515,-0.415
3613,-0.505,-0.405
3614,-0.505,-0.395
3615,-0.495,-0.405
3616,-0.485,-0.395
3617,-0.485,-0.395
3618,-0.485,-0.375
3619,-0.475,-0.375
3620,-0.465,-0.375
3621,-0.465,-0.365
3622,-0.455,-0.355
3623,-0.455,-0.355
3624,-0.455,-0.345
3625,-0.445,-0.335
3626,-0.445,-0.325
3627,-0.435,-0.325
3628,-0.425,-0.325
3629,-0.425,-0.315
3630,-0.415,-0.305
3631,-0.415,-0.305
3632,-0.405,-0.305
3633,-0.405,-0.295
3634,-0.395,-0.285
3635,-0.385,-0.275
3636,-0.385,-0.275
3637,-0.375,-0.275
3638,-0.375,-0.265
3639,-0.365,-0.255
3640,-0.355,-0.255
3641,-0.355,-0.245
3642,-0.345,-0.235
3643,-0.345,-0.235
3644,-0.345,-0.225
3645,-0.325,-0.215
3646,-0.325,-0.205
3647,-0.315,-0.205
3648,-0.305,-0.205
3649,-0.295,-0.195
3650,-0.295,-0.185
3651,-0.285,-0.175
3652,-0.275,-0.175
3653,-0.265,-0.165
3654,-0.255,-0.155
3655,-0.245,-0.145
3656,-0.235,-0.135
3657,-0.225,-0.125
3658,0.125,0.055
3659,0.495,0.535
3660,0.425,0.475
3661,0.375,0.435
3662,0.365,0.425
3663,0.365,0.415
3664,0.355,0.405
3665,0.355,0.405
3666,0.345,0.405
3667,0.345,0.395
3668,0.335,0.395
3669,0.335,0.385
3670,0.325,0.395
3671,0.315,0.385
3672,0.315,0.375
3673,0.305,0.375
3674,0.305,0.375
3675,0.295,0.365
3676,0.285,0.355
3677,0.275,0.355
3678,0.275,0.355
3679,0.265,0.345
3680,0.255,0.335
3681,0.255,0.335
3682,0.245,0.335
3683,0.235,0.335
3684,0.225,0.325
3685,0.225,0.315
3686,0.215,0.315
3687,0.205,0.315
3688,0.195,0.305
3689,0.185,0.295
3690,0.175,0.295
3691,0.175,0.295
3692,0.165,0.285
3693,0.155,0.285
3694,0.145,0.285
3695,0.145,0.275
3696,0.135,0.275
3697,0.125,0.265
3698,0.115,0.265
3699,0.105,0.265
3700,0.095,0.255
3701,0.095,0.255
3702,0.075,0.255
3703,0.065,0.245
3704,0.065,0.235
3705,0.055,0.235
3706,0.045,0.235
3707,0.035,0.225
3708,0.025,0.215
3709,0.015,0.215
3710,0.005,0.205
3711,-0.005,0.205
3712,-0.015,0.195
3713,-0.025,0.195
3714,-0.045,0.195
3715,-0.055,0.185
3716,-0.065,0.175
3717,-0.075,0.175
3718,-0.095,0.175
3719,-0.105,0.165
3720,-0.125,0.145
3721,-0.145,0.135
3722,-0.685,-0.285
3723,-0.845,-0.495
3724,-0.775,-0.435
3725,-0.755,-0.405
3726,-0.755,-0.375
3727,-0.745,-0.375
3728,-0.745,-0.375
3729,-0.755,-0.365
3730,-0.755,-0.355
3731,-0.755,-0.355
3732,-0.745,-0.355
3733,-0.745,-0.345
3734,-0.745,-0.335
3735,-0.745,-0.335
3736,-0.745,-0.335
3737,-0.745,-0.325
3738,-0.745,-0.315
3739,-0.745,-0.305
3740,-0.745,-0.305
3741,-0.745,-0.295
3742,-0.735,-0.285
3743,-0.735,-0.275
3744,-0.735,-0.275
3745,-0.735,-0.265
3746,-0.735,-0.255
3747,-0.725,-0.245
3748,-0.735,-0.245
3749,-0.725,-0.235
3750,-0.725,-0.225
3751,-0.725,-0.215
3752,-0.725,-0.215
3753,-0.725,-0.205
3754,-0.725,-0.185
3755,-0.715,-0.185
3756,-0.715,-0.175
3757,-0.715,-0.175
3758,-0.715,-0.155
3759,-0.715,-0.155
3760,-0.705,-0.145
3761,-0.715,-0.135
3762,-0.705,-0.125
3763,-0.705,-0.125
3764,-0.695,-0.115
3765,-0.695,-0.105
3766,-0.695,-0.095
3767,-0.695,-0.095
3768,-0.685,-0.095
3769,-0.675,-0.085
3770,-0.665,-0.075
3771,-0.665,-0.075
3772,-0.655,-0.075
3773,-0.645,-0.065
3774,-0.635,-0.065
3775,-0.625,-0.065
3776,-0.615,-0.055
3777,-0.605,-0.055
3778,-0.595,-0.045
3779,-0.585,-0.045
3780,-0.565,-0.045
3781,-0.555,-0.045
3782,-0.545,-0.045
3783,-0.535,-0.035
3784,-0.515,-0.035
3785,-0.545,-0.045
3786,0.155,0.525
3787,0.185,0.605
3788,0.125,0.535
3789,0.095,0.505
3790,0.095,0.495
3791,0.095,0.475
3792,0.095,0.475
3793,0.095,0.465
3794,0.095,0.455
3795,0.095,0.455
3796,0.095,0.445
3797,0.095,0.435
3798,0.095,0.435
3799,0.085,0.425
3800,0.095,0.415
3801,0.095,0.415
3802,0.095,0.405
3803,0.085,0.395
3804,0.085,0.395
3805,0.085,0.385
3806,0.095,0.385
3807,0.095,0.375
3808,0.085,0.365
3809,0.095,0.365
3810,0.095,0.365
3811,0.095,0.355
3812,0.095,0.345
3813,0.085,0.335
3814,0.085,0.335
3815,0.085,0.335
3816,0.085,0.325
3817,0.085,0.315
3818,0.085,0.315
3819,0.085,0.315
3820,0.085,0.305
3821,0.085,0.295
3822,0.085,0.295
3823,0.075,0.285
3824,0.085,0.285
3825,0.075,0.275
3826,0.075,0.275
3827,0.075,0.265
3828,0.065,0.255
3829,0.075,0.255
3830,0.065,0.245
3831,0.065,0.245
3832,0.065,0.235
3833,0.065,0.225
3834,0.065,0.225
3835,0.055,0.215
3836,0.055,0.205
3837,0.055,0.195
3838,0.045,0.195
3839,0.035,0.195
3840,0.035,0.185
3841,0.035,0.175
3842,0.035,0.175
3843,0.025,0.165
3844,0.015,0.155
3845,0.015,0.145
3846,0.005,0.145
3847,0.005,0.135
3848,-0.005,0.125
3849,-0.025,0.115
3850,-0.355,-0.055
3851,-0.725,-0.545
3852,-0.655,-0.495
3853,-0.615,-0.445
3854,-0.595,-0.425
3855,-0.595,-0.425
3856,-0.585,-0.425
3857,-0.575,-0.415
3858,-0.575,-0.415
3859,-0.565,-0.405
3860,-0.565,-0.405
3861,-0.555,-0.405
3862,-0.545,-0.395
3863,-0.545,-0.395
3864,-0.535,-0.395
3865,-0.535,-0.385
3866,-0.525,-0.375
3867,-0.515,-0.375
3868,-0.515,-0.375
3869,-0.505,-0.375
3870,-0.495,-0.375
3871,-0.495,-0.365
3872,-0.485,-0.365
3873,-0.485,-0.365
3874,-0.475,-0.355
3875,-0.475,-0.355
3876,-0.465,-0.355
3877,-0.455,-0.355
3878,-0.455,-0.345
3879,-0.455,-0.345
3880,-0.445,-0.345
3881,-0.445,-0.345
3882,-0.435,-0.335
3883,-0.435,-0.335
3884,-0.425,-0.335
3885,-0.415,-0.325
3886,-0.415,-0.325
3887,-0.405,-0.315
3888,-0.405,-0.315
3889,-0.395,-0.315
3890,-0.385,-0.305
3891,-0.385,-0.305
3892,-0.375,-0.305
3893,-0.365,-0.295
3894,-0.365,-0.285
3895,-0.355,-0.285
3896,-0.345,-0.285
3897,-0.345,-0.275
3898,-0.335,-0.265
3899,-0.335,-0.265
3900,-0.325,-0.265
3901,-0.315,-0.255
3902,-0.305,-0.245
3903,-0.295,-0.245
3904,-0.285,-0.245
3905,-0.285,-0.235
3906,-0.275,-0.225
3907,-0.265,-0.225
3908,-0.255,-0.225
3909,-0.245,-0.215
3910,-0.235,-0.215
3911,-0.225,-0.205
3912,-0.215,-0.195
3913,-0.205,-0.185
3914,0.365,0.235
3915,0.495,0.465
3916,0.435,0.385
3917,0.405,0.355
3918,0.385,0.345
3919,0.385,0.335
3920,0.385,0.325
3921,0.375,0.325
3922,0.375,0.325
3923,0.375,0.315
3924,0.365,0.305
3925,0.365,0.305
3926,0.365,0.305
3927,0.365,0.295
3928,0.355,0.285
3929,0.355,0.285
3930,0.355,0.285
3931,0.345,0.275
3932,0.345,0.265
3933,0.345,0.265
3934,0.345,0.265
3935,0.335,0.255
3936,0.335,0.245
3937,0.335,0.245
3938,0.335,0.245
3939,0.325,0.235
3940,0.325,0.225
3941,0.325,0.225
3942,0.325,0.225
3943,0.315,0.215
3944,0.305,0.215
3945,0.305,0.205
3946,0.305,0.205
3947,0.295,0.195
3948,0.295,0.195
3949,0.295,0.185
3950,0.295,0.185
3951,0.295,0.175
3952,0.285,0.175
3953,0.285,0.165
3954,0.285,0.165
3955,0.285,0.155
3956,0.275,0.155
3957,0.275,0.145
3958,0.275,0.145
3959,0.265,0.135
3960,0.255,0.135
3961,0.255,0.125
3962,0.255,0.125
3963,0.245,0.125
3964,0.235,0.115
3965,0.235,0.105
3966,0.235,0.105
3967,0.225,0.095
3968,0.215,0.095
3969,0.215,0.085
3970,0.205,0.085
3971,0.205,0.075
3972,0.195,0.075
3973,0.185,0.065
3974,0.185,0.065
3975,0.165,0.055
3976,0.155,0.045
3977,0.145,0.035
3978,-0.365,-0.325
3979,-0.565,-0.615
3980,-0.485,-0.545
3981,-0.455,-0.505
3982,-0.435,-0.485
3983,-0.435,-0.485
3984,-0.425,-0.475
3985,-0.425,-0.475
3986,-0.415,-0.465
3987,-0.415,-0.465
3988,-0.405,-0.455
3989,-0.405,-0.455
3990,-0.395,-0.445
3991,-0.395,-0.445
3992,-0.385,-0.435
3993,-0.385,-0.435
3994,-0.375,-0.425
3995,-0.375,-0.425
3996,-0.375,-0.425
3997,-0.365,-0.415
3998,-0.365,-0.405
3999,-0.365,-0.405
4000,-0.355,-0.405
4001,-0.355,-0.395
4002,-0.345,-0.395
4003,-0.345,-0.395
4004,-0.335,-0.395
4005,-0.335,-0.385
4006,-0.325,-0.375
4007,-0.325,-0.375
4008,-0.325,-0.375
4009,-0.315,-0.375
4010,-0.315,-0.365
4011,-0.305,-0.365
4012,-0.305,-0.355
4013,-0.295,-0.355
4014,-0.295,-0.345
4015,-0.285,-0.345
4016,-0.275,-0.345
4017,-0.275,-0.345
4018,-0.265,-0.335
4019,-0.265,-0.335
4020,-0.255,-0.325
4021,-0.255,-0.325
4022,-0.245,-0.315
4023,-0.245,-0.315
4024,-0.235,-0.315
4025,-0.235,-0.315
4026,-0.225,-0.295
4027,-0.225,-0.295
4028,-0.215,-0.295
4029,-0.205,-0.295
4030,-0.195,-0.275
4031,-0.195,-0.275
4032,-0.185,-0.275
4033,-0.175,-0.275
4034,-0.165,-0.265
4035,-0.155,-0.265
4036,-0.155,-0.255
4037,-0.145,-0.265
4038,-0.135,-0.255
4039,-0.125,-0.245
4040,-0.115,-0.245
4041,-0.095,-0.235
4042,0.315,0.005
4043,0.625,0.425
4044,0.555,0.355
4045,0.515,0.315
4046,0.505,0.305
4047,0.495,0.295
4048,0.495,0.285
4049,0.495,0.285
4050,0.485,0.285
4051,0.485,0.275
4052,0.485,0.265
4053,0.485,0.265
4054,0.485,0.265
4055,0.475,0.255
4056,0.475,0.255
4057,0.475,0.245
4058,0.475,0.245
4059,0.465,0.245
4060,0.465,0.235
4061,0.465,0.235
4062,0.465,0.235
4063,0.465,0.225
4064,0.465,0.215
4065,0.465,0.215
4066,0.465,0.215
4067,0.455,0.205
4068,0.455,0.205
4069,0.455,0.195
4070,0.455,0.195
4071,0.465,0.195
4072,0.465,0.195
4073,0.475,0.185
4074,0.495,0.175
4075,0.535,0.195
4076,1.775,-1.335
4077,1.685,-1.270
4078,1.605,-1.150
4079,1.565,-1.120
4080,1.555,-1.110
4081,1.535,-1.110
4082,1.515,-1.080
4083,1.535,-1.085
4084,1.505,-1.105
4085,1.515,-1.075
4086,1.465,-1.015
4087,1.535,-0.840
4088,1.695,-0.710
4089,1.745,-1.110
4090,1.725,-1.195
4091,1.545,-1.225
4092,1.125,-1.205
4093,1.345,-1.085
4094,1.435,-1.010
4095,1.405,-0.940
4096,1.395,-0.950
4097,1.355,-0.910
4098,1.365,-0.845
4099,1.315,-0.925
4100,1.335,-1.015
4101,1.325,-0.925
4102,1.305,-0.895
4103,1.315,-0.860
4104,1.275,-0.860
4105,1.275,-0.850
4106,1.265,-0.830
4107,1.265,-0.805
4108,1.255,-0.785
4109,1.235,-0.685
4110,1.225,-0.675
4111,1.255,-0.790
4112,1.255,-0.760
4113,1.265,-0.670
4114,1.295,-0.620
4115,1.315,-0.585
4116,1.295,-0.525
4117,1.155,-0.445
4118,1.205,-0.495
4119,1.235,-0.630
4120,1.235,-0.560
4121,1.215,-0.550
4122,1.185,-0.560
4123,1.145,-0.595
4124,1.125,-0.625
4125,1.055,-0.665
4126,0.975,-0.705
4127,0.955,-0.710
4128,0.925,-0.710
4129,0.895,-0.750
4130,0.855,-0.730
4131,0.825,-0.645
4132,0.845,-0.665
4133,0.775,-0.845
4134,0.785,-0.735
4135,0.785,-0.710
4136,0.755,-0.690
4137,0.745,-0.680
4138,0.735,-0.660
4139,0.775,-0.655
4140,0.725,-0.625
4141,0.685,-0.485
4142,0.685,-0.695
4143,0.675,-0.700
4144,0.675,-0.610
4145,0.685,-0.610
4146,0.645,-0.610
4147,0.635,-0.595
4148,0.725,-0.595
4149,0.625,-0.555
4150,0.525,-0.525
4151,0.545,-0.610
4152,0.555,-0.590
4153,0.605,-0.530
4154,0.655,-0.480
4155,0.645,-0.455
4156,0.635,-0.435
4157,0.675,-0.405
4158,0.655,-0.435
4159,0.625,-0.500
4160,0.565,-0.490
4161,0.535,-0.470
4162,0.475,-0.490
4163,0.435,-0.495
4164,0.385,-0.505
4165,0.385,-0.505
4166,0.375,-0.485
4167,0.335,-0.480
4168,0.315,-0.480
4169,0.335,-0.470
4170,0.335,-0.430
4171,0.255,-0.295
4172,0.475,-0.065
4173,1.035,0.105
4174,1.435,-0.425
4175,1.385,-0.775
4176,0.635,-0.945
4177,-0.275,-0.925
4178,0.035,-0.585
4179,0.265,-0.385
4180,0.255,-0.325
4181,0.245,-0.305
4182,0.255,-0.295
4183,0.215,-0.295
4184,0.215,-0.285
4185,0.225,-0.275
4186,0.245,-0.255
4187,0.195,-0.265
4188,0.235,-0.225
4189,0.245,-0.235
4190,0.305,-0.175
4191,0.205,-0.215
4192,0.255,-0.215
4193,0.275,-0.175
4194,0.275,-0.135
4195,0.245,-0.105
4196,0.285,-0.085
4197,0.335,-0.045
4198,0.365,-0.005
4199,0.345,0.095
4200,0.395,0.035
4201,0.405,0.025
4202,0.445,0.055
4203,0.455,0.065
4204,0.445,0.045
4205,0.415,0.035
4206,0.405,0.015
4207,0.365,-0.025
4208,0.345,-0.075
4209,0.375,-0.125
4210,0.305,-0.175
4211,0.155,-0.175
4212,0.135,-0.215
4213,0.155,-0.235
4214,0.135,-0.235
4215,0.105,-0.255
4216,0.135,-0.255
4217,0.145,-0.235
4218,0.135,-0.225
4219,0.105,-0.175
4220,0.105,-0.245
4221,0.085,-0.255
4222,0.095,-0.265
4223,0.105,-0.225
4224,0.095,-0.215
4225,0.105,-0.205
4226,0.105,-0.185
4227,0.085,-0.205
4228,0.095,-0.235
4229,0.095,-0.215
4230,0.075,-0.205
4231,0.085,-0.215
4232,0.075,-0.195
4233,0.075,-0.205
4234,0.055,-0.245
4235,0.045,-0.205
4236,0.045,-0.235
4237,0.085,-0.215
4238,0.155,-0.135
4239,0.105,-0.135
4240,0.135,-0.135
4241,0.195,-0.105
4242,0.185,-0.125
4243,0.155,-0.075
4244,0.065,-0.225
4245,0.045,-0.235
4246,-0.015,-0.245
4247,-0.055,-0.245
4248,-0.095,-0.255
4249,-0.115,-0.265
4250,-0.095,-0.245
4251,-0.105,-0.245
4252,-0.085,-0.155
4253,-0.105,-0.275
4254,-0.145,-0.295
4255,-0.225,-0.155
4256,-0.025,0.125
4257,0.575,0.265
4258,1.155,-0.325
4259,1.175,-0.685
4260,0.385,-0.825
4261,-0.715,-0.865
4262,-0.465,-0.525
4263,-0.145,-0.245
4264,-0.135,-0.155
4265,-0.175,-0.135
4266,-0.175,-0.165
4267,-0.185,-0.135
4268,-0.155,-0.155
4269,-0.185,-0.155
4270,-0.185,-0.015
4271,-0.205,-0.145
4272,-0.155,-0.225
4273,-0.145,-0.155
4274,-0.135,-0.105
4275,-0.135,-0.085
4276,-0.095,-0.055
4277,-0.115,-0.055
4278,-0.115,-0.035
4279,-0.075,-0.015
4280,-0.035,0.035
4281,0.005,0.115
4282,-0.015,0.035
4283,0.025,0.105
4284,0.055,0.145
4285,0.055,0.315
4286,0.115,0.125
4287,0.095,0.095
4288,0.085,0.165
4289,0.095,0.115
4290,0.085,0.105
4291,0.065,0.065
4292,0.035,0.015
4293,-0.025,-0.045
4294,-0.045,-0.085
4295,-0.065,-0.075
4296,-0.095,-0.125
4297,-0.105,-0.145
4298,-0.135,-0.185
4299,-0.145,-0.175
4300,-0.125,-0.185
4301,-0.165,-0.185
4302,-0.165,-0.165
4303,-0.145,-0.145
4304,-0.145,-0.155
4305,-0.145,-0.155
4306,-0.135,-0.135
4307,-0.135,-0.125
4308,-0.125,-0.125
4309,-0.105,-0.115
4310,-0.125,-0.115
4311,-0.115,-0.125
4312,-0.105,-0.115
4313,-0.085,-0.115
4314,-0.115,-0.115
4315,-0.105,-0.105
4316,-0.095,-0.105
4317,-0.105,-0.105
4318,-0.115,-0.095
4319,-0.095,-0.105
4320,-0.085,-0.085
4321,-0.015,0.005
4322,-0.005,-0.015
4323,-0.015,-0.045
4324,0.065,0.025
4325,0.105,-0.035
4326,0.035,-0.065
4327,-0.005,-0.065
4328,-0.025,-0.065
4329,-0.075,-0.075
4330,-0.125,-0.105
4331,-0.165,-0.125
4332,-0.175,-0.125
4333,-0.175,-0.125
4334,-0.215,-0.145
4335,-0.195,-0.135
4336,-0.195,-0.125
4337,-0.185,-0.125
4338,-0.235,-0.075
4339,-0.275,0.095
4340,-0.035,0.315
4341,0.575,0.305
4342,1.135,-0.265
4343,1.105,-0.545
4344,0.275,-0.855
4345,-0.735,-0.785
4346,-0.435,-0.335
4347,-0.185,-0.045
4348,-0.195,-0.015
4349,-0.225,-0.045
4350,-0.215,-0.035
4351,-0.215,-0.035
4352,-0.215,-0.035
4353,-0.215,-0.025
4354,-0.205,-0.015
4355,-0.195,-0.005
4356,-0.215,-0.015
4357,-0.205,0.035
4358,-0.165,0.035
4359,-0.205,-0.005
4360,-0.175,0.145
4361,-0.145,0.105
4362,-0.115,-0.045
4363,-0.115,0.065
4364,-0.095,0.135
4365,-0.055,0.175
4366,-0.045,0.195
4367,-0.015,0.235
4368,-0.005,0.265
4369,-0.005,0.215
4370,0.025,0.235
4371,0.005,0.225
4372,0.015,0.215
4373,-0.025,0.175
4374,-0.045,0.125
4375,-0.065,0.075
4376,-0.115,0.035
4377,-0.125,0.025
4378,-0.175,-0.065
4379,-0.225,-0.095
4380,-0.235,-0.045
4381,-0.265,0.025
4382,-0.245,-0.195
4383,-0.255,-0.185
4384,-0.265,-0.135
4385,-0.275,-0.085
4386,-0.285,-0.065
4387,-0.265,-0.065
4388,-0.285,-0.045
4389,-0.285,-0.045
4390,-0.295,-0.015
4391,-0.285,-0.075
4392,-0.315,-0.055
4393,-0.315,-0.025
4394,-0.305,-0.015
4395,-0.285,-0.005
4396,-0.325,0.005
4397,-0.345,0.075
4398,-0.355,0.055
4399,-0.345,-0.075
4400,-0.355,-0.065
4401,-0.365,-0.035
4402,-0.355,-0.035
4403,-0.355,0.005
4404,-0.285,0.065
4405,-0.275,0.095
4406,-0.275,0.105
4407,-0.245,0.125
4408,-0.225,0.105
4409,-0.295,0.065
4410,-0.315,0.095
4411,-0.345,0.115
4412,-0.415,0.005
4413,-0.465,0.045
4414,-0.495,-0.115
4415,-0.515,-0.055
4416,-0.515,-0.015
4417,-0.505,-0.015
4418,-0.535,-0.005
4419,-0.525,-0.005
4420,-0.555,0.015
4421,-0.645,0.105
4422,-0.575,0.245
4423,-0.085,0.495
4424,0.635,0.175
4425,0.885,-0.445
4426,0.275,-0.565
4427,-0.945,-0.685
4428,-0.995,-0.375
4429,-0.595,0.005
4430,-0.535,0.115
4431,-0.565,0.095
4432,-0.575,0.095
4433,-0.565,0.085
4434,-0.595,0.095
4435,-0.575,0.115
4436,-0.555,0.115
4437,-0.545,0.125
4438,-0.555,0.135
4439,-0.545,0.145
4440,-0.525,0.155
4441,-0.495,0.165
4442,-0.515,0.175
4443,-0.485,0.185
4444,-0.485,0.205
4445,-0.455,0.225
4446,-0.415,0.265
4447,-0.435,0.275
4448,-0.375,0.305
4449,-0.335,0.335
4450,-0.355,0.345
4451,-0.315,0.385
4452,-0.295,0.385
4453,-0.305,0.375
4454,-0.295,0.355
4455,-0.315,0.345
4456,-0.305,0.335
4457,-0.305,0.275
4458,-0.355,0.235
4459,-0.385,0.185
4460,-0.405,0.135
4461,-0.455,0.095
4462,-0.455,0.095
4463,-0.475,0.075
4464,-0.495,0.055
4465,-0.505,0.055
4466,-0.515,0.075
4467,-0.485,0.075
4468,-0.495,0.075
4469,-0.485,0.065
4470,-0.485,0.075
4471,-0.495,0.065
4472,-0.485,0.075
4473,-0.475,0.075
4474,-0.465,0.085
4475,-0.465,0.075
4476,-0.465,0.065
4477,-0.455,0.075
4478,-0.445,0.075
4479,-0.445,0.075
4480,-0.445,0.065
4481,-0.435,0.065
4482,-0.455,0.065
4483,-0.465,0.065
4484,-0.455,0.045
4485,-0.455,0.055
4486,-0.405,0.085
4487,-0.345,0.125
4488,-0.385,0.115
4489,-0.305,0.145
4490,-0.275,0.155
4491,-0.305,0.115
4492,-0.305,0.075
4493,-0.355,0.055
4494,-0.385,0.065
4495,-0.435,0.035
4496,-0.475,0.015
4497,-0.505,0.005
4498,-0.505,-0.005
4499,-0.505,-0.005
4500,-0.505,-0.005
4501,-0.485,-0.015
4502,-0.475,-0.005
4503,-0.535,0.015
4504,-0.595,0.115
4505,-0.345,0.315
4506,0.305,0.505
4507,0.905,0.035
4508,0.815,-0.325
4509,-0.145,-0.575
4510,-1.065,-0.625
4511,-0.815,-0.325
4512,-0.475,-0.015
4513,-0.435,0.065
4514,-0.465,0.045
4515,-0.475,0.035
4516,-0.465,0.035
4517,-0.465,0.035
4518,-0.475,0.045
4519,-0.445,0.055
4520,-0.415,0.055
4521,-0.435,0.065
4522,-0.405,0.075
4523,-0.395,0.085
4524,-0.395,0.075
4525,-0.365,0.105
4526,-0.345,0.125
4527,-0.325,0.125
4528,-0.295,0.135
4529,-0.265,0.165
4530,-0.265,0.195
4531,-0.235,0.205
4532,-0.215,0.225
4533,-0.175,0.245
4534,-0.155,0.265
4535,-0.145,0.275
4536,-0.165,0.275
4537,-0.175,0.275
4538,-0.155,0.255
4539,-0.105,0.245
4540,-0.185,0.175
4541,-0.215,0.125
4542,-0.225,0.085
4543,-0.235,0.065
4544,-0.275,0.035
4545,-0.305,0.005
4546,-0.335,-0.005
4547,-0.335,-0.005
4548,-0.345,-0.015
4549,-0.355,-0.015
4550,-0.345,-0.005
4551,-0.335,-0.005
4552,-0.365,-0.015
4553,-0.335,-0.015
4554,-0.305,0.015
4555,-0.295,-0.005
4556,-0.275,-0.005
4557,-0.295,-0.005
4558,-0.265,0.005
4559,-0.285,0.005
4560,-0.265,-0.005
4561,-0.285,-0.005
4562,-0.245,-0.005
4563,-0.255,-0.005
4564,-0.255,-0.005
4565,-0.285,-0.025
4566,-0.255,-0.005
4567,-0.215,0.025
4568,-0.175,0.055
4569,-0.205,0.055
4570,-0.135,0.085
4571,-0.105,0.085
4572,-0.125,0.045
4573,-0.145,0.015
4574,-0.185,0.005
4575,-0.195,0.005
4576,-0.275,-0.035
4577,-0.315,-0.065
4578,-0.325,-0.065
4579,-0.325,-0.065
4580,-0.325,-0.075
4581,-0.295,-0.075
4582,-0.295,-0.065
4583,-0.305,-0.075
4584,-0.345,-0.065
4585,-0.425,0.025
4586,-0.245,0.235
4587,0.315,0.445
4588,0.935,0.015
4589,1.005,-0.445
4590,0.165,-0.665
4591,-0.835,-0.735
4592,-0.535,-0.305
4593,-0.315,-0.045
4594,-0.245,0.025
4595,-0.265,0.005
4596,-0.325,-0.045
4597,-0.315,-0.025
4598,-0.315,-0.015
4599,-0.325,-0.015
4600,-0.305,-0.005
4601,-0.295,-0.005
4602,-0.265,0.015
4603,-0.225,0.025
4604,-0.275,0.015
4605,-0.255,0.025
4606,-0.225,0.045
4607,-0.185,0.065
4608,-0.165,0.085
4609,-0.135,0.085
4610,-0.135,0.115
4611,-0.135,0.135
4612,-0.115,0.175
4613,-0.115,0.265
4614,-0.055,0.235
4615,-0.025,0.175
4616,-0.025,0.205
4617,-0.025,0.225
4618,-0.025,0.215
4619,-0.025,0.205
4620,-0.035,0.175
4621,-0.065,0.125
4622,-0.065,0.085
4623,-0.075,0.055
4624,-0.115,0.005
4625,-0.125,-0.025
4626,-0.145,-0.045
4627,-0.175,-0.065
4628,-0.185,-0.085
4629,-0.195,-0.085
4630,-0.195,-0.085
4631,-0.205,-0.085
4632,-0.215,-0.085
4633,-0.195,-0.085
4634,-0.175,-0.065
4635,-0.175,-0.075
4636,-0.175,-0.065
4637,-0.155,-0.065
4638,-0.155,-0.065
4639,-0.135,-0.055
4640,-0.145,-0.065
4641,-0.135,-0.065
4642,-0.125,-0.065
4643,-0.105,-0.065
4644,-0.105,-0.065
4645,-0.135,-0.075
4646,-0.115,-0.065
4647,-0.095,-0.055
4648,-0.005,-0.005
4649,-0.005,0.015
4650,-0.005,0.015
4651,0.065,0.045
4652,0.065,0.025
4653,0.025,-0.025
4654,-0.045,-0.045
4655,-0.085,-0.045
4656,-0.145,-0.075
4657,-0.175,-0.115
4658,-0.175,-0.125
4659,-0.205,-0.085
4660,-0.185,-0.165
4661,-0.195,-0.145
4662,-0.215,-0.135
4663,-0.195,-0.125
4664,-0.255,-0.115
4665,-0.365,-0.025
4666,-0.155,0.215
4667,0.445,0.385
4668,1.135,-0.135
4669,1.205,-0.555
4670,0.455,-0.745
4671,-0.795,-0.825
4672,-0.525,-0.405
4673,-0.215,-0.045
4674,-0.195,-0.055
4675,-0.235,-0.095
4676,-0.235,-0.085
4677,-0.225,-0.075
4678,-0.225,-0.065
4679,-0.215,-0.065
4680,-0.205,-0.065
4681,-0.195,-0.055
4682,-0.185,-0.045
4683,-0.165,-0.035
4684,-0.175,-0.025
4685,-0.185,-0.015
4686,-0.185,-0.005
4687,-0.145,0.015
4688,-0.125,0.035
4689,-0.095,0.065
4690,-0.075,0.085
4691,-0.045,0.115
4692,-0.025,0.135
4693,0.005,0.165
4694,0.025,0.185
4695,0.045,0.195
4696,0.065,0.195
4697,0.055,0.205
4698,0.045,0.195
4699,0.045,0.175
4700,0.025,0.125
4701,0.045,0.095
4702,0.025,0.055
4703,0.005,0.005
4704,-0.015,-0.035
4705,-0.075,-0.075
4706,-0.095,-0.085
4707,-0.105,-0.095
4708,-0.125,-0.105
4709,-0.155,-0.155
4710,-0.155,-0.135
4711,-0.155,-0.135
4712,-0.165,-0.125
4713,-0.145,-0.125
4714,-0.135,-0.115
4715,-0.145,-0.105
4716,-0.125,-0.115
4717,-0.115,-0.115
4718,-0.095,-0.095
4719,-0.085,-0.105
4720,-0.075,-0.105
4721,-0.125,-0.125
4722,-0.115,-0.115
4723,-0.075,-0.095
4724,-0.115,-0.115
4725,-0.095,-0.125
4726,-0.075,-0.125
4727,-0.085,-0.125
4728,-0.045,-0.095
4729,-0.015,-0.055
4730,-0.025,-0.055
4731,0.015,-0.035
4732,0.065,-0.015
4733,0.065,-0.035
4734,0.025,-0.065
4735,-0.025,-0.095
4736,-0.035,-0.085
4737,-0.075,-0.115
4738,-0.135,-0.145
4739,-0.165,-0.155
4740,-0.175,-0.165
4741,-0.175,-0.165
4742,-0.175,-0.145
4743,-0.185,-0.115
4744,-0.175,-0.145
4745,-0.195,-0.155
4746,-0.325,-0.095
4747,-0.095,0.155
4748,0.525,0.315
4749,1.175,-0.185
4750,1.105,-0.525
4751,0.095,-0.795
4752,-0.805,-0.765
4753,-0.405,-0.375
4754,-0.155,-0.115
4755,-0.155,-0.075
4756,-0.185,-0.105
4757,-0.175,-0.105
4758,-0.185,-0.095
4759,-0.195,-0.105
4760,-0.165,-0.075
4761,-0.185,-0.065
4762,-0.175,-0.095
4763,-0.155,-0.105
4764,-0.125,-0.075
4765,-0.135,-0.065
4766,-0.105,-0.045
4767,-0.105,-0.035
4768,-0.075,-0.025
4769,-0.085,-0.005
4770,-0.055,0.015
4771,-0.045,0.045
4772,-0.035,0.065
4773,-0.015,0.095
4774,-0.005,0.125
4775,0.025,0.135
4776,0.035,0.155
4777,0.055,0.155
4778,0.055,0.145
4779,0.055,0.145
4780,0.055,0.125
4781,0.035,0.085
4782,0.025,0.045
4783,0.015,0.005
4784,0.015,-0.035
4785,-0.035,-0.075
4786,-0.095,-0.105
4787,-0.075,-0.085
4788,-0.105,-0.145
4789,-0.145,-0.175
4790,-0.135,-0.145
4791,-0.135,-0.145
4792,-0.135,-0.145
4793,-0.135,-0.135
4794,-0.115,-0.125
4795,-0.115,-0.105
4796,-0.115,-0.075
4797,-0.115,-0.005
4798,-0.115,-0.135
4799,-0.075,-0.175
4800,-0.065,-0.195
4801,-0.045,-0.155
4802,-0.055,-0.135
4803,-0.095,-0.145
4804,-0.075,-0.145
4805,-0.075,-0.145
4806,-0.085,-0.135
4807,-0.085,-0.145
4808,-0.075,-0.145
4809,-0.025,-0.115
4810,0.035,-0.065
4811,0.015,-0.055
4812,0.065,-0.045
4813,0.115,-0.025
4814,0.095,-0.055
4815,0.065,-0.085
4816,0.015,-0.115
4817,-0.005,-0.105
4818,-0.085,-0.135
4819,-0.135,-0.165
4820,-0.145,-0.175
4821,-0.155,-0.185
4822,-0.155,-0.175
4823,-0.165,-0.175
4824,-0.165,-0.185
4825,-0.165,-0.175
4826,-0.195,-0.135
4827,-0.285,-0.035
4828,-0.005,0.205
4829,0.595,0.315
4830,1.225,-0.245
4831,1.165,-0.635
4832,0.235,-0.845
4833,-0.755,-0.805
4834,-0.375,-0.365
4835,-0.145,-0.105
4836,-0.155,-0.085
4837,-0.175,-0.095
4838,-0.175,-0.095
4839,-0.175,-0.075
4840,-0.185,-0.055
4841,-0.175,0.015
4842,-0.155,-0.085
4843,-0.155,-0.165
4844,-0.145,-0.105
4845,-0.155,-0.065
4846,-0.125,-0.035
4847,-0.105,-0.035
4848,-0.115,-0.025
4849,-0.095,-0.005
4850,-0.065,0.015
4851,-0.075,0.035
4852,-0.035,0.055
4853,-0.015,0.085
4854,0.025,0.125
4855,0.025,0.145
4856,0.055,0.155
4857,0.085,0.175
4858,0.065,0.185
4859,0.075,0.185
4860,0.075,0.165
4861,0.085,0.145
4862,0.085,0.115
4863,0.065,0.065
4864,0.035,0.025
4865,0.005,-0.005
4866,-0.005,-0.045
4867,-0.035,-0.135
4868,-0.055,-0.135
4869,-0.075,-0.125
4870,-0.075,-0.145
4871,-0.095,-0.145
4872,-0.115,-0.155
4873,-0.095,-0.145
4874,-0.085,-0.135
4875,-0.105,-0.135
4876,-0.095,-0.125
4877,-0.085,-0.135
4878,-0.075,-0.115
4879,-0.075,-0.125
4880,-0.055,-0.115
4881,-0.055,-0.115
4882,-0.045,-0.075
4883,-0.065,-0.055
4884,-0.065,-0.155
4885,-0.065,-0.145
4886,-0.065,-0.155
4887,-0.045,-0.135
4888,-0.045,-0.125
4889,-0.065,-0.135
4890,-0.055,-0.125
4891,-0.035,-0.105
4892,0.055,-0.055
4893,0.045,-0.045
4894,0.075,-0.025
4895,0.135,0.005
4896,0.085,-0.045
4897,0.065,-0.075
4898,0.025,-0.095
4899,-0.005,-0.095
4900,-0.075,-0.135
4901,-0.125,-0.155
4902,-0.135,-0.165
4903,-0.135,-0.165
4904,-0.135,-0.165
4905,-0.155,-0.175
4906,-0.145,-0.135
4907,-0.145,-0.145
4908,-0.245,-0.145
4909,-0.225,0.035
4910,0.165,0.295
4911,0.835,0.165
4912,1.285,-0.475
4913,0.925,-0.685
4914,-0.195,-0.905
4915,-0.725,-0.675
4916,-0.235,-0.205
4917,-0.125,-0.065
4918,-0.145,-0.075
4919,-0.165,-0.095
4920,-0.155,-0.085
4921,-0.155,-0.095
4922,-0.155,-0.085
4923,-0.165,-0.075
4924,-0.155,-0.075
4925,-0.135,-0.065
4926,-0.115,-0.045
4927,-0.115,-0.045
4928,-0.125,-0.045
4929,-0.095,-0.015
4930,-0.085,-0.005
4931,-0.065,0.015
4932,-0.045,0.035
4933,-0.025,0.055
4934,-0.005,0.095
4935,-0.005,0.115
4936,0.005,0.125
4937,0.145,0.155
4938,0.065,0.185
4939,0.015,0.215
4940,0.065,0.235
4941,0.075,0.195
4942,0.075,0.185
4943,0.085,0.195
4944,0.075,0.135
4945,0.075,0.085
4946,-0.025,-0.025
4947,0.035,-0.025
4948,0.025,-0.035
4949,-0.005,-0.065
4950,-0.075,-0.095
4951,-0.075,-0.105
4952,-0.055,-0.115
4953,-0.095,-0.135
4954,-0.105,-0.125
4955,-0.095,-0.125
4956,-0.085,-0.125
4957,-0.075,-0.095
4958,-0.065,-0.095
4959,-0.045,-0.135
4960,-0.055,-0.125
4961,-0.055,-0.125
4962,-0.035,-0.105
4963,-0.035,-0.105
4964,-0.005,-0.105
4965,-0.085,-0.105
4966,-0.075,-0.115
4967,-0.065,-0.115
4968,-0.085,-0.055
4969,-0.105,-0.055
4970,-0.095,-0.105
4971,-0.095,-0.145
4972,-0.075,-0.155
4973,-0.085,-0.135
4974,-0.065,-0.115
4975,-0.055,-0.105
4976,-0.005,-0.065
4977,0.055,-0.025
4978,0.015,-0.025
4979,0.075,-0.005
4980,0.105,-0.005
4981,0.065,-0.035
4982,0.045,-0.035
4983,0.005,-0.085
4984,-0.025,-0.095
4985,-0.025,-0.145
4986,-0.155,-0.075
4987,-0.175,-0.135
4988,-0.175,-0.175
4989,-0.145,-0.145
4990,-0.175,-0.145
4991,-0.135,-0.145
4992,-0.165,-0.165
4993,-0.235,-0.125
4994,-0.265,0.055
4995,0.175,0.465
4996,0.875,0.115
4997,1.335,-0.515
4998,0.955,-0.645
4999,-0.055,-0.845
5000,-0.555,-0.765
5001,-0.415,-0.315
5002,-0.205,-0.065
5003,-0.165,-0.055
5004,-0.175,-0.085
5005,-0.175,-0.095
5006,-0.165,-0.085
5007,-0.175,-0.095
5008,-0.145,0.075
5009,-0.135,-0.075
5010,-0.145,-0.155
5011,-0.115,-0.135
5012,-0.085,-0.105
5013,-0.095,-0.065
5014,-0.135,-0.005
5015,-0.145,-0.005
5016,-0.105,-0.015
5017,-0.055,-0.015
5018,0.025,0.015
5019,-0.045,0.045
5020,0.085,0.065
5021,0.405,0.075
5022,-0.165,0.175
5023,-0.115,0.245
5024,0.025,0.185
5025,0.075,0.155
5026,0.085,0.185
5027,0.085,0.185
5028,0.065,0.165
5029,0.075,0.135
5030,0.155,0.125
5031,0.175,-0.015
5032,0.015,-0.065
5033,-0.155,-0.055
5034,-0.175,-0.055
5035,-0.135,-0.085
5036,-0.105,-0.045
5037,-0.085,-0.085
5038,-0.075,-0.155
5039,0.005,-0.235
5040,-0.125,-0.175
5041,0.465,-0.215
5042,-0.035,-0.165
5043,-0.205,-0.055
5044,-0.165,-0.055
5045,-0.305,-0.065
5046,-0.205,-0.125
5047,-0.045,-0.135
5048,0.275,-0.155
5049,0.115,-0.195
5050,0.015,-0.155
5051,0.525,-0.155
5052,-0.065,-0.135
5053,-0.375,-0.105
5054,-0.225,-0.065
5055,-0.085,-0.055
5056,-0.035,-0.155
5057,0.095,-0.115
5058,-0.105,-0.225
5059,-0.155,-0.185
5060,0.035,-0.135
5061,0.245,-0.165
5062,-0.125,-0.055
5063,0.135,-0.045
5064,0.425,-0.075
5065,-0.395,0.105
5066,-0.105,0.005
5067,0.025,-0.115
5068,0.025,-0.235
5069,0.065,-0.155
5070,-0.135,-0.115
5071,0.025,-0.165
5072,-0.005,-0.155
5073,-0.425,-0.195
5074,-0.445,-0.125
5075,-0.215,-0.115
5076,-0.285,-0.165
5077,-0.235,-0.055
5078,-0.255,-0.115
5079,-0.305,-0.135
5080,-0.245,-0.005
5081,0.185,0.265
5082,0.795,0.155
5083,1.215,-0.435
5084,0.605,-0.675
5085,-0.555,-0.865
5086,-0.525,-0.465
5087,-0.225,-0.115
5088,-0.195,-0.065
5089,-0.215,-0.095
5090,-0.205,-0.055
5091,-0.175,-0.085
5092,-0.195,-0.095
5093,-0.155,-0.075
5094,-0.125,-0.015
5095,-0.115,-0.015
5096,-0.175,-0.085
5097,-0.165,-0.095
5098,-0.175,-0.015
5099,-0.155,-0.035
5100,-0.155,-0.035
5101,-0.125,0.015
5102,-0.115,0.045
5103,-0.105,0.165
5104,-0.085,0.175
5105,-0.025,0.105
5106,-0.015,0.035
5107,-0.005,0.035
5108,0.035,0.135
5109,0.045,0.165
5110,0.075,0.185
5111,0.055,0.155
5112,0.105,0.165
5113,0.085,0.165
5114,0.045,0.145
5115,0.075,0.115
5116,0.065,0.115
5117,0.065,0.105
5118,0.035,-0.095
5119,-0.035,-0.065
5120,-0.045,-0.055
5121,-0.035,-0.155
5122,-0.075,-0.125
5123,-0.075,-0.115
5124,-0.085,-0.105
5125,-0.085,-0.105
5126,-0.115,-0.125
5127,-0.065,-0.095
5128,-0.075,-0.085
5129,-0.035,-0.065
5130,-0.045,-0.125
5131,-0.015,-0.025
5132,-0.045,-0.095
5133,-0.035,-0.115
5134,-0.005,-0.135
5135,0.035,-0.105
5136,0.075,-0.105
5137,-0.015,-0.125
5138,-0.115,-0.095
5139,-0.065,-0.095
5140,-0.045,-0.095
5141,-0.055,-0.105
5142,-0.055,-0.105
5143,-0.055,-0.105
5144,-0.065,-0.105
5145,-0.055,-0.085
5146,-0.045,-0.125
5147,-0.005,-0.095
5148,0.015,-0.045
5149,0.055,-0.015
5150,-0.025,-0.015
5151,0.085,-0.015
5152,0.105,-0.015
5153,0.095,-0.005
5154,0.025,-0.145
5155,0.075,-0.145
5156,-0.015,-0.125
5157,-0.095,-0.135
5158,-0.145,-0.145
5159,-0.165,-0.155
5160,-0.135,-0.165
5161,-0.135,-0.165
5162,-0.125,-0.165
5163,-0.125,-0.165
5164,-0.145,-0.145
5165,-0.235,-0.055
5166,-0.065,0.185
5167,0.465,0.385
5168,1.245,-0.045
5169,1.175,-0.515
5170,0.425,-0.725
5171,-0.605,-0.845
5172,-0.585,-0.565
5173,-0.185,-0.185
5174,-0.095,-0.065
5175,-0.115,-0.045
5176,-0.165,-0.125
5177,-0.195,-0.065
5178,-0.185,-0.135
5179,-0.145,-0.125
5180,-0.115,-0.095
5181,-0.115,-0.075
5182,-0.125,-0.075
5183,-0.105,-0.065
5184,-0.095,-0.055
5185,-0.055,-0.055
5186,-0.115,-0.035
5187,-0.015,-0.025
5188,-0.065,-0.005
5189,-0.075,0.005
5190,-0.035,0.035
5191,-0.015,0.055
5192,0.025,0.085
5193,0.065,0.115
5194,0.075,0.135
5195,0.085,0.135
5196,0.085,0.135
5197,0.095,0.135
5198,0.105,0.155
5199,0.085,0.155
5200,0.085,0.085
5201,0.105,0.105
5202,0.065,0.065
5203,0.055,-0.045
5204,0.035,-0.065
5205,-0.005,-0.075
5206,-0.015,-0.085
5207,-0.055,-0.115
5208,-0.055,-0.125
5209,-0.055,-0.135
5210,-0.055,-0.125
5211,-0.045,-0.145
5212,0.035,-0.155
5213,-0.175,-0.125
5214,-0.135,-0.115
5215,-0.065,-0.125
5216,-0.045,-0.115
5217,-0.025,-0.115
5218,-0.045,-0.105
5219,-0.005,-0.115
5220,-0.045,-0.115
5221,-0.025,-0.115
5222,-0.045,-0.125
5223,-0.045,-0.075
5224,-0.025,-0.155
5225,-0.025,-0.155
5226,-0.025,-0.135
5227,-0.065,-0.135
5228,-0.055,-0.135
5229,-0.055,-0.135
5230,-0.065,-0.135
5231,-0.065,-0.135
5232,-0.025,-0.135
5233,0.015,-0.095
5234,0.055,-0.065
5235,0.005,-0.075
5236,0.075,-0.045
5237,0.115,-0.045
5238,0.135,-0.055
5239,0.025,-0.085
5240,0.005,-0.145
5241,-0.035,-0.145
5242,-0.085,-0.155
5243,-0.105,-0.175
5244,-0.105,-0.185
5245,-0.095,-0.185
5246,-0.125,-0.175
5247,-0.135,-0.185
5248,-0.135,-0.195
5249,-0.105,-0.175
5250,-0.185,-0.155
5251,-0.185,0.005
5252,0.195,0.275
5253,0.805,0.275
5254,1.245,-0.315
5255,0.845,-0.545
5256,-0.305,-0.855
5257,-0.675,-0.685
5258,-0.245,-0.275
5259,-0.095,-0.115
5260,-0.145,-0.105
5261,-0.175,-0.125
5262,-0.165,-0.115
5263,-0.155,-0.105
5264,-0.145,-0.115
5265,-0.145,-0.115
5266,-0.145,-0.085
5267,-0.145,-0.095
5268,-0.125,-0.085
5269,-0.135,-0.085
5270,-0.115,-0.065
5271,-0.085,-0.055
5272,-0.085,-0.045
5273,-0.085,-0.035
5274,-0.065,-0.015
5275,-0.045,0.005
5276,-0.025,0.025
5277,-0.005,0.045
5278,0.015,0.065
5279,0.045,0.105
5280,0.065,0.105
5281,0.075,0.135
5282,0.075,0.125
5283,0.075,0.125
5284,0.085,0.125
5285,0.095,0.115
5286,0.085,0.105
5287,0.075,0.075
5288,0.055,0.025
5289,0.035,-0.015
5290,0.025,-0.035
5291,-0.025,-0.075
5292,-0.045,-0.095
5293,-0.065,-0.105
5294,-0.075,-0.105
5295,-0.095,-0.145
5296,-0.085,-0.155
5297,-0.095,-0.135
5298,-0.065,-0.125
5299,-0.075,-0.125
5300,-0.055,-0.125
5301,-0.055,-0.115
5302,-0.045,-0.115
5303,-0.035,-0.115
5304,-0.015,-0.115
5305,-0.035,-0.115
5306,-0.005,-0.105
5307,-0.015,-0.095
5308,-0.055,-0.125
5309,-0.035,-0.115
5310,-0.025,-0.105
5311,-0.045,-0.135
5312,-0.045,-0.135
5313,-0.035,-0.135
5314,-0.045,-0.135
5315,-0.055,-0.135
5316,-0.055,-0.135
5317,-0.055,-0.135
5318,-0.035,-0.135
5319,-0.025,-0.135
5320,0.045,-0.085
5321,0.035,-0.075
5322,0.025,-0.075
5323,0.095,-0.035
5324,0.125,-0.045
5325,0.095,-0.075
5326,0.065,-0.105
5327,0.035,-0.125
5328,0.015,-0.125
5329,-0.045,-0.165
5330,-0.065,-0.165
5331,-0.085,-0.165
5332,-0.095,-0.185
5333,-0.105,-0.185
5334,-0.095,-0.175
5335,-0.105,-0.165
5336,-0.125,-0.145
5337,-0.225,-0.085
5338,-0.045,0.155
5339,0.385,0.385
5340,0.945,0.095
5341,1.205,-0.445
5342,0.655,-0.625
5343,-0.445,-0.845
5344,-0.605,-0.545
5345,-0.225,-0.185
5346,-0.125,-0.065
5347,-0.135,-0.075
5348,-0.155,-0.095
5349,-0.165,-0.095
5350,-0.165,-0.085
5351,-0.155,-0.075
5352,-0.165,-0.075
5353,-0.145,-0.075
5354,-0.135,-0.065
5355,-0.105,-0.055
5356,-0.105,-0.055
5357,-0.095,-0.045
5358,-0.075,-0.015
5359,-0.055,0.025
5360,-0.005,-0.015
5361,-0.005,0.015
5362,-0.015,0.015
5363,0.025,0.045
5364,0.035,0.075
5365,0.075,0.125
5366,0.075,0.145
5367,0.095,0.155
5368,0.085,0.165
5369,0.085,0.165
5370,0.095,0.165
5371,0.085,0.155
5372,0.095,0.125
5373,0.125,0.095
5374,0.125,0.055
5375,0.125,0.005
5376,0.065,-0.045
5377,0.055,-0.075
5378,0.025,-0.095
5379,-0.005,-0.125
5380,-0.015,-0.135
5381,-0.035,-0.135
5382,-0.045,-0.135
5383,-0.045,-0.135
5384,-0.075,-0.135
5385,-0.065,-0.135
5386,-0.075,-0.125
5387,-0.075,-0.125
5388,-0.065,-0.115
5389,-0.035,-0.105
5390,0.005,-0.105
5391,0.035,-0.095
5392,0.035,-0.105
5393,-0.005,-0.105
5394,0.005,-0.095
5395,0.015,-0.115
5396,0.055,-0.135
5397,0.025,-0.145
5398,0.025,-0.135
5399,0.035,-0.135
5400,0.025,-0.135
5401,0.005,-0.145
5402,0.015,-0.145
5403,0.025,-0.145
5404,-0.005,-0.165
5405,-0.025,-0.175
5406,0.055,-0.125
5407,0.085,-0.095
5408,0.025,-0.105
5409,0.065,-0.075
5410,0.125,-0.055
5411,0.055,-0.085
5412,-0.005,-0.125
5413,-0.065,-0.155
5414,-0.095,-0.115
5415,-0.185,-0.135
5416,-0.295,-0.165
5417,-0.325,-0.185
5418,-0.325,-0.185
5419,-0.325,-0.205
5420,-0.305,-0.195
5421,-0.325,-0.165
5422,-0.315,-0.135
5423,-0.365,-0.115
5424,-0.335,0.045
5425,0.015,0.295
5426,0.615,0.345
5427,1.145,-0.265
5428,1.025,-0.545
5429,0.035,-0.845
5430,-0.715,-0.755
5431,-0.375,-0.305
5432,-0.165,-0.075
5433,-0.155,0.095
5434,-0.155,-0.155
5435,-0.155,-0.145
5436,-0.205,-0.185
5437,0.035,-0.165
5438,-0.115,-0.095
5439,-0.185,-0.085
5440,-0.185,-0.105
5441,-0.135,-0.095
5442,-0.095,-0.085
5443,-0.145,-0.065
5444,-0.035,-0.085
5445,-0.035,-0.055
5446,-0.175,-0.045
5447,0.065,0.005
5448,-0.035,0.035
5449,-0.135,0.075
5450,-0.065,-0.005
5451,-0.045,0.025
5452,0.015,0.065
5453,0.085,0.125
5454,0.045,0.125
5455,0.045,0.105
5456,0.075,0.135
5457,-0.005,0.115
5458,0.285,0.065
5459,0.155,0.085
5460,-0.085,0.125
5461,-0.005,0.055
5462,0.035,-0.005
5463,-0.005,-0.035
5464,-0.005,-0.095
5465,-0.045,-0.115
5466,-0.115,-0.135
5467,-0.085,-0.135
5468,-0.115,-0.125
5469,-0.125,-0.135
5470,-0.135,-0.105
5471,-0.135,-0.045
5472,-0.115,-0.125
5473,-0.075,-0.145
5474,-0.065,-0.185
5475,-0.085,-0.135
5476,-0.075,-0.115
5477,-0.075,-0.105
5478,-0.075,-0.105
5479,-0.085,-0.105
5480,-0.065,-0.105
5481,-0.065,-0.105
5482,-0.045,-0.115
5483,-0.065,-0.125
5484,-0.075,-0.125
5485,-0.075,-0.135
5486,-0.095,-0.135
5487,-0.075,-0.135
5488,-0.085,-0.135
5489,-0.095,-0.135
5490,-0.085,-0.125
5491,-0.075,-0.105
5492,-0.095,-0.075
5493,-0.065,-0.145
5494,-0.015,-0.155
5495,0.005,-0.095
5496,-0.015,-0.095
5497,0.085,-0.045
5498,0.105,-0.035
5499,0.065,-0.075
5500,0.015,-0.115
5501,-0.005,-0.115
5502,-0.025,-0.115
5503,-0.075,-0.135
5504,-0.105,-0.145
5505,-0.125,-0.195
5506,-0.085,-0.175
5507,-0.085,-0.205
5508,-0.115,-0.185
5509,-0.135,-0.165
5510,-0.115,-0.085
5511,-0.265,-0.125
5512,-0.195,0.005
5513,0.215,0.315
5514,0.775,0.295
5515,1.215,-0.335
5516,0.845,-0.595
5517,-0.265,-0.865
5518,-0.665,-0.675
5519,-0.295,-0.285
5520,-0.145,-0.115
5521,-0.155,-0.075
5522,-0.165,-0.095
5523,-0.165,-0.085
5524,-0.145,-0.065
5525,-0.205,-0.015
5526,-0.215,-0.005
5527,-0.145,-0.095
5528,-0.155,-0.105
5529,-0.145,-0.095
5530,-0.155,-0.065
5531,-0.045,-0.055
5532,-0.085,-0.055
5533,-0.085,-0.035
5534,-0.095,-0.005
5535,-0.175,0.075
5536,-0.185,0.125
5537,-0.085,0.045
5538,0.015,0.005
5539,-0.005,0.045
5540,0.005,0.095
5541,0.025,0.125
5542,0.055,0.155
5543,0.065,0.155
5544,0.075,0.165
5545,0.085,0.155
5546,0.285,0.145
5547,0.155,0.145
5548,0.415,0.075
5549,-0.105,0.065
5550,-0.155,0.075
5551,-0.125,0.015
5552,-0.065,-0.025
5553,-0.055,-0.065
5554,-0.055,-0.085
5555,-0.105,-0.105
5556,-0.125,-0.115
5557,-0.125,-0.035
5558,-0.125,-0.035
5559,-0.115,-0.205
5560,-0.035,-0.175
5561,-0.115,-0.125
5562,-0.095,-0.135
5563,-0.085,-0.125
5564,0.015,-0.095
5565,-0.235,-0.095
5566,-0.175,-0.075
5567,-0.045,-0.085
5568,-0.075,-0.105
5569,-0.005,-0.115
5570,-0.085,-0.105
5571,-0.065,-0.095
5572,-0.095,-0.105
5573,-0.065,-0.085
5574,-0.065,-0.115
5575,-0.095,-0.155
5576,-0.075,-0.135
5577,-0.095,-0.135
5578,-0.085,-0.135
5579,-0.105,-0.135
5580,-0.075,-0.135
5581,-0.105,-0.135
5582,-0.075,-0.125
5583,-0.015,-0.075
5584,-0.015,-0.065
5585,-0.045,-0.075
5586,0.085,-0.025
5587,0.075,-0.035
5588,0.055,-0.085
5589,-0.005,-0.105
5590,-0.025,-0.105
5591,-0.085,-0.135
5592,-0.115,-0.155
5593,-0.145,-0.145
5594,-0.135,-0.145
5595,-0.165,-0.195
5596,-0.165,-0.175
5597,-0.145,-0.205
5598,-0.155,-0.165
5599,-0.195,-0.135
5600,-0.205,0.025
5601,0.245,0.325
5602,0.815,0.215
5603,1.215,-0.445
5604,0.745,-0.635
5605,-0.415,-0.845
5606,-0.615,-0.675
5607,-0.235,-0.255
5608,-0.135,-0.095
5609,-0.155,-0.085
5610,-0.155,-0.095
5611,-0.165,-0.095
5612,-0.155,-0.095
5613,-0.145,-0.085
5614,-0.145,-0.075
5615,-0.125,-0.065
5616,-0.145,-0.075
5617,-0.145,-0.075
5618,-0.135,-0.045
5619,-0.115,-0.035
5620,-0.105,-0.035
5621,-0.115,-0.025
5622,-0.085,-0.005
5623,-0.045,0.015
5624,-0.015,0.025
5625,-0.005,0.055
5626,0.035,0.085
5627,0.015,0.095
5628,0.045,0.145
5629,0.065,0.115
5630,0.065,0.145
5631,0.085,0.165
5632,0.095,0.165
5633,0.105,0.165
5634,0.095,0.165
5635,0.075,0.145
5636,0.085,0.105
5637,0.085,0.075
5638,0.045,0.025
5639,0.035,-0.005
5640,0.025,-0.045
5641,-0.045,-0.085
5642,-0.055,-0.075
5643,-0.045,-0.105
5644,-0.065,-0.115
5645,-0.085,-0.115
5646,-0.095,-0.105
5647,-0.075,-0.105
5648,-0.055,-0.095
5649,-0.055,-0.095
5650,-0.055,-0.095
5651,-0.045,-0.095
5652,-0.035,-0.095
5653,-0.035,-0.095
5654,-0.045,-0.095
5655,-0.035,-0.105
5656,-0.025,-0.105
5657,-0.005,-0.115
5658,0.005,-0.115
5659,-0.075,-0.105
5660,-0.065,-0.115
5661,-0.045,-0.115
5662,-0.055,-0.115
5663,-0.055,-0.125
5664,-0.095,-0.125
5665,-0.085,-0.135
5666,-0.045,-0.135
5667,-0.045,-0.135
5668,-0.035,-0.135
5669,-0.035,-0.145
5670,0.005,-0.095
5671,0.025,-0.075
5672,0.065,-0.075
5673,0.085,-0.045
5674,0.085,-0.035
5675,0.145,-0.075
5676,0.055,-0.115
5677,0.105,-0.145
5678,-0.015,-0.125
5679,-0.135,-0.145
5680,-0.185,-0.145
5681,-0.175,-0.185
5682,-0.165,-0.205
5683,-0.155,-0.195
5684,-0.145,-0.205
5685,-0.135,-0.195
5686,-0.145,-0.185
5687,-0.195,-0.145
5688,-0.135,0.055
5689,0.205,0.335
5690,0.855,0.175
5691,1.245,-0.455
5692,0.765,-0.645
5693,-0.385,-0.895
5694,-0.735,-0.675
5695,-0.295,-0.235
5696,0.035,-0.105
5697,-0.275,-0.085
5698,-0.265,-0.075
5699,-0.215,-0.105
5700,-0.205,-0.105
5701,-0.185,-0.085
5702,-0.165,-0.065
5703,-0.155,-0.065
5704,-0.135,-0.075
5705,-0.105,-0.085
5706,-0.115,-0.055
5707,-0.225,-0.025
5708,-0.085,-0.045
5709,-0.245,-0.015
5710,-0.155,0.015
5711,-0.115,0.005
5712,-0.075,0.015
5713,-0.065,0.035
5714,-0.035,0.075
5715,-0.015,0.095
5716,-0.025,0.105
5717,0.045,0.125
5718,0.085,0.125
5719,0.135,0.135
5720,0.015,0.185
5721,-0.035,0.155
5722,-0.015,0.165
5723,0.025,0.145
5724,0.015,0.095
5725,0.015,0.065
5726,0.015,0.015
5727,-0.005,-0.015
5728,-0.025,-0.055
5729,-0.035,-0.085
5730,-0.065,-0.105
5731,-0.105,-0.125
5732,0.145,-0.155
5733,-0.125,-0.125
5734,-0.255,-0.125
5735,-0.025,-0.115
5736,-0.245,-0.115
5737,-0.155,-0.105
5738,-0.125,-0.105
5739,-0.095,-0.115
5740,-0.105,-0.105
5741,-0.095,-0.105
5742,-0.135,-0.115
5743,-0.095,-0.115
5744,-0.065,-0.115
5745,-0.085,-0.125
5746,-0.085,-0.115
5747,-0.075,-0.125
5748,-0.085,-0.145
5749,-0.095,-0.145
5750,-0.085,-0.135
5751,-0.085,-0.145
5752,-0.085,-0.145
5753,-0.085,-0.155
5754,-0.085,-0.155
5755,-0.105,-0.155
5756,-0.105,-0.155
5757,-0.085,-0.145
5758,-0.055,-0.135
5759,0.025,-0.095
5760,-0.015,-0.075
5761,-0.075,-0.085
5762,0.075,-0.075
5763,0.175,-0.085
5764,-0.085,-0.055
5765,-0.095,-0.105
5766,-0.065,-0.125
5767,-0.065,-0.135
5768,-0.105,-0.175
5769,-0.165,-0.195
5770,-0.185,-0.215
5771,-0.175,-0.205
5772,-0.155,-0.205
5773,-0.155,-0.205
5774,-0.145,-0.165
5775,-0.175,-0.185
5776,-0.215,-0.175
5777,-0.175,0.005
5778,0.185,0.325
5779,0.935,0.075
5780,1.215,-0.485
5781,0.425,-0.765
5782,-0.615,-0.895
5783,-0.585,-0.595
5784,-0.215,-0.215
5785,-0.165,-0.105
5786,-0.175,-0.105
5787,-0.195,-0.125
5788,0.005,-0.135
5789,-0.235,-0.115
5790,-0.235,-0.085
5791,-0.165,-0.095
5792,-0.125,-0.075
5793,-0.165,-0.065
5794,-0.175,-0.075
5795,-0.125,-0.065
5796,-0.125,-0.065
5797,-0.085,-0.045
5798,0.015,-0.045
5799,0.055,-0.035
5800,-0.155,-0.025
5801,-0.135,0.005
5802,-0.125,0.055
5803,-0.055,0.065
5804,0.005,0.075
5805,0.035,0.115
5806,0.035,0.125
5807,0.045,0.145
5808,0.075,0.135
5809,0.075,0.145
5810,0.045,0.135
5811,0.075,0.125
5812,0.105,0.125
5813,0.075,0.055
5814,0.075,0.025
5815,0.245,-0.025
5816,-0.195,-0.005
5817,-0.175,-0.055
5818,-0.085,-0.075
5819,-0.085,-0.115
5820,-0.065,-0.115
5821,-0.095,-0.125
5822,-0.125,-0.125
5823,-0.125,-0.135
5824,-0.115,-0.125
5825,-0.105,-0.125
5826,-0.095,-0.105
5827,-0.085,-0.105
5828,-0.075,-0.105
5829,-0.055,-0.105
5830,-0.045,-0.105
5831,-0.025,-0.095
5832,-0.045,-0.105
5833,-0.035,-0.115
5834,-0.035,-0.125
5835,-0.045,-0.125
5836,-0.025,-0.135
5837,0.005,-0.145
5838,-0.015,-0.145
5839,-0.115,-0.135
5840,-0.105,-0.125
5841,-0.075,-0.145
5842,-0.045,-0.145
5843,-0.045,-0.155
5844,-0.095,-0.155
5845,0.005,-0.165
5846,-0.085,-0.155
5847,-0.065,-0.125
5848,-0.015,-0.075
5849,-0.005,-0.095
5850,0.045,-0.075
5851,0.105,-0.035
5852,0.115,-0.065
5853,0.065,-0.095
5854,0.005,-0.145
5855,0.005,-0.135
5856,-0.055,-0.165
5857,-0.125,-0.195
5858,-0.135,-0.195
5859,-0.145,-0.205
5860,-0.115,-0.195
5861,-0.125,-0.205
5862,-0.145,-0.195
5863,-0.155,-0.195
5864,-0.155,-0.175
5865,-0.255,-0.095
5866,-0.015,0.145
5867,0.525,0.375
5868,1.145,-0.135
5869,1.005,-0.565
5870,-0.025,-0.885
5871,-0.695,-0.785
5872,-0.285,-0.345
5873,-0.135,-0.125
5874,-0.135,-0.075
5875,-0.165,-0.105
5876,-0.115,-0.105
5877,-0.155,-0.105
5878,-0.115,-0.095
5879,0.065,-0.115
5880,-0.205,-0.105
5881,-0.275,-0.065
5882,-0.185,-0.045
5883,-0.165,-0.065
5884,-0.145,-0.065
5885,-0.065,-0.055
5886,-0.055,-0.035
5887,-0.025,-0.015
5888,-0.035,-0.015
5889,-0.045,-0.005
5890,-0.025,0.025
5891,-0.005,0.045
5892,0.005,0.065
5893,0.015,0.085
5894,0.055,0.115
5895,0.045,0.125
5896,0.065,0.135
5897,0.075,0.155
5898,0.095,0.155
5899,0.115,0.155
5900,0.065,0.145
5901,0.085,0.125
5902,0.075,0.095
5903,0.055,0.055
5904,0.045,0.025
5905,0.025,-0.025
5906,0.005,-0.055
5907,-0.015,-0.075
5908,-0.035,-0.095
5909,-0.065,-0.105
5910,-0.085,-0.115
5911,-0.035,-0.105
5912,-0.095,-0.105
5913,-0.105,-0.105
5914,-0.105,-0.105
5915,-0.075,-0.095
5916,-0.055,-0.095
5917,-0.035,-0.085
5918,-0.025,-0.085
5919,-0.025,-0.085
5920,-0.015,-0.075
5921,-0.005,-0.095
5922,0.015,-0.095
5923,-0.015,-0.095
5924,-0.015,-0.095
5925,-0.025,-0.105
5926,-0.025,-0.115
5927,-0.005,-0.115
5928,0.005,-0.125
5929,-0.005,-0.125
5930,-0.005,-0.125
5931,-0.025,-0.135
5932,-0.015,-0.135
5933,-0.045,-0.135
5934,-0.025,-0.125
5935,-0.025,-0.135
5936,-0.025,-0.145
5937,-0.015,-0.155
5938,0.075,-0.115
5939,0.055,-0.055
5940,0.015,-0.065
5941,0.045,-0.065
5942,0.135,-0.025
5943,0.115,-0.065
5944,0.085,-0.105
5945,0.025,-0.135
5946,0.015,-0.125
5947,-0.085,-0.155
5948,-0.105,-0.185
5949,-0.095,-0.195
5950,-0.105,-0.195
5951,-0.095,-0.205
5952,-0.015,-0.185
5953,-0.075,-0.185
5954,-0.265,-0.115
5955,-0.205,0.065
5956,0.325,0.355
5957,0.965,0.135
5958,1.245,-0.445
5959,0.675,-0.675
5960,-0.375,-0.905
5961,-0.555,-0.645
5962,-0.175,-0.235
5963,-0.065,-0.105
5964,-0.135,-0.085
5965,-0.125,-0.095
5966,-0.215,-0.095
5967,-0.165,-0.085
5968,-0.135,-0.085
5969,-0.095,-0.085
5970,-0.095,-0.065
5971,-0.095,-0.055
5972,-0.095,-0.055
5973,-0.155,-0.045
5974,-0.135,-0.035
5975,-0.125,-0.035
5976,-0.065,-0.015
5977,-0.075,-0.015
5978,-0.045,0.005
5979,-0.065,0.045
5980,-0.085,0.065
5981,-0.045,0.075
5982,-0.035,0.115
5983,-0.015,0.115
5984,0.015,0.145
5985,0.035,0.155
5986,0.055,0.165
5987,0.065,0.165
5988,0.095,0.175
5989,0.065,0.135
5990,0.075,0.135
5991,0.065,0.125
5992,0.085,0.045
5993,0.115,0.015
5994,-0.045,-0.005
5995,-0.045,-0.045
5996,-0.035,-0.085
5997,-0.075,-0.085
5998,-0.135,-0.085
5999,-0.105,-0.115
6000,-0.155,-0.105
6001,-0.115,-0.105
6002,-0.115,-0.095
6003,-0.025,-0.095
6004,-0.105,-0.095
6005,-0.065,-0.085
6006,-0.065,-0.095
6007,-0.125,-0.085
6008,-0.115,-0.085
6009,-0.015,-0.115
6010,0.265,-0.145
6011,-0.045,-0.135
6012,-0.235,-0.075
6013,0.175,-0.135
6014,-0.245,-0.055
6015,-0.185,-0.075
6016,-0.065,-0.125
6017,-0.025,-0.135
6018,-0.055,-0.135
6019,-0.085,-0.135
6020,-0.085,-0.145
6021,-0.055,-0.145
6022,-0.045,-0.145
6023,-0.045,-0.155
6024,-0.055,-0.145
6025,-0.065,-0.155
6026,-0.065,-0.155
6027,-0.065,-0.155
6028,-0.065,-0.135
6029,0.015,-0.095
6030,0.035,-0.085
6031,0.015,-0.075
6032,0.085,-0.045
6033,0.075,-0.065
6034,0.045,-0.095
6035,-0.025,-0.115
6036,-0.045,-0.135
6037,-0.045,-0.145
6038,-0.085,-0.165
6039,-0.125,-0.175
6040,-0.125,-0.195
6041,-0.135,-0.185
6042,-0.135,-0.185
6043,-0.135,-0.175
6044,-0.155,-0.165
6045,-0.155,-0.165
6046,-0.215,-0.055
6047,-0.005,0.175
6048,0.575,0.385
6049,1.055,-0.055
6050,1.065,-0.515
6051,0.125,-0.825
6052,-0.645,-0.835
6053,-0.395,-0.395
6054,-0.175,-0.135
6055,-0.135,-0.075
6056,-0.165,-0.095
6057,-0.165,-0.105
6058,-0.155,-0.085
6059,-0.175,-0.095
6060,-0.145,-0.085
6061,-0.155,-0.085
6062,-0.165,-0.055
6063,-0.155,-0.065
6064,-0.155,-0.055
6065,-0.135,-0.055
6066,-0.145,-0.035
6067,-0.095,-0.025
6068,-0.055,-0.015
6069,-0.065,-0.015
6070,-0.015,0.005
6071,-0.105,0.025
6072,-0.055,0.065
6073,-0.025,0.075
6074,0.015,0.105
6075,0.025,0.125
6076,0.025,0.145
6077,0.045,0.145
6078,0.065,0.155
6079,0.035,0.145
6080,0.055,0.145
6081,0.065,0.155
6082,0.075,0.125
6083,0.045,0.085
6084,0.025,0.055
6085,0.005,0.015
6086,-0.025,-0.015
6087,-0.055,-0.055
6088,-0.095,-0.075
6089,-0.035,-0.075
6090,-0.075,-0.095
6091,-0.135,-0.105
6092,-0.025,-0.135
6093,-0.165,-0.115
6094,-0.075,-0.105
6095,-0.135,-0.085
6096,-0.095,-0.085
6097,-0.075,-0.085
6098,0.005,-0.075
6099,-0.045,-0.085
6100,-0.035,-0.095
6101,-0.025,-0.095
6102,-0.035,-0.105
6103,-0.025,-0.105
6104,-0.055,-0.115
6105,-0.035,-0.115
6106,-0.045,-0.115
6107,-0.065,-0.115
6108,-0.025,-0.135
6109,-0.025,-0.145
6110,-0.035,-0.135
6111,-0.065,-0.145
6112,-0.065,-0.145
6113,-0.045,-0.135
6114,-0.055,-0.145
6115,-0.055,-0.135
6116,-0.075,-0.155
6117,-0.055,-0.135
6118,0.065,-0.155
6119,-0.065,-0.125
6120,-0.065,-0.065
6121,0.005,-0.075
6122,0.055,-0.055
6123,0.125,-0.035
6124,0.095,-0.055
6125,0.045,-0.105
6126,-0.005,-0.125
6127,0.005,-0.105
6128,-0.065,-0.135
6129,-0.125,-0.155
6130,-0.145,-0.175
6131,-0.125,-0.175
6132,-0.095,-0.175
6133,-0.115,-0.175
6134,-0.135,-0.165
6135,-0.145,-0.175
6136,-0.185,-0.135
6137,-0.215,0.025
6138,0.135,0.295
6139,0.715,0.285
6140,1.285,-0.325
6141,0.885,-0.575
6142,-0.035,-0.865
6143,-0.725,-0.755
6144,-0.325,-0.295
6145,-0.145,-0.075
6146,-0.145,-0.025
6147,-0.175,-0.105
6148,-0.175,-0.125
6149,-0.155,-0.105
6150,-0.155,-0.095
6151,-0.145,-0.095
6152,-0.135,-0.095
6153,-0.125,-0.085
6154,-0.135,-0.075
6155,-0.005,-0.065
6156,-0.125,-0.055
6157,-0.145,-0.035
6158,-0.145,-0.025
6159,-0.045,-0.025
6160,-0.045,-0.005
6161,-0.055,0.015
6162,-0.035,0.025
6163,-0.005,0.055
6164,0.005,0.075
6165,0.025,0.095
6166,0.025,0.125
6167,0.055,0.145
6168,0.065,0.155
6169,0.045,0.155
6170,0.065,0.155
6171,0.045,0.145
6172,0.055,0.145
6173,0.045,0.125
6174,0.025,0.105
6175,0.025,0.065
6176,0.015,0.025
6177,-0.015,-0.015
6178,-0.045,-0.035
6179,-0.075,-0.065
6180,-0.095,-0.095
6181,-0.105,-0.105
6182,-0.085,-0.095
6183,-0.125,-0.105
6184,-0.105,-0.095
6185,-0.105,-0.085
6186,-0.095,-0.085
6187,-0.095,-0.085
6188,-0.065,-0.075
6189,-0.055,-0.095
6190,-0.035,-0.085
6191,-0.045,-0.085
6192,-0.045,-0.105
6193,-0.045,-0.105
6194,-0.035,-0.105
6195,0.035,-0.115
6196,0.025,-0.125
6197,-0.085,-0.125
6198,-0.095,-0.115
6199,-0.085,-0.135
6200,-0.075,-0.145
6201,-0.075,-0.145
6202,-0.085,-0.145
6203,-0.075,-0.145
6204,-0.065,-0.145
6205,-0.085,-0.155
6206,-0.095,-0.155
6207,-0.075,-0.155
6208,-0.065,-0.155
6209,-0.015,-0.115
6210,0.025,-0.065
6211,0.005,-0.075
6212,0.065,-0.045
6213,0.105,-0.035
6214,0.065,-0.065
6215,0.015,-0.105
6216,-0.035,-0.125
6217,-0.035,-0.105
6218,-0.105,-0.135
6219,-0.135,-0.165
6220,-0.145,-0.175
6221,-0.155,-0.175
6222,-0.155,-0.175
6223,-0.135,-0.175
6224,-0.125,-0.165
6225,-0.125,-0.165
6226,-0.185,-0.135
6227,-0.185,0.015
6228,0.095,0.315
6229,0.675,0.325
6230,1.185,-0.355
6231,0.965,-0.635
6232,-0.065,-0.925
6233,-0.695,-0.745
6234,-0.295,-0.245
6235,-0.165,-0.075
6236,-0.145,-0.065
6237,-0.165,-0.085
6238,-0.175,-0.085
6239,-0.145,-0.085
6240,-0.135,-0.085
6241,-0.155,-0.085
6242,-0.145,-0.065
6243,-0.165,-0.065
6244,-0.135,-0.055
6245,-0.125,-0.045
6246,-0.105,-0.025
6247,-0.125,-0.025
6248,-0.105,-0.015
6249,-0.055,-0.005
6250,-0.015,0.005
6251,-0.025,0.035
6252,-0.035,0.055
6253,-0.025,0.095
6254,-0.005,0.115
6255,0.025,0.145
6256,0.065,0.155
6257,0.055,0.165
6258,0.085,0.185
6259,0.095,0.185
6260,0.075,0.185
6261,0.035,0.175
6262,0.025,0.145
6263,0.005,0.135
6264,0.025,0.085
6265,-0.005,0.025
6266,-0.025,-0.015
6267,-0.035,-0.055
6268,-0.065,-0.075
6269,-0.095,-0.105
6270,-0.105,-0.105
6271,-0.105,-0.125
6272,-0.115,-0.135
6273,-0.135,-0.135
6274,-0.135,-0.115
6275,-0.115,-0.125
6276,-0.105,-0.125
6277,-0.095,-0.115
6278,-0.095,-0.115
6279,-0.085,-0.115
6280,-0.085,-0.125
6281,-0.085,-0.125
6282,-0.065,-0.115
6283,-0.055,-0.145
6284,-0.035,-0.125
6285,-0.045,-0.125
6286,-0.035,-0.105
6287,-0.055,-0.125
6288,-0.065,-0.135
6289,-0.085,-0.135
6290,-0.075,-0.145
6291,-0.075,-0.155
6292,-0.075,-0.155
6293,-0.085,-0.155
6294,-0.085,-0.145
6295,-0.085,-0.145
6296,-0.095,-0.155
6297,-0.095,-0.165
6298,-0.095,-0.145
6299,-0.035,-0.105
6300,0.005,-0.075
6301,-0.005,-0.075
6302,0.045,-0.045
6303,0.095,-0.025
6304,0.065,-0.065
6305,0.025,-0.115
6306,-0.005,-0.135
6307,-0.025,-0.125
6308,-0.095,-0.165
6309,-0.165,-0.175
6310,-0.165,-0.175
6311,-0.165,-0.185
6312,-0.185,-0.175
6313,-0.195,-0.165
6314,-0.175,-0.165
6315,-0.175,-0.165
6316,-0.205,-0.135
6317,-0.265,-0.005
6318,0.085,0.285
6319,0.685,0.295
6320,1.165,-0.375
6321,0.925,-0.635
6322,-0.135,-0.905
6323,-0.705,-0.745
6324,-0.305,-0.265
6325,-0.155,-0.085
6326,-0.145,-0.045
6327,-0.185,-0.075
6328,-0.185,-0.095
6329,-0.175,-0.085
6330,-0.175,-0.085
6331,-0.175,-0.075
6332,-0.145,-0.065
6333,-0.135,-0.055
6334,-0.135,-0.055
6335,-0.135,-0.055
6336,-0.125,-0.035
6337,-0.085,-0.035
6338,-0.075,-0.015
6339,-0.045,-0.005
6340,-0.055,0.005
6341,-0.015,0.035
6342,-0.005,0.055
6343,0.015,0.085
6344,0.025,0.095
6345,0.035,0.125
6346,0.075,0.145
6347,0.065,0.145
6348,0.075,0.165
6349,0.085,0.165
6350,0.075,0.175
6351,0.065,0.155
6352,0.075,0.125
6353,0.055,0.085
6354,0.065,0.065
6355,0.015,0.005
6356,0.025,-0.035
6357,-0.015,-0.065
6358,-0.075,-0.085
6359,-0.095,-0.115
6360,-0.085,-0.125
6361,-0.105,-0.135
6362,-0.105,-0.145
6363,-0.115,-0.125
6364,-0.105,-0.125
6365,-0.105,-0.135
6366,-0.085,-0.135
6367,-0.075,-0.125
6368,-0.095,-0.125
6369,-0.075,-0.125
6370,-0.065,-0.125
6371,-0.075,-0.125
6372,-0.085,-0.125
6373,-0.105,-0.145
6374,-0.055,-0.135
6375,-0.065,-0.145
6376,-0.055,-0.145
6377,-0.045,-0.155
6378,-0.045,-0.145
6379,-0.055,-0.155
6380,-0.055,-0.155
6381,-0.055,-0.165
6382,-0.075,-0.165
6383,-0.075,-0.165
6384,-0.085,-0.165
6385,-0.075,-0.165
6386,-0.075,-0.165
6387,-0.075,-0.155
6388,-0.035,-0.125
6389,0.005,-0.095
6390,0.005,-0.095
6391,0.045,-0.075
6392,0.085,-0.055
6393,0.075,-0.085
6394,0.025,-0.115
6395,-0.015,-0.145
6396,-0.035,-0.145
6397,-0.085,-0.175
6398,-0.125,-0.185
6399,-0.155,-0.205
6400,-0.185,-0.215
6401,-0.165,-0.205
6402,-0.175,-0.205
6403,-0.155,-0.195
6404,-0.175,-0.185
6405,-0.195,-0.165
6406,-0.245,-0.035
6407,0.095,0.255
6408,0.715,0.265
6409,1.225,-0.435
6410,0.725,-0.685
6411,-0.525,-0.925
6412,-0.615,-0.585
6413,-0.225,-0.195
6414,-0.155,-0.095
6415,-0.175,-0.105
6416,-0.175,-0.125
6417,-0.195,-0.115
6418,-0.195,-0.115
6419,-0.175,-0.105
6420,-0.175,-0.095
6421,-0.175,-0.095
6422,-0.155,-0.085
6423,-0.155,-0.075
6424,-0.135,-0.065
6425,-0.115,-0.055
6426,-0.115,-0.035
6427,-0.105,-0.035
6428,-0.075,-0.015
6429,-0.065,0.015
6430,-0.045,0.025
6431,-0.025,0.055
6432,-0.005,0.085
6433,0.025,0.115
6434,0.035,0.135
6435,0.035,0.135
6436,0.045,0.145
6437,0.045,0.145
6438,0.045,0.145
6439,0.025,0.125
6440,0.025,0.115
6441,0.025,0.085
6442,0.015,0.045
6443,-0.005,-0.005
6444,-0.025,-0.035
6445,-0.055,-0.075
6446,-0.085,-0.085
6447,-0.105,-0.115
6448,-0.115,-0.125
6449,-0.125,-0.135
6450,-0.125,-0.115
6451,-0.135,-0.125
6452,-0.145,-0.135
6453,-0.145,-0.125
6454,-0.105,-0.105
6455,-0.105,-0.125
6456,-0.095,-0.125
6457,-0.095,-0.125
6458,-0.095,-0.125
6459,-0.075,-0.115
6460,-0.075,-0.125
6461,-0.075,-0.125
6462,-0.065,-0.115
6463,-0.085,-0.135
6464,-0.085,-0.125
6465,-0.085,-0.135
6466,-0.085,-0.145
6467,-0.075,-0.145
6468,-0.095,-0.145
6469,-0.095,-0.155
6470,-0.115,-0.165
6471,-0.125,-0.165
6472,-0.115,-0.165
6473,-0.115,-0.165
6474,-0.115,-0.165
6475,-0.105,-0.165
6476,-0.115,-0.165
6477,-0.095,-0.155
6478,-0.035,-0.105
6479,-0.005,-0.075
6480,0.015,-0.085
6481,0.045,-0.055
6482,0.085,-0.055
6483,0.055,-0.085
6484,0.015,-0.115
6485,-0.035,-0.145
6486,-0.055,-0.135
6487,-0.125,-0.165
6488,-0.165,-0.185
6489,-0.175,-0.205
6490,-0.165,-0.195
6491,-0.175,-0.195
6492,-0.175,-0.195
6493,-0.165,-0.195
6494,-0.165,-0.185
6495,-0.265,-0.135
6496,-0.205,0.075
6497,0.225,0.325
6498,0.855,0.145
6499,1.225,-0.515
6500,0.535,-0.755
6501,-0.695,-0.905
6502,-0.485,-0.455
6503,-0.165,-0.145
6504,-0.145,-0.075
6505,-0.175,-0.115
6506,-0.185,-0.115
6507,-0.165,-0.115
6508,-0.185,-0.095
6509,-0.165,-0.085
6510,-0.175,-0.085
6511,-0.165,-0.085
6512,-0.135,-0.065
6513,-0.135,-0.065
6514,-0.125,-0.055
6515,-0.115,-0.045
6516,-0.105,-0.035
6517,-0.095,-0.025
6518,-0.075,0.005
6519,-0.055,0.025
6520,-0.055,0.035
6521,-0.025,0.065
6522,-0.025,0.105
6523,0.025,0.115
6524,0.035,0.125
6525,0.055,0.145
6526,0.065,0.155
6527,0.065,0.165
6528,0.075,0.155
6529,0.065,0.155
6530,0.065,0.135
6531,0.075,0.105
6532,0.065,0.065
6533,0.025,0.025
6534,-0.015,-0.025
6535,-0.025,-0.055
6536,-0.035,-0.095
6537,-0.085,-0.125
6538,-0.095,-0.125
6539,-0.115,-0.125
6540,-0.135,-0.135
6541,-0.115,-0.145
6542,-0.115,-0.125
6543,-0.105,-0.125
6544,-0.085,-0.125
6545,-0.065,-0.115
6546,-0.035,-0.115
6547,-0.025,-0.115
6548,0.005,-0.115
6549,-0.025,-0.125
6550,-0.035,-0.115
6551,-0.055,-0.135
6552,-0.065,-0.145
6553,-0.075,-0.145
6554,-0.075,-0.135
6555,-0.075,-0.135
6556,-0.075,-0.165
6557,-0.095,-0.185
6558,-0.105,-0.175
6559,-0.105,-0.165
6560,-0.105,-0.175
6561,-0.135,-0.165
6562,-0.105,-0.155
6563,-0.115,-0.185
6564,-0.135,-0.175
6565,-0.105,-0.175
6566,-0.125,-0.175
6567,-0.105,-0.165
6568,-0.035,-0.125
6569,-0.005,-0.105
6570,-0.035,-0.105
6571,0.025,-0.075
6572,0.085,-0.055
6573,0.045,-0.095
6574,0.015,-0.135
6575,-0.045,-0.155
6576,-0.065,-0.155
6577,-0.085,-0.165
6578,-0.145,-0.185
6579,-0.175,-0.205
6580,-0.155,-0.205
6581,-0.155,-0.205
6582,-0.175,-0.195
6583,-0.155,-0.185
6584,-0.145,-0.185
6585,-0.195,-0.175
6586,-0.235,-0.015
6587,0.155,0.285
6588,0.835,0.295
6589,1.265,-0.385
6590,0.875,-0.605
6591,-0.295,-0.915
6592,-0.685,-0.735
6593,-0.325,-0.305
6594,-0.165,-0.105
6595,-0.165,-0.055
6596,-0.175,-0.135
6597,-0.175,-0.105
6598,-0.175,-0.105
6599,-0.175,-0.115
6600,-0.165,-0.105
6601,-0.155,-0.075
6602,-0.175,-0.085
6603,-0.155,-0.095
6604,-0.105,-0.045
6605,-0.105,-0.045
6606,-0.105,-0.035
6607,-0.095,-0.005
6608,-0.075,-0.005
6609,-0.065,-0.005
6610,-0.045,0.025
6611,-0.035,0.045
6612,-0.015,0.105
6613,-0.045,0.045
6614,0.035,0.135
6615,0.005,0.135
6616,0.065,0.155
6617,0.075,0.185
6618,0.085,0.175
6619,0.045,0.155
6620,0.045,0.155
6621,0.035,0.105
6622,0.055,0.115
6623,0.005,0.045
6624,0.015,0.015
6625,-0.035,-0.005
6626,-0.045,-0.055
6627,-0.095,-0.075
6628,-0.085,-0.085
6629,-0.085,-0.095
6630,-0.085,-0.095
6631,-0.125,-0.105
6632,-0.085,-0.095
6633,-0.115,-0.105
6634,-0.085,-0.115
6635,-0.085,-0.105
6636,-0.075,-0.115
6637,-0.065,-0.095
6638,-0.045,-0.075
6639,-0.035,-0.095
6640,-0.035,-0.095
6641,-0.055,-0.135
6642,-0.035,-0.095
6643,-0.025,-0.115
6644,-0.055,-0.135
6645,-0.065,-0.135
6646,-0.045,-0.105
6647,-0.045,-0.125
6648,-0.035,-0.155
6649,-0.055,-0.135
6650,-0.055,-0.145
6651,-0.085,-0.155
6652,-0.085,-0.155
6653,-0.085,-0.175
6654,-0.075,-0.145
6655,-0.075,-0.155
