'sample interval','ECG1','ECG2'
'0.0078125 sec','mV','mV'
0,-0.185,-0.075
1,-0.155,-0.045
2,-0.145,-0.055
3,-0.135,-0.055
4,-0.105,-0.045
5,-0.095,-0.035
6,-0.095,-0.035
7,-0.065,-0.045
8,-0.055,-0.045
9,-0.025,-0.025
10,-0.005,-0.035
11,0.025,-0.035
12,0.045,-0.025
13,0.075,0.005
14,0.095,-0.005
15,0.105,-0.005
16,0.105,0.025
17,0.115,0.055
18,0.105,0.075
19,0.075,0.055
20,0.045,0.045
21,0.005,0.045
22,-0.045,0.025
23,-0.075,-0.005
24,-0.105,-0.015
25,-0.115,-0.015
26,-0.125,-0.025
27,-0.125,-0.035
28,-0.125,-0.035
29,-0.125,-0.015
30,-0.125,-0.035
31,-0.135,-0.035
32,-0.135,-0.025
33,-0.135,-0.025
34,-0.135,-0.025
35,-0.125,-0.045
36,-0.125,-0.025
37,-0.125,-0.035
38,-0.135,-0.045
39,-0.135,-0.055
40,-0.155,-0.065
41,-0.145,-0.055
42,-0.165,-0.075
43,-0.165,-0.075
44,-0.155,-0.075
45,-0.175,-0.085
46,-0.165,-0.095
47,-0.145,-0.105
48,-0.095,-0.055
49,-0.045,0.005
50,-0.055,-0.035
51,-0.105,-0.095
52,-0.105,-0.085
53,-0.165,-0.115
54,-0.195,-0.125
55,-0.205,-0.125
56,-0.225,-0.125
57,-0.215,-0.115
58,-0.215,-0.125
59,-0.215,-0.135
60,-0.205,-0.125
61,-0.205,-0.115
62,-0.215,-0.115
63,-0.215,-0.135
64,-0.215,-0.115
65,-0.215,-0.105
66,-0.195,-0.105
67,-0.175,-0.105
68,-0.265,-0.075
69,-0.435,-0.025
70,-0.235,0.155
71,0.385,0.315
72,1.325,-0.295
73,1.495,-0.475
74,0.355,-0.725
75,-0.515,-0.935
76,-0.565,-0.555
77,-0.365,-0.215
78,-0.225,-0.045
79,-0.205,-0.035
80,-0.215,-0.055
81,-0.235,-0.055
82,-0.225,-0.045
83,-0.225,-0.045
84,-0.215,-0.055
85,-0.195,-0.035
86,-0.195,-0.025
87,-0.205,-0.035
88,-0.175,-0.025
89,-0.185,-0.025
90,-0.175,-0.015
91,-0.165,-0.015
92,-0.145,-0.015
93,-0.125,0.005
94,-0.115,0.005
95,-0.105,0.005
96,-0.085,0.005
97,-0.085,0.025
98,-0.055,0.025
99,-0.045,0.025
100,-0.015,0.025
101,0.015,0.045
102,0.035,0.055
103,0.045,0.045
104,0.085,0.045
105,0.105,0.055
106,0.135,0.075
107,0.145,0.075
108,0.155,0.095
109,0.165,0.105
110,0.145,0.115
111,0.105,0.095
112,0.085,0.075
113,0.035,0.055
114,0.005,0.025
115,-0.035,-0.005
116,-0.065,-0.015
117,-0.065,-0.025
118,-0.085,-0.045
119,-0.095,-0.055
120,-0.095,-0.055
121,-0.095,-0.055
122,-0.105,-0.045
123,-0.105,-0.055
124,-0.085,-0.055
125,-0.085,-0.045
126,-0.095,-0.035
127,-0.095,-0.045
128,-0.085,-0.045
129,-0.085,-0.035
130,-0.085,-0.035
131,-0.095,-0.055
132,-0.085,-0.055
133,-0.085,-0.045
134,-0.095,-0.065
135,-0.105,-0.075
136,-0.125,-0.085
137,-0.115,-0.085
138,-0.125,-0.075
139,-0.135,-0.095
140,-0.125,-0.095
141,-0.115,-0.095
142,-0.135,-0.095
143,-0.145,-0.115
144,-0.125,-0.125
145,-0.065,-0.075
146,0.005,-0.005
147,0.005,-0.035
148,-0.035,-0.065
149,-0.055,-0.085
150,-0.085,-0.095
151,-0.135,-0.105
152,-0.145,-0.115
153,-0.165,-0.125
154,-0.165,-0.115
155,-0.165,-0.125
156,-0.175,-0.135
157,-0.155,-0.135
158,-0.165,-0.135
159,-0.175,-0.135
160,-0.155,-0.145
161,-0.165,-0.125
162,-0.155,-0.125
163,-0.145,-0.125
164,-0.155,-0.105
165,-0.395,-0.025
166,-0.255,0.075
167,0.355,0.255
168,1.455,-0.385
169,1.535,-0.575
170,0.085,-0.895
171,-0.575,-0.895
172,-0.455,-0.395
173,-0.225,-0.115
174,-0.125,-0.015
175,-0.155,-0.055
176,-0.185,-0.055
177,-0.175,-0.055
178,-0.175,-0.065
179,-0.175,-0.065
180,-0.155,-0.045
181,-0.165,-0.035
182,-0.155,-0.045
183,-0.155,-0.055
184,-0.145,-0.045
185,-0.125,-0.025
186,-0.125,-0.035
187,-0.115,-0.035
188,-0.095,-0.015
189,-0.085,-0.005
190,-0.065,-0.005
191,-0.055,-0.005
192,-0.055,0.005
193,-0.025,0.015
194,-0.005,0.025
195,0.015,0.015
196,0.045,0.025
197,0.065,0.045
198,0.075,0.045
199,0.105,0.045
200,0.135,0.055
201,0.175,0.065
202,0.195,0.075
203,0.215,0.065
204,0.235,0.095
205,0.225,0.115
206,0.195,0.115
207,0.165,0.085
208,0.115,0.065
209,0.095,0.055
210,0.045,0.015
211,0.015,-0.015
212,-0.015,-0.055
213,-0.035,-0.045
214,-0.045,-0.065
215,-0.055,-0.075
216,-0.065,-0.075
217,-0.055,-0.065
218,-0.055,-0.065
219,-0.045,-0.075
220,-0.035,-0.065
221,-0.045,-0.055
222,-0.045,-0.065
223,-0.045,-0.075
224,-0.065,-0.065
225,-0.055,-0.065
226,-0.045,-0.065
227,-0.045,-0.075
228,-0.045,-0.085
229,-0.045,-0.075
230,-0.045,-0.085
231,-0.055,-0.105
232,-0.075,-0.115
233,-0.065,-0.105
234,-0.085,-0.115
235,-0.095,-0.125
236,-0.095,-0.125
237,-0.095,-0.115
238,-0.095,-0.135
239,-0.095,-0.145
240,-0.115,-0.135
241,-0.105,-0.135
242,-0.105,-0.155
243,-0.085,-0.165
244,-0.005,-0.105
245,0.055,-0.045
246,0.035,-0.065
247,-0.025,-0.135
248,-0.075,-0.135
249,-0.085,-0.145
250,-0.105,-0.145
251,-0.135,-0.165
252,-0.145,-0.165
253,-0.125,-0.155
254,-0.125,-0.155
255,-0.145,-0.175
256,-0.145,-0.165
257,-0.155,-0.155
258,-0.155,-0.165
259,-0.145,-0.165
260,-0.145,-0.165
261,-0.125,-0.145
262,-0.125,-0.135
263,-0.115,-0.155
264,-0.245,-0.105
265,-0.425,-0.085
266,-0.035,0.275
267,0.775,-0.125
268,1.745,-0.415
269,0.975,-0.655
270,-0.335,-1.035
271,-0.535,-0.715
272,-0.355,-0.315
273,-0.155,-0.085
274,-0.125,-0.035
275,-0.145,-0.075
276,-0.165,-0.095
277,-0.145,-0.075
278,-0.155,-0.075
279,-0.155,-0.075
280,-0.135,-0.075
281,-0.145,-0.065
282,-0.135,-0.055
283,-0.135,-0.065
284,-0.125,-0.065
285,-0.105,-0.045
286,-0.095,-0.045
287,-0.095,-0.055
288,-0.085,-0.045
289,-0.045,-0.035
290,-0.035,-0.015
291,-0.025,-0.025
292,0.005,-0.015
293,0.015,-0.005
294,0.025,0.005
295,0.065,-0.005
296,0.075,0.015
297,0.105,0.025
298,0.135,0.025
299,0.165,0.035
300,0.195,0.045
301,0.205,0.065
302,0.215,0.075
303,0.225,0.075
304,0.195,0.085
305,0.185,0.085
306,0.135,0.055
307,0.085,0.035
308,0.065,0.025
309,0.035,-0.005
310,-0.015,-0.045
311,-0.015,-0.065
312,-0.055,-0.075
313,-0.045,-0.075
314,-0.065,-0.075
315,-0.055,-0.085
316,-0.045,-0.065
317,-0.055,-0.075
318,-0.055,-0.075
319,-0.045,-0.075
320,-0.055,-0.075
321,-0.055,-0.075
322,-0.045,-0.075
323,-0.065,-0.095
324,-0.055,-0.085
325,-0.045,-0.085
326,-0.055,-0.095
327,-0.055,-0.105
328,-0.075,-0.105
329,-0.065,-0.105
330,-0.075,-0.105
331,-0.085,-0.125
332,-0.085,-0.135
333,-0.085,-0.125
334,-0.105,-0.135
335,-0.095,-0.145
336,-0.105,-0.145
337,-0.105,-0.135
338,-0.115,-0.155
339,-0.105,-0.175
340,-0.065,-0.165
341,-0.005,-0.105
342,0.035,-0.055
343,0.015,-0.085
344,-0.055,-0.145
345,-0.055,-0.135
346,-0.095,-0.165
347,-0.125,-0.175
348,-0.125,-0.175
349,-0.125,-0.165
350,-0.145,-0.165
351,-0.145,-0.185
352,-0.155,-0.175
353,-0.145,-0.155
354,-0.145,-0.165
355,-0.145,-0.175
356,-0.125,-0.165
357,-0.135,-0.145
358,-0.115,-0.145
359,-0.115,-0.155
360,-0.345,-0.095
361,-0.375,-0.085
362,0.025,0.295
363,0.965,-0.005
364,1.805,-0.275
365,1.045,-0.525
366,-0.255,-0.985
367,-0.585,-0.825
368,-0.405,-0.395
369,-0.205,-0.165
370,-0.105,-0.055
371,-0.135,-0.095
372,-0.135,-0.105
373,-0.145,-0.095
374,-0.145,-0.095
375,-0.145,-0.105
376,-0.145,-0.095
377,-0.135,-0.085
378,-0.135,-0.075
379,-0.115,-0.085
380,-0.105,-0.085
381,-0.085,-0.065
382,-0.095,-0.075
383,-0.085,-0.075
384,-0.095,-0.065
385,-0.065,-0.055
386,-0.035,-0.045
387,-0.045,-0.065
388,-0.005,-0.055
389,0.025,-0.025
390,0.035,-0.035
391,0.035,-0.045
392,0.045,-0.035
393,0.095,-0.025
394,0.135,-0.015
395,0.135,-0.025
396,0.185,-0.015
397,0.205,0.015
398,0.235,0.025
399,0.235,0.025
400,0.245,0.035
401,0.245,0.055
402,0.235,0.075
403,0.185,0.055
404,0.165,0.045
405,0.125,0.035
406,0.075,0.005
407,0.035,-0.025
408,0.025,-0.035
409,-0.025,-0.065
410,-0.045,-0.055
411,-0.035,-0.065
412,-0.055,-0.085
413,-0.055,-0.075
414,-0.055,-0.065
415,-0.055,-0.075
416,-0.035,-0.085
417,-0.055,-0.065
418,-0.035,-0.055
419,-0.045,-0.065
420,-0.035,-0.075
421,-0.025,-0.065
422,-0.025,-0.055
423,-0.045,-0.065
424,-0.035,-0.075
425,-0.055,-0.085
426,-0.035,-0.075
427,-0.045,-0.085
428,-0.055,-0.115
429,-0.035,-0.115
430,-0.035,-0.095
431,0.035,-0.045
432,0.065,-0.035
433,0.015,-0.065
434,0.005,-0.095
435,-0.025,-0.095
436,-0.085,-0.145
437,-0.095,-0.145
438,-0.115,-0.135
439,-0.135,-0.145
440,-0.125,-0.155
441,-0.145,-0.145
442,-0.135,-0.135
443,-0.135,-0.145
444,-0.145,-0.155
445,-0.125,-0.145
446,-0.135,-0.115
447,-0.135,-0.135
448,-0.125,-0.125
449,-0.095,-0.125
450,-0.185,-0.095
451,-0.435,-0.065
452,-0.265,0.065
453,0.555,0.405
454,1.665,-0.085
455,1.495,-0.375
456,0.105,-0.815
457,-0.585,-0.855
458,-0.505,-0.535
459,-0.315,-0.255
460,-0.155,-0.095
461,-0.125,-0.045
462,-0.155,-0.065
463,-0.175,-0.075
464,-0.155,-0.075
465,-0.155,-0.075
466,-0.155,-0.045
467,-0.145,-0.055
468,-0.145,-0.055
469,-0.115,-0.035
470,-0.125,-0.025
471,-0.125,-0.045
472,-0.105,-0.035
473,-0.105,-0.035
474,-0.085,-0.015
475,-0.085,-0.015
476,-0.045,-0.015
477,-0.035,-0.005
478,-0.035,-0.005
479,-0.015,-0.015
480,-0.005,0.005
481,0.045,0.015
482,0.055,0.005
483,0.065,-0.005
484,0.115,0.015
485,0.135,0.035
486,0.145,0.025
487,0.165,0.025
488,0.175,0.035
489,0.205,0.065
490,0.195,0.075
491,0.155,0.075
492,0.135,0.075
493,0.085,0.075
494,0.055,0.045
495,0.015,0.015
496,-0.045,-0.005
497,-0.055,-0.015
498,-0.065,-0.015
499,-0.085,-0.035
500,-0.075,-0.035
501,-0.075,-0.025
502,-0.085,-0.035
503,-0.085,-0.035
504,-0.095,-0.035
505,-0.085,-0.025
506,-0.075,-0.025
507,-0.075,-0.035
508,-0.065,-0.025
509,-0.065,-0.025
510,-0.065,-0.025
511,-0.065,-0.045
512,-0.085,-0.045
513,-0.075,-0.035
514,-0.075,-0.045
515,-0.085,-0.045
516,-0.085,-0.065
517,-0.095,-0.065
518,-0.075,-0.085
519,-0.055,-0.085
520,-0.015,-0.015
521,0.015,0.005
522,-0.025,-0.055
523,-0.055,-0.075
524,-0.085,-0.075
525,-0.135,-0.095
526,-0.145,-0.105
527,-0.175,-0.115
528,-0.175,-0.105
529,-0.165,-0.105
530,-0.175,-0.105
531,-0.175,-0.115
532,-0.155,-0.105
533,-0.165,-0.095
534,-0.175,-0.105
535,-0.165,-0.115
536,-0.175,-0.105
537,-0.145,-0.085
538,-0.155,-0.075
539,-0.325,-0.015
540,-0.365,-0.005
541,-0.035,0.325
542,0.715,0.135
543,1.625,-0.325
544,1.215,-0.515
545,-0.085,-0.825
546,-0.575,-0.775
547,-0.465,-0.345
548,-0.235,-0.115
549,-0.145,0.015
550,-0.175,-0.015
551,-0.185,-0.025
552,-0.205,-0.025
553,-0.185,-0.015
554,-0.185,-0.015
555,-0.175,-0.025
556,-0.155,-0.005
557,-0.165,0.005
558,-0.155,-0.005
559,-0.145,-0.005
560,-0.165,0.005
561,-0.135,0.015
562,-0.125,0.005
563,-0.115,0.005
564,-0.095,0.025
565,-0.085,0.045
566,-0.065,0.035
567,-0.045,0.045
568,-0.045,0.045
569,-0.015,0.055
570,0.005,0.065
571,0.025,0.055
572,0.075,0.075
573,0.075,0.085
574,0.105,0.085
575,0.125,0.075
576,0.135,0.095
577,0.165,0.105
578,0.175,0.115
579,0.185,0.115
580,0.165,0.125
581,0.125,0.135
582,0.085,0.105
583,0.035,0.065
584,-0.015,0.055
585,-0.035,0.025
586,-0.065,0.005
587,-0.085,-0.025
588,-0.075,-0.025
589,-0.105,-0.025
590,-0.115,-0.035
591,-0.115,-0.045
592,-0.125,-0.035
593,-0.105,-0.025
594,-0.095,-0.025
595,-0.115,-0.045
596,-0.095,-0.025
597,-0.085,-0.015
598,-0.095,-0.025
599,-0.095,-0.035
600,-0.115,-0.035
601,-0.095,-0.025
602,-0.095,-0.035
603,-0.095,-0.045
604,-0.095,-0.045
605,-0.085,-0.035
606,-0.095,-0.055
607,-0.115,-0.065
608,-0.135,-0.065
609,-0.115,-0.055
610,-0.125,-0.065
611,-0.145,-0.095
612,-0.135,-0.105
613,-0.105,-0.095
614,-0.055,-0.035
615,0.005,-0.005
616,-0.025,-0.045
617,-0.065,-0.075
618,-0.095,-0.085
619,-0.145,-0.115
620,-0.135,-0.115
621,-0.165,-0.115
622,-0.165,-0.105
623,-0.185,-0.125
624,-0.175,-0.125
625,-0.175,-0.125
626,-0.185,-0.115
627,-0.185,-0.125
628,-0.165,-0.135
629,-0.155,-0.125
630,-0.165,-0.125
631,-0.155,-0.125
632,-0.155,-0.115
633,-0.335,-0.035
634,-0.395,-0.015
635,0.065,0.345
636,1.025,-0.235
637,1.755,-0.495
638,0.595,-0.695
639,-0.505,-0.975
640,-0.545,-0.525
641,-0.315,-0.175
642,-0.155,-0.005
643,-0.155,-0.025
644,-0.175,-0.045
645,-0.175,-0.045
646,-0.185,-0.045
647,-0.165,-0.055
648,-0.175,-0.045
649,-0.165,-0.035
650,-0.165,-0.025
651,-0.165,-0.035
652,-0.145,-0.025
653,-0.135,-0.015
654,-0.135,-0.015
655,-0.125,-0.025
656,-0.115,-0.015
657,-0.095,0.015
658,-0.085,0.005
659,-0.075,0.005
660,-0.045,0.025
661,-0.025,0.035
662,-0.015,0.035
663,0.005,0.035
664,0.005,0.045
665,0.055,0.065
666,0.085,0.065
667,0.095,0.045
668,0.145,0.055
669,0.165,0.075
670,0.185,0.085
671,0.185,0.075
672,0.185,0.105
673,0.215,0.115
674,0.185,0.125
675,0.145,0.095
676,0.125,0.085
677,0.085,0.075
678,0.035,0.045
679,0.005,0.005
680,-0.015,-0.015
681,-0.065,-0.025
682,-0.075,-0.035
683,-0.075,-0.055
684,-0.075,-0.065
685,-0.065,-0.055
686,-0.085,-0.045
687,-0.085,-0.055
688,-0.075,-0.055
689,-0.095,-0.055
690,-0.075,-0.045
691,-0.075,-0.055
692,-0.075,-0.055
693,-0.065,-0.045
694,-0.065,-0.045
695,-0.065,-0.045
696,-0.075,-0.055
697,-0.095,-0.065
698,-0.075,-0.045
699,-0.085,-0.055
700,-0.075,-0.075
701,-0.075,-0.075
702,-0.085,-0.065
703,-0.095,-0.085
704,-0.105,-0.095
705,-0.135,-0.105
706,-0.115,-0.095
707,-0.115,-0.105
708,-0.125,-0.115
709,-0.105,-0.105
710,-0.125,-0.105
711,-0.125,-0.115
712,-0.115,-0.115
713,-0.145,-0.125
714,-0.125,-0.095
715,-0.115,-0.105
716,-0.125,-0.115
717,-0.125,-0.125
718,-0.115,-0.115
719,-0.125,-0.115
720,-0.125,-0.125
721,-0.145,-0.125
722,-0.125,-0.115
723,-0.135,-0.135
724,-0.095,-0.145
725,-0.035,-0.095
726,0.015,-0.035
727,-0.015,-0.075
728,-0.055,-0.105
729,-0.105,-0.115
730,-0.115,-0.115
731,-0.135,-0.135
732,-0.135,-0.145
733,-0.135,-0.135
734,-0.145,-0.135
735,-0.155,-0.155
736,-0.165,-0.145
737,-0.155,-0.135
738,-0.145,-0.135
739,-0.155,-0.145
740,-0.115,-0.145
741,-0.095,-0.115
742,-0.185,-0.095
743,-0.405,-0.055
744,-0.195,0.135
745,0.435,0.205
746,1.555,-0.385
747,1.445,-0.575
748,0.075,-0.865
749,-0.525,-0.885
750,-0.435,-0.395
751,-0.185,-0.135
752,-0.125,-0.025
753,-0.135,-0.045
754,-0.155,-0.075
755,-0.155,-0.085
756,-0.145,-0.055
757,-0.145,-0.065
758,-0.135,-0.065
759,-0.135,-0.065
760,-0.145,-0.065
761,-0.135,-0.045
762,-0.125,-0.055
763,-0.115,-0.045
764,-0.095,-0.045
765,-0.105,-0.035
766,-0.085,-0.035
767,-0.085,-0.035
768,-0.075,-0.025
769,-0.045,-0.005
770,-0.035,-0.005
771,-0.005,-0.005
772,0.015,0.005
773,0.035,0.015
774,0.055,0.025
775,0.075,0.015
776,0.085,0.025
777,0.125,0.045
778,0.165,0.045
779,0.195,0.045
780,0.235,0.055
781,0.245,0.075
782,0.255,0.095
783,0.255,0.085
784,0.235,0.085
785,0.205,0.095
786,0.175,0.085
787,0.135,0.065
788,0.105,0.035
789,0.075,0.015
790,0.015,-0.005
791,-0.015,-0.025
792,-0.015,-0.045
793,-0.055,-0.055
794,-0.045,-0.055
795,-0.065,-0.075
796,-0.055,-0.075
797,-0.045,-0.065
798,-0.045,-0.075
799,-0.045,-0.075
800,-0.055,-0.075
801,-0.055,-0.055
802,-0.055,-0.055
803,-0.055,-0.065
804,-0.045,-0.065
805,-0.035,-0.055
806,-0.055,-0.075
807,-0.055,-0.075
808,-0.075,-0.085
809,-0.065,-0.075
810,-0.055,-0.085
811,-0.065,-0.105
812,-0.055,-0.105
813,-0.075,-0.095
814,-0.085,-0.115
815,-0.105,-0.125
816,-0.115,-0.125
817,-0.105,-0.125
818,-0.105,-0.135
819,-0.105,-0.145
820,-0.105,-0.135
821,-0.105,-0.125
822,-0.105,-0.135
823,-0.115,-0.135
824,-0.135,-0.145
825,-0.115,-0.135
826,-0.105,-0.135
827,-0.115,-0.155
828,-0.095,-0.135
829,-0.105,-0.125
830,-0.115,-0.135
831,-0.105,-0.145
832,-0.115,-0.135
833,-0.115,-0.135
834,-0.105,-0.145
835,-0.105,-0.145
836,-0.105,-0.135
837,-0.095,-0.135
838,-0.115,-0.135
839,-0.105,-0.145
840,-0.115,-0.145
841,-0.105,-0.155
842,-0.065,-0.145
843,0.005,-0.095
844,0.055,-0.035
845,0.015,-0.075
846,-0.025,-0.115
847,-0.045,-0.135
848,-0.085,-0.155
849,-0.095,-0.145
850,-0.115,-0.155
851,-0.125,-0.155
852,-0.115,-0.155
853,-0.115,-0.155
854,-0.115,-0.155
855,-0.125,-0.155
856,-0.135,-0.155
857,-0.125,-0.145
858,-0.125,-0.145
859,-0.115,-0.155
860,-0.085,-0.135
861,-0.105,-0.115
862,-0.295,-0.065
863,-0.305,-0.045
864,0.065,0.305
865,0.875,-0.165
866,1.605,-0.335
867,1.005,-0.595
868,-0.105,-0.985
869,-0.485,-0.805
870,-0.375,-0.365
871,-0.225,-0.165
872,-0.135,-0.055
873,-0.135,-0.075
874,-0.145,-0.075
875,-0.155,-0.095
876,-0.145,-0.095
877,-0.135,-0.075
878,-0.135,-0.065
879,-0.145,-0.085
880,-0.135,-0.085
881,-0.125,-0.075
882,-0.125,-0.055
883,-0.115,-0.075
884,-0.115,-0.065
885,-0.105,-0.065
886,-0.095,-0.045
887,-0.085,-0.055
888,-0.055,-0.045
889,-0.055,-0.035
890,-0.035,-0.025
891,-0.025,-0.025
892,-0.015,-0.025
893,0.015,-0.015
894,0.035,-0.005
895,0.055,-0.015
896,0.085,-0.005
897,0.095,0.005
898,0.145,0.015
899,0.165,0.015
900,0.185,0.025
901,0.215,0.045
902,0.225,0.055
903,0.215,0.055
904,0.215,0.065
905,0.165,0.075
906,0.135,0.065
907,0.095,0.045
908,0.045,0.005
909,0.025,-0.005
910,-0.025,-0.025
911,-0.055,-0.065
912,-0.055,-0.075
913,-0.085,-0.075
914,-0.095,-0.085
915,-0.115,-0.095
916,-0.115,-0.095
917,-0.095,-0.075
918,-0.105,-0.085
919,-0.115,-0.095
920,-0.105,-0.085
921,-0.095,-0.085
922,-0.095,-0.065
923,-0.105,-0.095
924,-0.095,-0.085
925,-0.085,-0.085
926,-0.095,-0.085
927,-0.095,-0.095
928,-0.095,-0.095
929,-0.105,-0.105
930,-0.105,-0.115
931,-0.115,-0.115
932,-0.115,-0.125
933,-0.115,-0.115
934,-0.125,-0.125
935,-0.135,-0.145
936,-0.155,-0.145
937,-0.145,-0.135
938,-0.145,-0.145
939,-0.155,-0.155
940,-0.145,-0.155
941,-0.145,-0.145
942,-0.155,-0.145
943,-0.165,-0.175
944,-0.175,-0.175
945,-0.145,-0.145
946,-0.065,-0.085
947,-0.025,-0.075
948,-0.035,-0.105
949,-0.085,-0.125
950,-0.095,-0.125
951,-0.145,-0.155
952,-0.175,-0.155
953,-0.165,-0.155
954,-0.175,-0.145
955,-0.195,-0.175
956,-0.185,-0.165
957,-0.185,-0.155
958,-0.175,-0.165
959,-0.195,-0.155
960,-0.175,-0.155
961,-0.175,-0.145
962,-0.175,-0.145
963,-0.165,-0.145
964,-0.135,-0.135
965,-0.195,-0.105
966,-0.445,-0.075
967,-0.335,0.025
968,0.205,0.355
969,1.285,0.015
970,1.785,-0.285
971,0.675,-0.585
972,-0.395,-0.895
973,-0.595,-0.685
974,-0.445,-0.355
975,-0.265,-0.165
976,-0.175,-0.075
977,-0.185,-0.065
978,-0.185,-0.085
979,-0.195,-0.095
980,-0.185,-0.085
981,-0.205,-0.055
982,-0.175,-0.075
983,-0.175,-0.085
984,-0.155,-0.075
985,-0.155,-0.065
986,-0.155,-0.075
987,-0.165,-0.075
988,-0.135,-0.085
989,-0.125,-0.055
990,-0.135,-0.065
991,-0.135,-0.065
992,-0.105,-0.055
993,-0.085,-0.045
994,-0.065,-0.055
995,-0.045,-0.065
996,-0.005,-0.035
997,0.015,-0.035
998,0.025,-0.045
999,0.045,-0.025
1000,0.095,-0.015
1001,0.105,-0.015
1002,0.125,-0.005
1003,0.145,-0.005
1004,0.165,0.025
1005,0.155,0.045
1006,0.165,0.075
1007,0.135,0.055
1008,0.085,0.045
1009,0.025,0.035
1010,0.015,0.015
1011,-0.025,-0.025
1012,-0.075,-0.035
1013,-0.105,-0.045
1014,-0.085,-0.065
1015,-0.155,-0.085
1016,-0.165,-0.085
1017,-0.155,-0.085
1018,-0.135,-0.095
1019,-0.165,-0.095
1020,-0.175,-0.105
1021,-0.115,-0.085
1022,-0.135,-0.075
1023,-0.155,-0.105
1024,-0.125,-0.105
1025,-0.145,-0.085
1026,-0.115,-0.085
1027,-0.115,-0.095
1028,-0.105,-0.115
1029,-0.115,-0.085
1030,-0.115,-0.095
1031,-0.125,-0.115
1032,-0.115,-0.115
1033,-0.145,-0.125
1034,-0.135,-0.125
1035,-0.135,-0.145
1036,-0.155,-0.145
1037,-0.135,-0.145
1038,-0.185,-0.165
1039,-0.115,-0.155
1040,-0.095,-0.125
1041,-0.035,-0.085
1042,-0.065,-0.065
1043,-0.085,-0.145
1044,-0.095,-0.145
1045,-0.155,-0.145
1046,-0.205,-0.165
1047,-0.205,-0.185
1048,-0.225,-0.195
1049,-0.225,-0.175
1050,-0.225,-0.175
1051,-0.205,-0.175
1052,-0.215,-0.185
1053,-0.205,-0.165
1054,-0.205,-0.175
1055,-0.215,-0.195
1056,-0.225,-0.165
1057,-0.205,-0.175
1058,-0.185,-0.165
1059,-0.195,-0.155
1060,-0.355,-0.085
1061,-0.225,0.045
1062,0.295,0.375
1063,1.115,0.065
1064,1.495,-0.265
1065,0.405,-0.665
1066,-0.365,-0.825
1067,-0.505,-0.585
1068,-0.345,-0.305
1069,-0.235,-0.165
1070,-0.195,-0.105
1071,-0.185,-0.125
1072,-0.195,-0.135
1073,-0.185,-0.125
1074,-0.175,-0.125
1075,-0.195,-0.135
1076,-0.155,-0.125
1077,-0.155,-0.125
1078,-0.165,-0.115
1079,-0.125,-0.125
1080,-0.105,-0.095
1081,-0.115,-0.095
1082,-0.125,-0.115
1083,-0.065,-0.095
1084,-0.055,-0.065
1085,-0.045,-0.085
1086,-0.055,-0.095
1087,-0.025,-0.085
1088,-0.015,-0.065
1089,0.005,-0.055
1090,0.025,-0.035
1091,0.055,-0.035
1092,0.065,-0.025
1093,0.085,-0.015
1094,0.115,-0.015
1095,0.125,-0.025
1096,0.155,-0.005
1097,0.165,-0.005
1098,0.195,0.025
1099,0.175,0.025
1100,0.165,0.045
1101,0.125,0.065
1102,0.105,0.035
1103,0.025,0.015
1104,-0.015,0.005
1105,-0.045,-0.005
1106,-0.085,-0.035
1107,-0.115,-0.055
1108,-0.125,-0.055
1109,-0.145,-0.065
1110,-0.185,-0.065
1111,-0.175,-0.075
1112,-0.195,-0.075
1113,-0.165,-0.065
1114,-0.185,-0.065
1115,-0.185,-0.075
1116,-0.155,-0.055
1117,-0.155,-0.035
1118,-0.165,-0.045
1119,-0.155,-0.055
1120,-0.145,-0.035
1121,-0.135,-0.025
1122,-0.145,-0.035
1123,-0.155,-0.045
1124,-0.135,-0.045
1125,-0.145,-0.045
1126,-0.155,-0.035
1127,-0.145,-0.065
1128,-0.155,-0.065
1129,-0.185,-0.075
1130,-0.155,-0.085
1131,-0.115,-0.065
1132,-0.075,-0.015
1133,-0.035,0.005
1134,-0.085,-0.035
1135,-0.105,-0.055
1136,-0.125,-0.075
1137,-0.195,-0.105
1138,-0.195,-0.095
1139,-0.215,-0.115
1140,-0.215,-0.115
1141,-0.205,-0.115
1142,-0.205,-0.105
1143,-0.225,-0.125
1144,-0.215,-0.115
1145,-0.215,-0.115
1146,-0.205,-0.105
1147,-0.215,-0.105
1148,-0.205,-0.115
1149,-0.195,-0.105
1150,-0.175,-0.085
1151,-0.295,-0.065
1152,-0.495,-0.025
1153,-0.275,0.195
1154,0.485,0.445
1155,1.555,-0.155
1156,1.675,-0.425
1157,0.065,-0.815
1158,-0.635,-0.795
1159,-0.565,-0.465
1160,-0.345,-0.185
1161,-0.225,-0.055
1162,-0.205,-0.025
1163,-0.215,-0.055
1164,-0.215,-0.045
1165,-0.205,-0.045
1166,-0.205,-0.035
1167,-0.225,-0.045
1168,-0.215,-0.035
1169,-0.205,-0.025
1170,-0.195,-0.025
1171,-0.195,-0.035
1172,-0.165,-0.025
1173,-0.155,-0.015
1174,-0.155,0.005
1175,-0.165,-0.015
1176,-0.145,-0.005
1177,-0.115,0.015
1178,-0.105,0.015
1179,-0.085,0.015
1180,-0.045,0.035
1181,-0.045,0.045
1182,-0.025,0.055
1183,0.005,0.045
1184,0.025,0.055
1185,0.065,0.065
1186,0.095,0.075
1187,0.115,0.055
1188,0.145,0.075
1189,0.155,0.105
1190,0.155,0.095
1191,0.145,0.095
1192,0.105,0.095
1193,0.085,0.095
1194,0.025,0.055
1195,-0.025,0.025
1196,-0.045,0.015
1197,-0.075,-0.005
1198,-0.105,-0.015
1199,-0.125,-0.055
1200,-0.155,-0.045
1201,-0.155,-0.055
1202,-0.155,-0.055
1203,-0.155,-0.075
1204,-0.155,-0.065
1205,-0.155,-0.045
1206,-0.145,-0.055
1207,-0.155,-0.065
1208,-0.175,-0.055
1209,-0.155,-0.045
1210,-0.145,-0.045
1211,-0.135,-0.045
1212,-0.135,-0.045
1213,-0.145,-0.025
1214,-0.135,-0.035
1215,-0.135,-0.045
1216,-0.145,-0.045
1217,-0.145,-0.055
1218,-0.145,-0.055
1219,-0.145,-0.065
1220,-0.145,-0.065
1221,-0.145,-0.055
1222,-0.155,-0.065
1223,-0.165,-0.085
1224,-0.175,-0.105
1225,-0.165,-0.095
1226,-0.095,-0.055
1227,-0.045,-0.005
1228,-0.065,-0.035
1229,-0.095,-0.075
1230,-0.115,-0.075
1231,-0.155,-0.115
1232,-0.175,-0.115
1233,-0.205,-0.105
1234,-0.205,-0.125
1235,-0.215,-0.125
1236,-0.215,-0.135
1237,-0.195,-0.115
1238,-0.205,-0.115
1239,-0.215,-0.135
1240,-0.205,-0.125
1241,-0.205,-0.115
1242,-0.205,-0.115
1243,-0.195,-0.125
1244,-0.165,-0.115
1245,-0.235,-0.045
1246,-0.435,-0.005
1247,-0.205,0.205
1248,0.455,0.115
1249,1.485,-0.485
1250,1.435,-0.695
1251,-0.055,-0.945
1252,-0.625,-0.845
1253,-0.465,-0.305
1254,-0.255,-0.095
1255,-0.185,-0.015
1256,-0.215,-0.055
1257,-0.205,-0.045
1258,-0.205,-0.055
1259,-0.205,-0.055
1260,-0.195,-0.055
1261,-0.195,-0.045
1262,-0.195,-0.035
1263,-0.185,-0.045
1264,-0.185,-0.035
1265,-0.175,-0.025
1266,-0.155,-0.025
1267,-0.145,-0.025
1268,-0.125,-0.005
1269,-0.125,-0.005
1270,-0.115,0.005
1271,-0.095,0.005
1272,-0.085,0.015
1273,-0.055,0.045
1274,-0.035,0.045
1275,-0.025,0.045
1276,0.015,0.065
1277,0.045,0.065
1278,0.065,0.085
1279,0.095,0.085
1280,0.125,0.085
1281,0.155,0.105
1282,0.185,0.115
1283,0.205,0.115
1284,0.215,0.125
1285,0.195,0.125
1286,0.165,0.115
1287,0.145,0.095
1288,0.075,0.075
1289,0.055,0.055
1290,0.015,0.015
1291,-0.025,-0.015
1292,-0.035,-0.035
1293,-0.065,-0.045
1294,-0.085,-0.055
1295,-0.105,-0.085
1296,-0.125,-0.085
1297,-0.105,-0.075
1298,-0.095,-0.075
1299,-0.095,-0.075
1300,-0.115,-0.075
1301,-0.095,-0.075
1302,-0.105,-0.065
1303,-0.115,-0.085
1304,-0.095,-0.065
1305,-0.095,-0.065
1306,-0.095,-0.055
1307,-0.105,-0.065
1308,-0.095,-0.075
1309,-0.075,-0.065
1310,-0.085,-0.065
1311,-0.095,-0.075
1312,-0.075,-0.075
1313,-0.105,-0.075
1314,-0.105,-0.075
1315,-0.105,-0.085
1316,-0.105,-0.095
1317,-0.095,-0.095
1318,-0.115,-0.095
1319,-0.115,-0.105
1320,-0.105,-0.105
1321,-0.145,-0.125
1322,-0.105,-0.125
1323,-0.095,-0.115
1324,-0.015,-0.045
1325,0.025,-0.035
1326,-0.035,-0.085
1327,-0.065,-0.095
1328,-0.095,-0.125
1329,-0.135,-0.135
1330,-0.135,-0.115
1331,-0.155,-0.135
1332,-0.145,-0.145
1333,-0.145,-0.135
1334,-0.155,-0.135
1335,-0.155,-0.135
1336,-0.155,-0.145
1337,-0.175,-0.145
1338,-0.155,-0.135
1339,-0.165,-0.135
1340,-0.145,-0.135
1341,-0.125,-0.125
1342,-0.135,-0.105
1343,-0.335,-0.035
1344,-0.295,-0.005
1345,0.265,0.345
1346,1.285,-0.345
1347,1.745,-0.555
1348,0.435,-0.735
1349,-0.555,-0.935
1350,-0.495,-0.445
1351,-0.245,-0.145
1352,-0.145,-0.015
1353,-0.145,-0.035
1354,-0.165,-0.055
1355,-0.165,-0.065
1356,-0.145,-0.055
1357,-0.155,-0.035
1358,-0.155,-0.045
1359,-0.135,-0.045
1360,-0.145,-0.035
1361,-0.135,-0.025
1362,-0.135,-0.025
1363,-0.115,-0.025
1364,-0.105,-0.015
1365,-0.085,0.005
1366,-0.075,-0.005
1367,-0.065,-0.005
1368,-0.065,0.015
1369,-0.035,0.025
1370,-0.025,0.025
1371,-0.005,0.025
1372,0.025,0.045
1373,0.045,0.055
1374,0.055,0.055
1375,0.075,0.055
1376,0.095,0.065
1377,0.135,0.085
1378,0.155,0.085
1379,0.185,0.075
1380,0.215,0.085
1381,0.235,0.125
1382,0.235,0.125
1383,0.205,0.105
1384,0.175,0.115
1385,0.155,0.095
1386,0.125,0.075
1387,0.075,0.045
1388,0.045,0.015
1389,0.015,0.015
1390,-0.015,-0.025
1391,-0.045,-0.045
1392,-0.055,-0.055
1393,-0.055,-0.055
1394,-0.055,-0.045
1395,-0.065,-0.055
1396,-0.055,-0.055
1397,-0.045,-0.045
1398,-0.065,-0.045
1399,-0.065,-0.055
1400,-0.055,-0.045
1401,-0.055,-0.035
1402,-0.055,-0.035
1403,-0.055,-0.045
1404,-0.055,-0.045
1405,-0.045,-0.045
1406,-0.045,-0.045
1407,-0.055,-0.055
1408,-0.045,-0.055
1409,-0.055,-0.055
1410,-0.055,-0.045
1411,-0.065,-0.065
1412,-0.065,-0.075
1413,-0.065,-0.065
1414,-0.065,-0.075
1415,-0.075,-0.085
1416,-0.075,-0.095
1417,-0.085,-0.085
1418,-0.085,-0.095
1419,-0.095,-0.105
1420,-0.085,-0.085
1421,-0.085,-0.085
1422,-0.085,-0.095
1423,-0.095,-0.115
1424,-0.095,-0.105
1425,-0.095,-0.095
1426,-0.085,-0.095
1427,-0.085,-0.105
1428,-0.085,-0.115
1429,-0.075,-0.115
1430,-0.055,-0.105
1431,0.025,-0.045
1432,0.025,-0.035
1433,-0.015,-0.075
1434,-0.025,-0.065
1435,-0.055,-0.105
1436,-0.055,-0.105
1437,-0.085,-0.105
1438,-0.105,-0.115
1439,-0.105,-0.135
1440,-0.125,-0.125
1441,-0.115,-0.115
1442,-0.115,-0.115
1443,-0.115,-0.125
1444,-0.105,-0.115
1445,-0.105,-0.115
1446,-0.105,-0.105
1447,-0.085,-0.115
1448,-0.085,-0.095
1449,-0.225,-0.015
1450,-0.315,-0.015
1451,0.025,0.325
1452,0.775,-0.125
1453,1.685,-0.445
1454,1.175,-0.615
1455,-0.145,-0.955
1456,-0.525,-0.725
1457,-0.365,-0.275
1458,-0.155,-0.075
1459,-0.095,0.005
1460,-0.105,-0.025
1461,-0.125,-0.025
1462,-0.135,-0.025
1463,-0.125,-0.025
1464,-0.145,-0.025
1465,-0.125,-0.015
1466,-0.115,-0.005
1467,-0.115,-0.025
1468,-0.095,-0.005
1469,-0.095,0.005
1470,-0.095,0.005
1471,-0.105,-0.005
1472,-0.095,0.015
1473,-0.065,0.035
1474,-0.045,0.035
1475,-0.055,0.015
1476,-0.015,0.045
1477,-0.005,0.055
1478,0.015,0.055
1479,0.025,0.055
1480,0.045,0.075
1481,0.075,0.085
1482,0.105,0.085
1483,0.145,0.095
1484,0.165,0.105
1485,0.205,0.125
1486,0.225,0.135
1487,0.255,0.125
1488,0.275,0.135
1489,0.285,0.155
1490,0.275,0.155
1491,0.255,0.145
1492,0.215,0.135
1493,0.185,0.125
1494,0.135,0.095
1495,0.085,0.055
1496,0.055,0.025
1497,0.015,0.015
1498,-0.005,-0.015
1499,-0.025,-0.035
1500,-0.025,-0.035
1501,-0.035,-0.025
1502,-0.035,-0.035
1503,-0.045,-0.045
1504,-0.035,-0.045
1505,-0.045,-0.035
1506,-0.035,-0.025
1507,-0.035,-0.035
1508,-0.035,-0.035
1509,-0.025,-0.025
1510,-0.035,-0.015
1511,-0.045,-0.025
1512,-0.025,-0.035
1513,-0.045,-0.025
1514,-0.035,-0.035
1515,-0.035,-0.045
1516,-0.045,-0.045
1517,-0.035,-0.035
1518,-0.055,-0.055
1519,-0.065,-0.065
1520,-0.065,-0.065
1521,-0.065,-0.065
1522,-0.085,-0.065
1523,-0.095,-0.085
1524,-0.095,-0.085
1525,-0.085,-0.075
1526,-0.105,-0.085
1527,-0.115,-0.105
1528,-0.105,-0.095
1529,-0.105,-0.095
1530,-0.105,-0.095
1531,-0.115,-0.095
1532,-0.095,-0.105
1533,-0.095,-0.085
1534,-0.105,-0.085
1535,-0.105,-0.105
1536,-0.125,-0.095
1537,-0.115,-0.105
1538,-0.095,-0.105
1539,-0.055,-0.095
1540,0.025,-0.025
1541,0.045,-0.005
1542,0.005,-0.055
1543,-0.025,-0.065
1544,-0.085,-0.095
1545,-0.075,-0.095
1546,-0.105,-0.105
1547,-0.125,-0.115
1548,-0.115,-0.115
1549,-0.125,-0.105
1550,-0.135,-0.115
1551,-0.135,-0.125
1552,-0.135,-0.115
1553,-0.135,-0.115
1554,-0.135,-0.115
1555,-0.125,-0.115
1556,-0.105,-0.095
1557,-0.075,-0.095
1558,-0.185,-0.055
1559,-0.375,-0.035
1560,-0.185,0.155
1561,0.425,0.185
1562,1.475,-0.375
1563,1.555,-0.585
1564,0.135,-0.855
1565,-0.505,-0.865
1566,-0.425,-0.355
1567,-0.185,-0.105
1568,-0.115,0.005
1569,-0.115,-0.025
1570,-0.145,-0.045
1571,-0.145,-0.045
1572,-0.135,-0.035
1573,-0.125,-0.025
1574,-0.135,-0.035
1575,-0.125,-0.045
1576,-0.135,-0.025
1577,-0.125,-0.015
1578,-0.115,-0.015
1579,-0.105,-0.015
1580,-0.085,-0.015
1581,-0.095,0.005
1582,-0.075,0.005
1583,-0.065,0.005
1584,-0.055,0.015
1585,-0.025,0.035
1586,-0.005,0.045
1587,0.015,0.035
1588,0.025,0.045
1589,0.055,0.065
1590,0.075,0.085
1591,0.095,0.065
1592,0.125,0.075
1593,0.155,0.085
1594,0.195,0.105
1595,0.215,0.105
1596,0.255,0.115
1597,0.285,0.135
1598,0.285,0.135
1599,0.285,0.135
1600,0.255,0.145
1601,0.235,0.135
1602,0.195,0.125
1603,0.145,0.075
1604,0.115,0.055
1605,0.085,0.055
1606,0.035,0.005
1607,0.005,-0.025
1608,-0.015,-0.035
1609,-0.015,-0.045
1610,-0.025,-0.045
1611,-0.035,-0.055
1612,-0.015,-0.045
1613,-0.015,-0.035
1614,-0.025,-0.045
1615,-0.035,-0.055
1616,-0.035,-0.055
1617,-0.025,-0.035
1618,-0.025,-0.045
1619,-0.025,-0.055
1620,-0.015,-0.045
1621,-0.015,-0.045
1622,-0.035,-0.045
1623,-0.035,-0.065
1624,-0.045,-0.065
1625,-0.025,-0.055
1626,-0.035,-0.065
1627,-0.045,-0.085
1628,-0.035,-0.085
1629,-0.045,-0.075
1630,-0.065,-0.085
1631,-0.055,-0.115
1632,-0.085,-0.105
1633,-0.075,-0.105
1634,-0.075,-0.105
1635,-0.085,-0.125
1636,-0.065,-0.115
1637,-0.085,-0.115
1638,-0.085,-0.125
1639,-0.085,-0.135
1640,-0.095,-0.125
1641,-0.085,-0.125
1642,-0.085,-0.115
1643,-0.095,-0.135
1644,-0.065,-0.125
1645,-0.065,-0.105
1646,-0.085,-0.125
1647,-0.085,-0.145
1648,-0.065,-0.135
1649,0.005,-0.065
1650,0.055,-0.025
1651,0.045,-0.055
1652,0.025,-0.095
1653,-0.015,-0.095
1654,-0.055,-0.115
1655,-0.075,-0.145
1656,-0.115,-0.135
1657,-0.105,-0.145
1658,-0.105,-0.145
1659,-0.105,-0.145
1660,-0.105,-0.145
1661,-0.095,-0.135
1662,-0.105,-0.135
1663,-0.115,-0.145
1664,-0.115,-0.145
1665,-0.095,-0.135
1666,-0.085,-0.125
1667,-0.105,-0.135
1668,-0.235,-0.065
1669,-0.285,-0.055
1670,0.035,0.245
1671,0.705,-0.005
1672,1.615,-0.345
1673,1.255,-0.545
1674,-0.055,-0.925
1675,-0.505,-0.845
1676,-0.355,-0.365
1677,-0.135,-0.105
1678,-0.085,-0.025
1679,-0.105,-0.075
1680,-0.135,-0.085
1681,-0.115,-0.075
1682,-0.115,-0.075
1683,-0.115,-0.085
1684,-0.105,-0.075
1685,-0.105,-0.065
1686,-0.105,-0.065
1687,-0.095,-0.075
1688,-0.105,-0.065
1689,-0.085,-0.055
1690,-0.075,-0.045
1691,-0.065,-0.055
1692,-0.055,-0.045
1693,-0.055,-0.025
1694,-0.025,-0.025
1695,-0.015,-0.035
1696,0.005,-0.025
1697,0.035,-0.015
1698,0.065,0.005
1699,0.075,-0.015
1700,0.115,0.005
1701,0.155,0.025
1702,0.165,0.025
1703,0.195,0.025
1704,0.235,0.035
1705,0.265,0.065
1706,0.295,0.075
1707,0.295,0.065
1708,0.295,0.085
1709,0.275,0.095
1710,0.235,0.085
1711,0.185,0.055
1712,0.135,0.035
1713,0.095,0.005
1714,0.045,-0.025
1715,0.015,-0.065
1716,-0.015,-0.075
1717,-0.025,-0.075
1718,-0.045,-0.085
1719,-0.055,-0.105
1720,-0.075,-0.105
1721,-0.055,-0.095
1722,-0.075,-0.095
1723,-0.075,-0.115
1724,-0.065,-0.105
1725,-0.065,-0.095
1726,-0.075,-0.095
1727,-0.075,-0.105
1728,-0.065,-0.105
1729,-0.075,-0.085
1730,-0.075,-0.095
1731,-0.085,-0.105
1732,-0.075,-0.115
1733,-0.065,-0.105
1734,-0.065,-0.095
1735,-0.085,-0.115
1736,-0.075,-0.125
1737,-0.085,-0.125
1738,-0.085,-0.125
1739,-0.085,-0.135
1740,-0.105,-0.145
1741,-0.105,-0.145
1742,-0.105,-0.135
1743,-0.105,-0.145
1744,-0.105,-0.145
1745,-0.135,-0.165
1746,-0.135,-0.155
1747,-0.105,-0.165
1748,-0.045,-0.135
1749,0.025,-0.075
1750,-0.015,-0.095
1751,-0.055,-0.135
1752,-0.075,-0.135
1753,-0.125,-0.155
1754,-0.145,-0.155
1755,-0.165,-0.175
1756,-0.175,-0.175
1757,-0.165,-0.175
1758,-0.175,-0.155
1759,-0.175,-0.165
1760,-0.165,-0.175
1761,-0.185,-0.165
1762,-0.185,-0.155
1763,-0.175,-0.165
1764,-0.165,-0.165
1765,-0.155,-0.145
1766,-0.165,-0.125
1767,-0.415,-0.105
1768,-0.425,-0.065
1769,0.065,0.275
1770,1.165,0.105
1771,1.755,-0.245
1772,0.515,-0.615
1773,-0.445,-0.895
1774,-0.585,-0.655
1775,-0.395,-0.335
1776,-0.235,-0.155
1777,-0.175,-0.075
1778,-0.195,-0.095
1779,-0.205,-0.105
1780,-0.185,-0.105
1781,-0.185,-0.085
1782,-0.195,-0.085
1783,-0.185,-0.095
1784,-0.185,-0.085
1785,-0.175,-0.075
1786,-0.165,-0.075
1787,-0.155,-0.095
1788,-0.135,-0.065
1789,-0.135,-0.065
1790,-0.125,-0.065
1791,-0.105,-0.065
1792,-0.115,-0.055
1793,-0.085,-0.045
1794,-0.065,-0.035
1795,-0.055,-0.055
1796,-0.025,-0.035
1797,-0.015,-0.035
1798,0.015,-0.025
1799,0.045,-0.035
1800,0.065,-0.015
1801,0.095,-0.005
1802,0.125,-0.015
1803,0.145,-0.015
1804,0.185,0.015
1805,0.185,0.025
1806,0.185,0.025
1807,0.185,0.035
1808,0.145,0.055
1809,0.125,0.055
1810,0.085,0.045
1811,0.045,0.015
1812,0.005,-0.005
1813,-0.025,-0.005
1814,-0.055,-0.035
1815,-0.075,-0.065
1816,-0.105,-0.065
1817,-0.095,-0.055
1818,-0.095,-0.065
1819,-0.105,-0.075
1820,-0.095,-0.075
1821,-0.095,-0.055
1822,-0.105,-0.055
1823,-0.095,-0.065
1824,-0.105,-0.055
1825,-0.085,-0.045
1826,-0.095,-0.045
1827,-0.095,-0.055
1828,-0.085,-0.065
1829,-0.085,-0.055
1830,-0.085,-0.055
1831,-0.095,-0.075
1832,-0.085,-0.075
1833,-0.105,-0.075
1834,-0.105,-0.075
1835,-0.115,-0.095
1836,-0.115,-0.085
1837,-0.115,-0.095
1838,-0.125,-0.085
1839,-0.135,-0.105
1840,-0.135,-0.115
1841,-0.155,-0.115
1842,-0.145,-0.105
1843,-0.145,-0.115
1844,-0.165,-0.125
1845,-0.155,-0.125
1846,-0.125,-0.105
1847,-0.065,-0.045
1848,-0.025,-0.025
1849,-0.085,-0.075
1850,-0.095,-0.075
1851,-0.125,-0.125
1852,-0.165,-0.125
1853,-0.165,-0.125
1854,-0.185,-0.125
1855,-0.185,-0.135
1856,-0.195,-0.125
1857,-0.185,-0.135
1858,-0.185,-0.125
1859,-0.195,-0.145
1860,-0.185,-0.135
1861,-0.175,-0.125
1862,-0.175,-0.105
1863,-0.175,-0.125
1864,-0.165,-0.115
1865,-0.305,-0.055
1866,-0.425,-0.025
1867,-0.135,0.255
1868,0.615,0.115
1869,1.595,-0.325
1870,1.235,-0.525
1871,-0.065,-0.895
1872,-0.585,-0.805
1873,-0.435,-0.325
1874,-0.235,-0.105
1875,-0.165,-0.035
1876,-0.165,-0.055
1877,-0.185,-0.055
1878,-0.195,-0.055
1879,-0.205,-0.065
1880,-0.205,-0.045
1881,-0.185,-0.045
1882,-0.185,-0.045
1883,-0.175,-0.055
1884,-0.165,-0.035
1885,-0.165,-0.025
1886,-0.155,-0.015
1887,-0.145,-0.035
1888,-0.145,-0.025
1889,-0.125,-0.015
1890,-0.105,-0.005
1891,-0.085,-0.005
1892,-0.065,0.015
1893,-0.055,0.025
1894,-0.035,0.035
1895,-0.015,0.035
1896,-0.015,0.045
1897,0.025,0.065
1898,0.055,0.065
1899,0.085,0.055
1900,0.115,0.075
1901,0.145,0.095
1902,0.165,0.095
1903,0.185,0.095
1904,0.175,0.105
1905,0.185,0.125
1906,0.165,0.115
1907,0.135,0.095
1908,0.105,0.095
1909,0.055,0.055
1910,0.015,0.025
1911,-0.015,-0.005
1912,-0.055,-0.025
1913,-0.065,-0.035
1914,-0.085,-0.055
1915,-0.085,-0.065
1916,-0.095,-0.065
1917,-0.095,-0.055
1918,-0.095,-0.055
1919,-0.095,-0.065
1920,-0.105,-0.065
1921,-0.105,-0.055
1922,-0.105,-0.055
1923,-0.095,-0.055
1924,-0.085,-0.055
1925,-0.085,-0.045
1926,-0.095,-0.055
1927,-0.095,-0.065
1928,-0.105,-0.065
1929,-0.095,-0.055
1930,-0.105,-0.055
1931,-0.095,-0.065
1932,-0.085,-0.075
1933,-0.095,-0.065
1934,-0.115,-0.075
1935,-0.125,-0.105
1936,-0.135,-0.095
1937,-0.135,-0.095
1938,-0.135,-0.105
1939,-0.145,-0.115
1940,-0.135,-0.105
1941,-0.145,-0.105
1942,-0.145,-0.105
1943,-0.135,-0.115
1944,-0.155,-0.105
1945,-0.145,-0.115
1946,-0.135,-0.125
1947,-0.115,-0.115
1948,-0.025,-0.045
1949,0.005,-0.015
1950,-0.045,-0.065
1951,-0.085,-0.095
1952,-0.115,-0.115
1953,-0.135,-0.105
1954,-0.155,-0.115
1955,-0.165,-0.135
1956,-0.165,-0.145
1957,-0.165,-0.125
1958,-0.175,-0.135
1959,-0.175,-0.145
1960,-0.185,-0.135
1961,-0.175,-0.135
1962,-0.165,-0.125
1963,-0.165,-0.135
1964,-0.145,-0.125
1965,-0.115,-0.105
1966,-0.245,-0.065
1967,-0.415,-0.055
1968,-0.105,0.255
1969,0.675,-0.015
1970,1.655,-0.375
1971,1.055,-0.615
1972,-0.215,-0.975
1973,-0.525,-0.705
1974,-0.385,-0.265
1975,-0.175,-0.065
1976,-0.145,-0.015
1977,-0.155,-0.035
1978,-0.165,-0.045
1979,-0.175,-0.055
1980,-0.165,-0.055
1981,-0.155,-0.035
1982,-0.165,-0.035
1983,-0.155,-0.035
1984,-0.165,-0.025
1985,-0.145,-0.015
1986,-0.135,-0.005
1987,-0.135,-0.005
1988,-0.135,-0.025
1989,-0.125,-0.025
1990,-0.105,-0.005
1991,-0.105,-0.005
1992,-0.085,-0.005
1993,-0.075,0.015
1994,-0.055,0.025
1995,-0.035,0.035
1996,-0.015,0.025
1997,0.015,0.035
1998,0.035,0.055
1999,0.055,0.065
2000,0.075,0.065
2001,0.095,0.065
2002,0.135,0.095
2003,0.165,0.105
2004,0.185,0.095
2005,0.215,0.105
2006,0.235,0.135
2007,0.225,0.135
2008,0.215,0.135
2009,0.175,0.125
2010,0.155,0.115
2011,0.115,0.085
2012,0.075,0.045
2013,0.035,0.025
2014,-0.005,-0.005
2015,-0.035,-0.025
2016,-0.035,-0.045
2017,-0.055,-0.035
2018,-0.065,-0.035
2019,-0.065,-0.055
2020,-0.055,-0.055
2021,-0.045,-0.035
2022,-0.055,-0.045
2023,-0.065,-0.055
2024,-0.065,-0.045
2025,-0.055,-0.035
2026,-0.055,-0.035
2027,-0.055,-0.045
2028,-0.045,-0.045
2029,-0.055,-0.035
2030,-0.055,-0.035
2031,-0.055,-0.055
2032,-0.055,-0.055
2033,-0.065,-0.055
2034,-0.065,-0.065
2035,-0.075,-0.075
2036,-0.065,-0.065
2037,-0.075,-0.085
2038,-0.085,-0.095
2039,-0.085,-0.085
2040,-0.105,-0.095
2041,-0.095,-0.085
2042,-0.095,-0.095
2043,-0.095,-0.105
2044,-0.095,-0.085
2045,-0.105,-0.095
2046,-0.115,-0.105
2047,-0.095,-0.105
2048,-0.095,-0.095
2049,-0.095,-0.095
2050,-0.095,-0.095
2051,-0.095,-0.115
2052,-0.085,-0.105
2053,-0.065,-0.105
2054,-0.005,-0.045
2055,0.035,-0.025
2056,0.015,-0.045
2057,-0.015,-0.075
2058,-0.045,-0.095
2059,-0.075,-0.115
2060,-0.095,-0.105
2061,-0.105,-0.095
2062,-0.115,-0.115
2063,-0.115,-0.125
2064,-0.135,-0.125
2065,-0.115,-0.105
2066,-0.115,-0.105
2067,-0.115,-0.125
2068,-0.115,-0.105
2069,-0.105,-0.105
2070,-0.105,-0.095
2071,-0.095,-0.105
2072,-0.105,-0.095
2073,-0.255,-0.025
2074,-0.335,-0.025
2075,-0.035,0.255
2076,0.665,0.055
2077,1.575,-0.295
2078,1.465,-0.485
2079,0.265,-0.795
2080,-0.455,-0.925
2081,-0.435,-0.465
2082,-0.225,-0.155
2083,-0.085,-0.015
2084,-0.095,-0.025
2085,-0.105,-0.045
2086,-0.125,-0.035
2087,-0.115,-0.045
2088,-0.115,-0.045
2089,-0.135,-0.055
2090,-0.115,-0.025
2091,-0.115,-0.025
2092,-0.105,-0.045
2093,-0.085,-0.035
2094,-0.095,-0.015
2095,-0.085,-0.015
2096,-0.075,-0.025
2097,-0.085,-0.015
2098,-0.045,0.005
2099,-0.045,0.005
2100,-0.015,0.005
2101,0.015,0.015
2102,0.015,0.035
2103,0.025,0.035
2104,0.065,0.025
2105,0.065,0.035
2106,0.115,0.065
2107,0.125,0.065
2108,0.155,0.055
2109,0.205,0.075
2110,0.235,0.105
2111,0.255,0.105
2112,0.275,0.105
2113,0.285,0.115
2114,0.285,0.135
2115,0.265,0.125
2116,0.235,0.105
2117,0.205,0.095
2118,0.145,0.075
2119,0.095,0.025
2120,0.045,0.005
2121,0.025,-0.005
2122,0.005,-0.025
2123,-0.015,-0.045
2124,-0.015,-0.055
2125,-0.015,-0.045
2126,-0.025,-0.045
2127,-0.035,-0.065
2128,-0.025,-0.055
2129,-0.025,-0.035
2130,-0.015,-0.035
2131,0.005,-0.055
2132,-0.015,-0.045
2133,-0.015,-0.025
2134,-0.015,-0.035
2135,-0.015,-0.045
2136,-0.035,-0.045
2137,-0.015,-0.045
2138,-0.025,-0.045
2139,-0.035,-0.075
2140,-0.015,-0.065
2141,-0.035,-0.065
2142,-0.035,-0.065
2143,-0.045,-0.085
2144,-0.065,-0.085
2145,-0.055,-0.085
2146,-0.045,-0.085
2147,-0.055,-0.085
2148,-0.065,-0.115
2149,-0.055,-0.105
2150,-0.065,-0.105
2151,-0.075,-0.115
2152,-0.065,-0.125
2153,-0.075,-0.115
2154,-0.065,-0.105
2155,-0.065,-0.125
2156,-0.085,-0.135
2157,-0.035,-0.125
2158,0.005,-0.105
2159,0.055,-0.045
2160,0.045,-0.045
2161,0.015,-0.105
2162,-0.015,-0.105
2163,-0.065,-0.135
2164,-0.055,-0.135
2165,-0.085,-0.135
2166,-0.105,-0.135
2167,-0.095,-0.145
2168,-0.115,-0.135
2169,-0.105,-0.135
2170,-0.105,-0.135
2171,-0.095,-0.145
2172,-0.095,-0.145
2173,-0.105,-0.135
2174,-0.085,-0.125
2175,-0.065,-0.145
2176,-0.125,-0.115
2177,-0.335,-0.055
2178,-0.255,-0.005
2179,0.255,0.335
2180,1.335,-0.265
2181,1.725,-0.465
2182,0.495,-0.745
2183,-0.435,-0.965
2184,-0.455,-0.515
2185,-0.255,-0.215
2186,-0.085,-0.035
2187,-0.105,-0.055
2188,-0.105,-0.065
2189,-0.115,-0.065
2190,-0.115,-0.055
2191,-0.125,-0.065
2192,-0.145,-0.055
2193,-0.115,-0.045
2194,-0.115,-0.055
2195,-0.105,-0.055
2196,-0.095,-0.035
2197,-0.095,-0.025
2198,-0.085,-0.035
2199,-0.075,-0.045
2200,-0.085,-0.035
2201,-0.065,-0.015
2202,-0.045,-0.015
2203,-0.025,-0.025
2204,0.005,0.005
2205,0.015,0.005
2206,0.015,0.005
2207,0.065,0.015
2208,0.075,0.015
2209,0.095,0.025
2210,0.115,0.015
2211,0.155,0.025
2212,0.195,0.035
2213,0.205,0.055
2214,0.235,0.055
2215,0.255,0.055
2216,0.255,0.075
2217,0.265,0.095
2218,0.235,0.095
2219,0.205,0.075
2220,0.155,0.065
2221,0.125,0.055
2222,0.075,0.005
2223,0.035,-0.015
2224,-0.005,-0.045
2225,-0.015,-0.045
2226,-0.035,-0.065
2227,-0.045,-0.085
2228,-0.045,-0.085
2229,-0.045,-0.085
2230,-0.055,-0.085
2231,-0.055,-0.095
2232,-0.065,-0.085
2233,-0.045,-0.075
2234,-0.055,-0.075
2235,-0.055,-0.085
2236,-0.035,-0.075
2237,-0.045,-0.075
2238,-0.045,-0.075
2239,-0.045,-0.095
2240,-0.055,-0.085
2241,-0.055,-0.085
2242,-0.055,-0.105
2243,-0.045,-0.115
2244,-0.055,-0.115
2245,-0.045,-0.105
2246,-0.075,-0.125
2247,-0.095,-0.145
2248,-0.115,-0.135
2249,-0.095,-0.135
2250,-0.095,-0.135
2251,-0.105,-0.155
2252,-0.085,-0.145
2253,-0.095,-0.135
2254,-0.105,-0.145
2255,-0.135,-0.175
2256,-0.095,-0.175
2257,-0.075,-0.155
2258,-0.005,-0.095
2259,0.035,-0.075
2260,0.015,-0.115
2261,-0.025,-0.135
2262,-0.065,-0.145
2263,-0.115,-0.175
2264,-0.115,-0.175
2265,-0.145,-0.165
2266,-0.145,-0.165
2267,-0.145,-0.185
2268,-0.135,-0.175
2269,-0.135,-0.165
2270,-0.155,-0.165
2271,-0.145,-0.165
2272,-0.135,-0.175
2273,-0.165,-0.165
2274,-0.135,-0.155
2275,-0.125,-0.145
2276,-0.135,-0.145
2277,-0.295,-0.105
2278,-0.435,-0.085
2279,-0.245,0.025
2280,0.375,0.295
2281,1.495,-0.095
2282,1.395,-0.365
2283,0.075,-0.855
2284,-0.525,-0.875
2285,-0.435,-0.475
2286,-0.225,-0.185
2287,-0.145,-0.065
2288,-0.165,-0.095
2289,-0.165,-0.115
2290,-0.165,-0.095
2291,-0.165,-0.105
2292,-0.155,-0.105
2293,-0.165,-0.095
2294,-0.155,-0.095
2295,-0.155,-0.095
2296,-0.135,-0.105
2297,-0.145,-0.095
2298,-0.125,-0.075
2299,-0.105,-0.085
2300,-0.105,-0.085
2301,-0.085,-0.075
2302,-0.075,-0.075
2303,-0.065,-0.085
2304,-0.035,-0.075
2305,-0.035,-0.065
2306,-0.005,-0.055
2307,0.015,-0.055
2308,0.055,-0.055
2309,0.075,-0.025
2310,0.095,-0.035
2311,0.125,-0.045
2312,0.135,-0.025
2313,0.175,-0.005
2314,0.205,0.005
2315,0.215,0.005
2316,0.225,0.025
2317,0.215,0.045
2318,0.185,0.045
2319,0.145,0.035
2320,0.085,0.005
2321,0.055,-0.005
2322,0.015,-0.035
2323,-0.035,-0.065
2324,-0.045,-0.065
2325,-0.075,-0.075
2326,-0.095,-0.085
2327,-0.095,-0.095
2328,-0.115,-0.105
2329,-0.095,-0.085
2330,-0.095,-0.095
2331,-0.085,-0.095
2332,-0.085,-0.095
2333,-0.095,-0.085
2334,-0.085,-0.085
2335,-0.085,-0.095
2336,-0.095,-0.085
2337,-0.085,-0.075
2338,-0.065,-0.095
2339,-0.085,-0.105
2340,-0.065,-0.095
2341,-0.085,-0.095
2342,-0.095,-0.105
2343,-0.095,-0.115
2344,-0.115,-0.115
2345,-0.105,-0.115
2346,-0.105,-0.145
2347,-0.105,-0.145
2348,-0.025,-0.085
2349,0.005,-0.035
2350,-0.005,-0.065
2351,-0.075,-0.125
2352,-0.115,-0.115
2353,-0.135,-0.145
2354,-0.155,-0.155
2355,-0.165,-0.165
2356,-0.195,-0.165
2357,-0.175,-0.155
2358,-0.185,-0.155
2359,-0.195,-0.165
2360,-0.185,-0.155
2361,-0.195,-0.155
2362,-0.205,-0.135
2363,-0.185,-0.165
2364,-0.185,-0.155
2365,-0.165,-0.135
2366,-0.165,-0.125
2367,-0.175,-0.135
2368,-0.395,-0.075
2369,-0.435,-0.045
2370,-0.015,0.335
2371,0.985,0.135
2372,1.775,-0.235
2373,0.765,-0.545
2374,-0.355,-0.955
2375,-0.615,-0.725
2376,-0.445,-0.365
2377,-0.255,-0.155
2378,-0.165,-0.035
2379,-0.185,-0.085
2380,-0.195,-0.095
2381,-0.185,-0.075
2382,-0.195,-0.075
2383,-0.185,-0.085
2384,-0.185,-0.075
2385,-0.165,-0.055
2386,-0.175,-0.055
2387,-0.155,-0.065
2388,-0.135,-0.065
2389,-0.135,-0.045
2390,-0.125,-0.035
2391,-0.115,-0.045
2392,-0.125,-0.045
2393,-0.085,-0.025
2394,-0.075,-0.025
2395,-0.055,-0.025
2396,-0.015,-0.015
2397,-0.015,-0.005
2398,0.015,0.005
2399,0.015,-0.005
2400,0.045,0.015
2401,0.085,0.025
2402,0.115,0.035
2403,0.155,0.015
2404,0.185,0.045
2405,0.205,0.055
2406,0.205,0.055
2407,0.205,0.055
2408,0.185,0.075
2409,0.175,0.085
2410,0.125,0.075
2411,0.085,0.045
2412,0.055,0.025
2413,0.015,0.015
2414,-0.015,-0.005
2415,-0.035,-0.035
2416,-0.075,-0.045
2417,-0.055,-0.045
2418,-0.055,-0.035
2419,-0.065,-0.055
2420,-0.045,-0.045
2421,-0.055,-0.035
2422,-0.055,-0.025
2423,-0.055,-0.035
2424,-0.065,-0.035
2425,-0.035,-0.025
2426,-0.045,-0.025
2427,-0.035,-0.035
2428,-0.035,-0.045
2429,-0.025,-0.025
2430,-0.035,-0.035
2431,-0.045,-0.045
2432,-0.035,-0.045
2433,-0.045,-0.045
2434,-0.055,-0.045
2435,-0.045,-0.055
2436,-0.045,-0.055
2437,-0.045,-0.065
2438,-0.055,-0.085
2439,-0.045,-0.095
2440,0.035,-0.025
2441,0.065,0.015
2442,0.035,-0.035
2443,-0.015,-0.075
2444,-0.045,-0.085
2445,-0.065,-0.095
2446,-0.105,-0.095
2447,-0.125,-0.115
2448,-0.125,-0.115
2449,-0.145,-0.125
2450,-0.115,-0.105
2451,-0.125,-0.115
2452,-0.135,-0.125
2453,-0.135,-0.115
2454,-0.125,-0.105
2455,-0.135,-0.105
2456,-0.135,-0.125
2457,-0.125,-0.105
2458,-0.085,-0.085
2459,-0.215,-0.035
2460,-0.395,-0.025
2461,-0.105,0.285
2462,0.595,0.075
2463,1.645,-0.395
2464,1.315,-0.615
2465,-0.155,-0.975
2466,-0.525,-0.695
2467,-0.375,-0.255
2468,-0.155,-0.055
2469,-0.085,0.005
2470,-0.125,-0.025
2471,-0.155,-0.045
2472,-0.145,-0.045
2473,-0.145,-0.035
2474,-0.135,-0.025
2475,-0.135,-0.045
2476,-0.125,-0.025
2477,-0.125,-0.005
2478,-0.125,-0.015
2479,-0.105,-0.005
2480,-0.125,-0.005
2481,-0.095,0.005
2482,-0.085,0.015
2483,-0.065,0.005
2484,-0.055,0.025
2485,-0.035,0.035
2486,-0.025,0.035
2487,0.005,0.035
2488,0.005,0.055
2489,0.045,0.065
2490,0.065,0.075
2491,0.105,0.065
2492,0.145,0.085
2493,0.155,0.095
2494,0.185,0.095
2495,0.215,0.105
2496,0.225,0.105
2497,0.245,0.125
2498,0.255,0.135
2499,0.235,0.125
2500,0.215,0.125
2501,0.175,0.115
2502,0.125,0.085
2503,0.085,0.045
2504,0.035,0.025
2505,0.005,0.015
2506,-0.015,-0.005
2507,-0.035,-0.035
2508,-0.025,-0.045
2509,-0.035,-0.035
2510,-0.035,-0.035
2511,-0.045,-0.045
2512,-0.065,-0.045
2513,-0.045,-0.035
2514,-0.045,-0.035
2515,-0.045,-0.045
2516,-0.025,-0.035
2517,-0.035,-0.025
2518,-0.025,-0.035
2519,-0.035,-0.045
2520,-0.025,-0.035
2521,-0.035,-0.035
2522,-0.025,-0.035
2523,-0.035,-0.045
2524,-0.035,-0.045
2525,-0.025,-0.025
2526,-0.025,-0.035
2527,-0.035,-0.065
2528,-0.045,-0.075
2529,-0.065,-0.085
2530,-0.035,-0.085
2531,0.015,-0.045
2532,0.065,0.005
2533,0.065,-0.015
2534,0.005,-0.055
2535,-0.025,-0.075
2536,-0.055,-0.105
2537,-0.105,-0.115
2538,-0.115,-0.105
2539,-0.125,-0.115
2540,-0.115,-0.115
2541,-0.115,-0.125
2542,-0.115,-0.115
2543,-0.125,-0.115
2544,-0.125,-0.125
2545,-0.145,-0.125
2546,-0.135,-0.115
2547,-0.125,-0.105
2548,-0.115,-0.115
2549,-0.085,-0.105
2550,-0.135,-0.055
2551,-0.365,-0.015
2552,-0.255,0.095
2553,0.255,0.315
2554,1.295,-0.305
2555,1.675,-0.525
2556,0.435,-0.805
2557,-0.495,-0.895
2558,-0.445,-0.375
2559,-0.215,-0.105
2560,-0.105,-0.015
2561,-0.145,-0.045
2562,-0.155,-0.055
2563,-0.145,-0.055
2564,-0.155,-0.055
2565,-0.135,-0.035
2566,-0.145,-0.035
2567,-0.145,-0.045
2568,-0.145,-0.045
2569,-0.135,-0.025
2570,-0.135,-0.025
2571,-0.115,-0.025
2572,-0.105,-0.025
2573,-0.085,-0.015
2574,-0.085,-0.005
2575,-0.075,-0.015
2576,-0.055,-0.005
2577,-0.065,0.015
2578,-0.025,0.025
2579,-0.015,0.015
2580,0.005,0.025
2581,0.045,0.045
2582,0.065,0.055
2583,0.085,0.045
2584,0.125,0.065
2585,0.155,0.075
2586,0.175,0.085
2587,0.195,0.075
2588,0.225,0.095
2589,0.245,0.115
2590,0.225,0.115
2591,0.195,0.105
2592,0.155,0.095
2593,0.135,0.075
2594,0.095,0.055
2595,0.045,0.005
2596,0.025,-0.005
2597,-0.005,-0.015
2598,-0.025,-0.035
2599,-0.045,-0.055
2600,-0.065,-0.055
2601,-0.055,-0.045
2602,-0.055,-0.055
2603,-0.055,-0.045
2604,-0.045,-0.035
2605,-0.045,-0.035
2606,-0.045,-0.045
2607,-0.035,-0.045
2608,-0.055,-0.035
2609,-0.045,-0.025
2610,-0.045,-0.035
2611,-0.045,-0.045
2612,-0.025,-0.045
2613,-0.035,-0.045
2614,-0.045,-0.045
2615,-0.045,-0.055
2616,-0.065,-0.055
2617,-0.045,-0.065
2618,-0.045,-0.065
2619,-0.055,-0.085
2620,-0.055,-0.085
2621,-0.065,-0.075
2622,-0.075,-0.105
2623,-0.075,-0.135
2624,-0.045,-0.095
2625,0.025,-0.005
2626,0.055,-0.005
2627,0.015,-0.085
2628,-0.015,-0.095
2629,-0.045,-0.095
2630,-0.075,-0.115
2631,-0.105,-0.125
2632,-0.125,-0.135
2633,-0.125,-0.125
2634,-0.125,-0.135
2635,-0.135,-0.135
2636,-0.125,-0.135
2637,-0.125,-0.135
2638,-0.125,-0.125
2639,-0.135,-0.135
2640,-0.135,-0.135
2641,-0.125,-0.115
2642,-0.115,-0.115
2643,-0.115,-0.115
2644,-0.285,-0.055
2645,-0.365,-0.015
2646,0.035,0.365
2647,0.945,-0.255
2648,1.705,-0.445
2649,0.775,-0.705
2650,-0.365,-1.005
2651,-0.495,-0.555
2652,-0.305,-0.195
2653,-0.135,-0.005
2654,-0.115,-0.035
2655,-0.155,-0.075
2656,-0.175,-0.075
2657,-0.175,-0.075
2658,-0.175,-0.065
2659,-0.165,-0.065
2660,-0.145,-0.055
2661,-0.145,-0.055
2662,-0.145,-0.055
2663,-0.155,-0.065
2664,-0.165,-0.065
2665,-0.135,-0.045
2666,-0.115,-0.035
2667,-0.125,-0.065
2668,-0.095,-0.055
2669,-0.095,-0.045
2670,-0.085,-0.025
2671,-0.065,-0.035
2672,-0.065,-0.035
2673,-0.025,-0.015
2674,-0.005,-0.015
2675,0.015,-0.015
2676,0.065,-0.005
2677,0.075,0.005
2678,0.095,0.005
2679,0.125,0.005
2680,0.145,0.015
2681,0.175,0.035
2682,0.195,0.045
2683,0.215,0.055
2684,0.215,0.065
2685,0.185,0.075
2686,0.135,0.065
2687,0.095,0.045
2688,0.045,0.015
2689,0.015,-0.005
2690,-0.015,-0.035
2691,-0.055,-0.065
2692,-0.075,-0.075
2693,-0.085,-0.065
2694,-0.095,-0.085
2695,-0.105,-0.095
2696,-0.105,-0.095
2697,-0.115,-0.085
2698,-0.105,-0.085
2699,-0.105,-0.095
2700,-0.095,-0.095
2701,-0.095,-0.065
2702,-0.095,-0.075
2703,-0.105,-0.085
2704,-0.085,-0.085
2705,-0.105,-0.085
2706,-0.095,-0.085
2707,-0.105,-0.095
2708,-0.095,-0.095
2709,-0.085,-0.085
2710,-0.085,-0.095
2711,-0.115,-0.105
2712,-0.105,-0.115
2713,-0.125,-0.115
2714,-0.105,-0.115
2715,-0.125,-0.125
2716,-0.125,-0.145
2717,-0.095,-0.155
2718,-0.055,-0.105
2719,-0.005,-0.055
2720,0.005,-0.075
2721,-0.055,-0.125
2722,-0.085,-0.115
2723,-0.115,-0.145
2724,-0.135,-0.165
2725,-0.155,-0.175
2726,-0.155,-0.155
2727,-0.165,-0.165
2728,-0.175,-0.175
2729,-0.185,-0.175
2730,-0.165,-0.155
2731,-0.175,-0.155
2732,-0.165,-0.165
2733,-0.165,-0.165
2734,-0.165,-0.145
2735,-0.165,-0.155
2736,-0.145,-0.145
2737,-0.155,-0.145
2738,-0.365,-0.075
2739,-0.405,-0.045
2740,0.025,0.315
2741,1.165,-0.025
2742,1.745,-0.305
2743,0.525,-0.715
2744,-0.465,-0.935
2745,-0.575,-0.585
2746,-0.365,-0.265
2747,-0.195,-0.105
2748,-0.165,-0.085
2749,-0.175,-0.105
2750,-0.195,-0.105
2751,-0.195,-0.115
2752,-0.185,-0.095
2753,-0.165,-0.085
2754,-0.155,-0.085
2755,-0.155,-0.095
2756,-0.135,-0.095
2757,-0.145,-0.075
2758,-0.125,-0.085
2759,-0.135,-0.085
2760,-0.125,-0.065
2761,-0.095,-0.065
2762,-0.085,-0.075
2763,-0.065,-0.075
2764,-0.045,-0.065
2765,-0.045,-0.055
2766,-0.025,-0.055
2767,-0.005,-0.065
2768,0.015,-0.055
2769,0.035,-0.035
2770,0.065,-0.045
2771,0.085,-0.055
2772,0.115,-0.035
2773,0.155,-0.005
2774,0.155,-0.015
2775,0.175,-0.005
2776,0.205,0.015
2777,0.185,0.035
2778,0.195,0.045
2779,0.165,0.035
2780,0.135,0.035
2781,0.115,0.045
2782,0.065,0.015
2783,0.005,-0.025
2784,-0.015,-0.045
2785,-0.055,-0.055
2786,-0.065,-0.065
2787,-0.085,-0.085
2788,-0.085,-0.085
2789,-0.075,-0.075
2790,-0.105,-0.075
2791,-0.115,-0.085
2792,-0.095,-0.085
2793,-0.105,-0.075
2794,-0.085,-0.065
2795,-0.085,-0.075
2796,-0.075,-0.085
2797,-0.065,-0.065
2798,-0.085,-0.075
2799,-0.085,-0.075
2800,-0.075,-0.065
2801,-0.095,-0.085
2802,-0.085,-0.075
2803,-0.085,-0.075
2804,-0.085,-0.095
2805,-0.085,-0.095
2806,-0.085,-0.105
2807,-0.055,-0.095
2808,0.005,-0.035
2809,-0.015,-0.035
2810,-0.035,-0.075
2811,-0.065,-0.095
2812,-0.115,-0.125
2813,-0.125,-0.125
2814,-0.165,-0.135
2815,-0.175,-0.145
2816,-0.175,-0.145
2817,-0.195,-0.145
2818,-0.185,-0.135
2819,-0.185,-0.145
2820,-0.185,-0.145
2821,-0.175,-0.125
2822,-0.185,-0.135
2823,-0.185,-0.145
2824,-0.175,-0.135
2825,-0.175,-0.115
2826,-0.155,-0.115
2827,-0.185,-0.105
2828,-0.415,-0.065
2829,-0.365,0.055
2830,0.165,0.435
2831,1.165,-0.065
2832,1.735,-0.355
2833,0.495,-0.745
2834,-0.455,-0.905
2835,-0.585,-0.585
2836,-0.385,-0.245
2837,-0.205,-0.065
2838,-0.165,-0.045
2839,-0.195,-0.085
2840,-0.185,-0.075
2841,-0.195,-0.065
2842,-0.195,-0.065
2843,-0.185,-0.075
2844,-0.175,-0.055
2845,-0.165,-0.035
2846,-0.165,-0.045
2847,-0.165,-0.055
2848,-0.145,-0.045
2849,-0.135,-0.025
2850,-0.135,-0.025
2851,-0.125,-0.035
2852,-0.085,-0.025
2853,-0.085,-0.005
2854,-0.075,-0.005
2855,-0.055,-0.015
2856,-0.045,-0.005
2857,-0.025,0.005
2858,0.005,0.005
2859,0.045,0.005
2860,0.065,0.005
2861,0.085,0.025
2862,0.105,0.015
2863,0.125,0.015
2864,0.155,0.025
2865,0.175,0.055
2866,0.185,0.055
2867,0.185,0.045
2868,0.175,0.075
2869,0.155,0.075
2870,0.115,0.065
2871,0.065,0.035
2872,0.045,0.015
2873,-0.015,0.005
2874,-0.035,-0.015
2875,-0.055,-0.045
2876,-0.075,-0.045
2877,-0.075,-0.045
2878,-0.075,-0.045
2879,-0.085,-0.055
2880,-0.075,-0.055
2881,-0.095,-0.045
2882,-0.075,-0.045
2883,-0.095,-0.055
2884,-0.075,-0.045
2885,-0.065,-0.025
2886,-0.065,-0.035
2887,-0.065,-0.045
2888,-0.065,-0.045
2889,-0.065,-0.035
2890,-0.055,-0.045
2891,-0.065,-0.055
2892,-0.065,-0.045
2893,-0.055,-0.045
2894,-0.065,-0.055
2895,-0.095,-0.075
2896,-0.085,-0.075
2897,-0.085,-0.075
2898,-0.095,-0.085
2899,-0.105,-0.115
2900,-0.075,-0.115
2901,-0.025,-0.055
2902,0.015,0.005
2903,0.005,-0.035
2904,-0.025,-0.085
2905,-0.055,-0.075
2906,-0.085,-0.105
2907,-0.125,-0.125
2908,-0.145,-0.125
2909,-0.145,-0.115
2910,-0.145,-0.125
2911,-0.155,-0.145
2912,-0.135,-0.135
2913,-0.155,-0.115
2914,-0.155,-0.125
2915,-0.145,-0.125
2916,-0.155,-0.135
2917,-0.135,-0.115
2918,-0.135,-0.105
2919,-0.135,-0.115
2920,-0.115,-0.105
2921,-0.295,-0.015
2922,-0.375,0.015
2923,0.015,0.375
2924,0.795,-0.205
2925,1.765,-0.425
2926,1.215,-0.625
2927,-0.255,-0.985
2928,-0.555,-0.615
2929,-0.395,-0.205
2930,-0.165,-0.025
2931,-0.125,-0.025
2932,-0.155,-0.045
2933,-0.165,-0.035
2934,-0.165,-0.035
2935,-0.175,-0.045
2936,-0.165,-0.035
2937,-0.165,-0.025
2938,-0.155,-0.025
2939,-0.155,-0.025
2940,-0.145,-0.025
2941,-0.125,-0.005
2942,-0.125,0.005
2943,-0.125,-0.015
2944,-0.105,-0.005
2945,-0.115,0.015
2946,-0.085,0.015
2947,-0.075,0.015
2948,-0.055,0.025
2949,-0.045,0.045
2950,-0.025,0.045
2951,-0.005,0.045
2952,0.015,0.055
2953,0.045,0.065
2954,0.075,0.075
2955,0.095,0.075
2956,0.125,0.075
2957,0.155,0.095
2958,0.175,0.095
2959,0.185,0.095
2960,0.195,0.105
2961,0.185,0.125
2962,0.185,0.125
2963,0.135,0.095
2964,0.115,0.075
2965,0.065,0.065
2966,0.015,0.025
2967,-0.015,-0.005
2968,-0.045,-0.015
2969,-0.055,-0.035
2970,-0.065,-0.035
2971,-0.085,-0.045
2972,-0.085,-0.055
2973,-0.085,-0.045
2974,-0.075,-0.055
2975,-0.075,-0.065
2976,-0.085,-0.045
2977,-0.085,-0.035
2978,-0.075,-0.035
2979,-0.085,-0.045
2980,-0.085,-0.045
2981,-0.065,-0.025
2982,-0.075,-0.035
2983,-0.075,-0.045
2984,-0.065,-0.045
2985,-0.085,-0.035
2986,-0.075,-0.045
2987,-0.075,-0.055
2988,-0.085,-0.055
2989,-0.085,-0.045
2990,-0.085,-0.065
2991,-0.105,-0.075
2992,-0.095,-0.085
2993,-0.115,-0.085
2994,-0.125,-0.085
2995,-0.125,-0.105
2996,-0.125,-0.095
2997,-0.125,-0.085
2998,-0.135,-0.095
2999,-0.135,-0.095
3000,-0.115,-0.085
3001,-0.145,-0.095
3002,-0.145,-0.105
3003,-0.125,-0.115
3004,-0.065,-0.065
3005,0.005,0.005
3006,-0.005,-0.025
3007,-0.075,-0.085
3008,-0.065,-0.085
3009,-0.115,-0.085
3010,-0.145,-0.105
3011,-0.175,-0.115
3012,-0.175,-0.115
3013,-0.155,-0.105
3014,-0.175,-0.115
3015,-0.175,-0.125
3016,-0.165,-0.125
3017,-0.175,-0.115
3018,-0.165,-0.105
3019,-0.175,-0.125
3020,-0.165,-0.115
3021,-0.145,-0.095
3022,-0.125,-0.095
3023,-0.245,-0.035
3024,-0.415,-0.025
3025,-0.125,0.315
3026,0.545,-0.055
3027,1.485,-0.385
3028,1.545,-0.535
3029,1.145,-0.535
3030,-0.395,-0.965
3031,-0.555,-0.505
3032,-0.315,-0.155
3033,-0.155,0.005
3034,-0.155,-0.015
3035,-0.185,-0.045
3036,-0.185,-0.045
3037,-0.165,-0.035
3038,-0.175,-0.035
3039,-0.185,-0.045
3040,-0.165,-0.035
3041,-0.175,-0.035
3042,-0.155,-0.025
3043,-0.165,-0.025
3044,-0.145,-0.025
3045,-0.135,-0.005
3046,-0.135,-0.015
3047,-0.125,-0.015
3048,-0.095,0.005
3049,-0.095,0.015
3050,-0.075,0.015
3051,-0.055,0.025
3052,-0.035,0.015
3053,0.005,0.045
3054,0.005,0.055
3055,0.035,0.045
3056,0.055,0.065
3057,0.085,0.075
3058,0.125,0.065
3059,0.155,0.085
3060,0.185,0.085
3061,0.205,0.105
3062,0.225,0.115
3063,0.215,0.115
3064,0.185,0.125
3065,0.175,0.125
3066,0.145,0.105
3067,0.095,0.075
3068,0.045,0.055
3069,0.005,0.035
3070,-0.025,0.005
3071,-0.055,-0.025
3072,-0.085,-0.035
3073,-0.085,-0.045
3074,-0.075,-0.045
3075,-0.085,-0.055
3076,-0.075,-0.045
3077,-0.085,-0.035
3078,-0.085,-0.035
3079,-0.075,-0.045
3080,-0.095,-0.045
3081,-0.085,-0.035
3082,-0.075,-0.045
3083,-0.075,-0.045
3084,-0.065,-0.045
3085,-0.075,-0.035
3086,-0.085,-0.045
3087,-0.085,-0.065
3088,-0.095,-0.045
3089,-0.085,-0.055
3090,-0.085,-0.055
3091,-0.105,-0.075
3092,-0.095,-0.065
3093,-0.105,-0.065
3094,-0.115,-0.085
3095,-0.115,-0.095
3096,-0.125,-0.095
3097,-0.135,-0.095
3098,-0.135,-0.095
3099,-0.135,-0.115
3100,-0.125,-0.095
3101,-0.135,-0.105
3102,-0.135,-0.105
3103,-0.125,-0.115
3104,-0.145,-0.105
3105,-0.145,-0.105
3106,-0.135,-0.105
3107,-0.125,-0.105
3108,-0.135,-0.105
3109,-0.145,-0.125
3110,-0.115,-0.115
3111,-0.055,-0.075
3112,-0.015,-0.025
3113,-0.015,-0.045
3114,-0.065,-0.085
3115,-0.085,-0.105
3116,-0.105,-0.115
3117,-0.135,-0.115
3118,-0.145,-0.115
3119,-0.165,-0.145
3120,-0.155,-0.135
3121,-0.175,-0.125
3122,-0.165,-0.135
3123,-0.175,-0.145
3124,-0.165,-0.135
3125,-0.145,-0.135
3126,-0.155,-0.135
3127,-0.165,-0.145
3128,-0.145,-0.135
3129,-0.155,-0.125
3130,-0.125,-0.105
3131,-0.265,-0.055
3132,-0.355,-0.055
3133,-0.255,0.015
3134,-0.215,0.195
3135,0.605,-0.145
3136,1.575,-0.355
3137,1.245,-0.575
3138,-0.185,-0.995
3139,-0.565,-0.735
3140,-0.425,-0.305
3141,-0.195,-0.095
3142,-0.135,-0.025
3143,-0.165,-0.055
3144,-0.185,-0.085
3145,-0.165,-0.085
3146,-0.175,-0.065
3147,-0.165,-0.065
3148,-0.175,-0.075
3149,-0.165,-0.065
3150,-0.155,-0.055
3151,-0.155,-0.055
3152,-0.155,-0.065
3153,-0.135,-0.055
3154,-0.135,-0.035
3155,-0.125,-0.035
3156,-0.105,-0.045
3157,-0.075,-0.035
3158,-0.065,-0.005
3159,-0.055,-0.015
3160,-0.035,-0.015
3161,-0.035,-0.005
3162,0.005,0.005
3163,0.035,0.015
3164,0.055,0.015
3165,0.105,0.035
3166,0.125,0.045
3167,0.155,0.025
3168,0.195,0.055
3169,0.205,0.065
3170,0.215,0.085
3171,0.215,0.085
3172,0.205,0.095
3173,0.175,0.105
3174,0.115,0.075
3175,0.055,0.035
3176,-0.015,0.025
3177,-0.025,0.005
3178,-0.045,-0.025
3179,-0.075,-0.045
3180,-0.075,-0.065
3181,-0.085,-0.065
3182,-0.105,-0.065
3183,-0.105,-0.075
3184,-0.125,-0.075
3185,-0.115,-0.065
3186,-0.105,-0.055
3187,-0.105,-0.075
3188,-0.085,-0.065
3189,-0.105,-0.055
3190,-0.095,-0.065
3191,-0.105,-0.085
3192,-0.115,-0.075
3193,-0.085,-0.065
3194,-0.095,-0.075
3195,-0.105,-0.105
3196,-0.095,-0.095
3197,-0.095,-0.095
3198,-0.115,-0.115
3199,-0.115,-0.125
3200,-0.135,-0.125
3201,-0.125,-0.135
3202,-0.115,-0.135
3203,-0.135,-0.145
3204,-0.135,-0.145
3205,-0.135,-0.135
3206,-0.145,-0.145
3207,-0.145,-0.165
3208,-0.155,-0.165
3209,-0.155,-0.165
3210,-0.135,-0.175
3211,-0.105,-0.165
3212,-0.035,-0.095
3213,-0.015,-0.075
3214,-0.045,-0.125
3215,-0.075,-0.155
3216,-0.105,-0.165
3217,-0.145,-0.165
3218,-0.165,-0.165
3219,-0.185,-0.185
3220,-0.175,-0.185
3221,-0.165,-0.165
3222,-0.175,-0.165
3223,-0.185,-0.175
3224,-0.185,-0.185
3225,-0.195,-0.175
3226,-0.175,-0.165
3227,-0.185,-0.165
3228,-0.175,-0.155
3229,-0.165,-0.145
3230,-0.155,-0.145
3231,-0.195,-0.145
3232,-0.395,-0.105
3233,-0.355,-0.045
3234,0.115,0.305
3235,1.055,0.045
3236,1.725,-0.225
3237,0.735,-0.545
3238,-0.355,-0.885
3239,-0.605,-0.685
3240,-0.435,-0.365
3241,-0.255,-0.145
3242,-0.185,-0.065
3243,-0.195,-0.085
3244,-0.205,-0.095
3245,-0.195,-0.085
3246,-0.195,-0.075
3247,-0.215,-0.085
3248,-0.195,-0.085
3249,-0.185,-0.065
3250,-0.175,-0.065
3251,-0.175,-0.065
3252,-0.175,-0.065
3253,-0.145,-0.045
3254,-0.145,-0.055
3255,-0.155,-0.075
3256,-0.125,-0.065
3257,-0.115,-0.045
3258,-0.105,-0.045
3259,-0.085,-0.045
3260,-0.065,-0.045
3261,-0.045,-0.035
3262,-0.025,-0.035
3263,-0.025,-0.045
3264,0.015,-0.035
3265,0.045,-0.025
3266,0.075,-0.025
3267,0.095,-0.025
3268,0.125,-0.005
3269,0.145,-0.005
3270,0.165,0.015
3271,0.175,0.015
3272,0.175,0.035
3273,0.155,0.055
3274,0.125,0.045
3275,0.075,0.025
3276,0.055,0.015
3277,-0.005,-0.005
3278,-0.055,-0.035
3279,-0.075,-0.065
3280,-0.105,-0.085
3281,-0.115,-0.075
3282,-0.125,-0.075
3283,-0.145,-0.095
3284,-0.145,-0.085
3285,-0.125,-0.075
3286,-0.135,-0.085
3287,-0.145,-0.095
3288,-0.145,-0.085
3289,-0.135,-0.075
3290,-0.125,-0.085
3291,-0.125,-0.095
3292,-0.115,-0.085
3293,-0.125,-0.085
3294,-0.115,-0.085
3295,-0.125,-0.105
3296,-0.145,-0.105
3297,-0.135,-0.105
3298,-0.155,-0.115
3299,-0.155,-0.125
3300,-0.155,-0.125
3301,-0.155,-0.115
3302,-0.165,-0.125
3303,-0.165,-0.145
3304,-0.195,-0.135
3305,-0.185,-0.145
3306,-0.155,-0.145
3307,-0.105,-0.095
3308,-0.055,-0.055
3309,-0.065,-0.075
3310,-0.105,-0.125
3311,-0.135,-0.125
3312,-0.175,-0.165
3313,-0.205,-0.155
3314,-0.215,-0.155
3315,-0.215,-0.175
3316,-0.215,-0.165
3317,-0.215,-0.145
3318,-0.225,-0.145
3319,-0.215,-0.165
3320,-0.235,-0.155
3321,-0.225,-0.135
3322,-0.225,-0.135
3323,-0.225,-0.145
3324,-0.215,-0.135
3325,-0.205,-0.115
3326,-0.185,-0.105
3327,-0.335,-0.085
3328,-0.515,-0.065
3329,-0.225,0.255
3330,0.545,0.265
3331,1.545,-0.225
3332,1.435,-0.465
3333,0.045,-0.885
3334,-0.625,-0.825
3335,-0.565,-0.445
3336,-0.345,-0.195
3337,-0.245,-0.095
3338,-0.205,-0.050
3339,-0.225,-0.070
3340,-0.235,-0.080
3341,-0.215,-0.060
3342,-0.225,-0.060
3343,-0.215,-0.060
3344,-0.205,-0.050
3345,-0.205,-0.050
3346,-0.195,-0.040
3347,-0.195,-0.050
3348,-0.185,-0.040
3349,-0.175,-0.030
3350,-0.165,-0.030
3351,-0.155,-0.030
3352,-0.145,-0.030
3353,-0.135,-0.010
3354,-0.115,0.000
3355,-0.095,-0.010
3356,-0.065,0.000
3357,-0.055,0.020
3358,-0.025,0.030
3359,-0.005,0.020
3360,0.015,0.030
3361,0.045,0.040
3362,0.085,0.050
3363,0.105,0.040
3364,0.135,0.050
3365,0.155,0.070
3366,0.165,0.085
3367,0.175,0.085
3368,0.135,0.085
3369,0.125,0.095
3370,0.095,0.085
3371,0.035,0.055
3372,0.015,0.045
3373,-0.035,0.015
3374,-0.075,-0.005
3375,-0.075,-0.025
3376,-0.105,-0.035
3377,-0.105,-0.045
3378,-0.105,-0.035
3379,-0.115,-0.055
3380,-0.105,-0.045
3381,-0.115,-0.035
3382,-0.115,-0.045
3383,-0.125,-0.045
3384,-0.125,-0.035
3385,-0.105,-0.025
3386,-0.105,-0.025
3387,-0.105,-0.045
3388,-0.095,-0.025
3389,-0.095,-0.025
3390,-0.095,-0.035
3391,-0.095,-0.045
3392,-0.105,-0.045
3393,-0.115,-0.045
3394,-0.105,-0.045
3395,-0.115,-0.065
3396,-0.115,-0.075
3397,-0.115,-0.065
3398,-0.125,-0.075
3399,-0.135,-0.085
3400,-0.135,-0.085
3401,-0.155,-0.085
3402,-0.145,-0.085
3403,-0.145,-0.085
3404,-0.145,-0.095
3405,-0.145,-0.105
3406,-0.145,-0.105
3407,-0.115,-0.095
3408,-0.035,-0.035
3409,-0.015,-0.005
3410,-0.025,-0.035
3411,-0.055,-0.085
3412,-0.075,-0.095
3413,-0.105,-0.105
3414,-0.135,-0.095
3415,-0.155,-0.105
3416,-0.165,-0.125
3417,-0.175,-0.115
3418,-0.155,-0.115
3419,-0.155,-0.105
3420,-0.155,-0.115
3421,-0.155,-0.125
3422,-0.155,-0.105
3423,-0.145,-0.105
3424,-0.145,-0.105
3425,-0.155,-0.105
3426,-0.115,-0.085
3427,-0.225,-0.015
3428,-0.395,-0.015
3429,-0.055,0.335
3430,0.645,0.025
3431,1.655,-0.365
3432,1.345,-0.575
3433,-0.125,-0.945
3434,-0.555,-0.705
3435,-0.385,-0.255
3436,-0.165,-0.035
3437,-0.115,-0.005
3438,-0.145,-0.025
3439,-0.165,-0.035
3440,-0.145,-0.025
3441,-0.165,-0.025
3442,-0.155,-0.015
3443,-0.145,-0.025
3444,-0.145,-0.015
3445,-0.125,0.005
3446,-0.125,-0.005
3447,-0.115,-0.005
3448,-0.125,0.015
3449,-0.095,0.015
3450,-0.075,0.025
3451,-0.065,0.015
3452,-0.035,0.035
3453,-0.025,0.045
3454,-0.015,0.045
3455,0.005,0.045
3456,0.015,0.065
3457,0.055,0.085
3458,0.075,0.085
3459,0.095,0.075
3460,0.145,0.095
3461,0.165,0.105
3462,0.185,0.105
3463,0.205,0.105
3464,0.225,0.115
3465,0.265,0.145
3466,0.265,0.145
3467,0.265,0.145
3468,0.245,0.145
3469,0.205,0.135
3470,0.165,0.105
3471,0.115,0.055
3472,0.075,0.045
3473,0.045,0.025
3474,0.005,0.005
3475,-0.015,-0.035
3476,-0.015,-0.025
3477,-0.025,-0.025
3478,-0.025,-0.025
3479,-0.035,-0.045
3480,-0.025,-0.045
3481,-0.035,-0.045
3482,-0.035,-0.035
3483,-0.035,-0.035
3484,-0.035,-0.035
3485,-0.025,-0.015
3486,-0.035,-0.025
3487,-0.035,-0.035
3488,-0.015,-0.035
3489,-0.045,-0.035
3490,-0.025,-0.035
3491,-0.045,-0.045
3492,-0.035,-0.055
3493,-0.025,-0.045
3494,-0.045,-0.055
3495,-0.055,-0.065
3496,-0.035,-0.065
3497,-0.065,-0.065
3498,-0.065,-0.075
3499,-0.075,-0.085
3500,-0.075,-0.085
3501,-0.075,-0.085
3502,-0.095,-0.095
3503,-0.085,-0.105
3504,-0.085,-0.095
3505,-0.085,-0.085
3506,-0.085,-0.095
3507,-0.095,-0.125
3508,-0.055,-0.115
3509,-0.015,-0.055
3510,0.055,-0.015
3511,0.045,-0.065
3512,-0.005,-0.085
3513,-0.035,-0.095
3514,-0.055,-0.105
3515,-0.085,-0.125
3516,-0.085,-0.115
3517,-0.105,-0.125
3518,-0.105,-0.125
3519,-0.115,-0.135
3520,-0.105,-0.125
3521,-0.115,-0.125
3522,-0.105,-0.135
3523,-0.115,-0.135
3524,-0.095,-0.125
3525,-0.095,-0.115
3526,-0.085,-0.115
3527,-0.075,-0.105
3528,-0.275,-0.025
3529,-0.335,-0.005
3530,0.025,0.365
3531,0.765,-0.175
3532,1.755,-0.415
3533,1.365,-0.595
3534,-0.025,-0.985
3535,-0.495,-0.755
3536,-0.375,-0.275
3537,-0.155,-0.055
3538,-0.085,-0.005
3539,-0.095,-0.035
3540,-0.105,-0.055
3541,-0.115,-0.035
3542,-0.115,-0.045
3543,-0.115,-0.045
3544,-0.125,-0.045
3545,-0.105,-0.035
3546,-0.105,-0.035
3547,-0.105,-0.055
3548,-0.085,-0.025
3549,-0.085,-0.015
3550,-0.075,-0.005
3551,-0.065,-0.025
3552,-0.075,-0.005
3553,-0.045,-0.005
3554,-0.025,0.015
3555,-0.015,0.005
3556,0.005,0.015
3557,0.035,0.035
3558,0.055,0.045
3559,0.065,0.035
3560,0.085,0.055
3561,0.125,0.065
3562,0.155,0.065
3563,0.175,0.065
3564,0.215,0.075
3565,0.235,0.095
3566,0.275,0.105
3567,0.285,0.105
3568,0.305,0.115
3569,0.285,0.125
3570,0.265,0.135
3571,0.225,0.115
3572,0.205,0.095
3573,0.175,0.075
3574,0.115,0.045
3575,0.065,0.005
3576,0.045,-0.015
3577,0.005,-0.035
3578,0.015,-0.035
3579,-0.005,-0.055
3580,-0.015,-0.065
3581,0.005,-0.055
3582,-0.005,-0.055
3583,-0.015,-0.055
3584,-0.015,-0.055
3585,-0.025,-0.055
3586,-0.025,-0.055
3587,-0.015,-0.045
3588,-0.015,-0.055
3589,0.005,-0.035
3590,-0.005,-0.045
3591,-0.015,-0.055
3592,-0.005,-0.065
3593,-0.025,-0.065
3594,-0.015,-0.065
3595,-0.025,-0.075
3596,-0.035,-0.075
3597,-0.025,-0.075
3598,-0.025,-0.065
3599,-0.045,-0.065
3600,-0.035,-0.075
3601,-0.045,-0.115
3602,-0.055,-0.105
3603,-0.055,-0.105
3604,-0.065,-0.115
3605,-0.065,-0.125
3606,-0.055,-0.115
3607,-0.075,-0.115
3608,-0.065,-0.125
3609,-0.045,-0.125
3610,-0.065,-0.115
3611,-0.065,-0.135
3612,-0.085,-0.145
3613,-0.045,-0.135
3614,0.035,-0.055
3615,0.095,-0.035
3616,0.065,-0.095
3617,0.005,-0.105
3618,-0.015,-0.115
3619,-0.055,-0.135
3620,-0.085,-0.155
3621,-0.085,-0.155
3622,-0.085,-0.145
3623,-0.085,-0.135
3624,-0.095,-0.155
3625,-0.115,-0.155
3626,-0.105,-0.145
3627,-0.095,-0.145
3628,-0.095,-0.155
3629,-0.075,-0.145
3630,-0.075,-0.135
3631,-0.065,-0.135
3632,-0.175,-0.095
3633,-0.325,-0.085
3634,-0.025,0.265
3635,0.695,0.025
3636,1.635,-0.285
3637,1.115,-0.565
3638,-0.125,-0.995
3639,-0.465,-0.735
3640,-0.315,-0.325
3641,-0.135,-0.105
3642,-0.085,-0.045
3643,-0.105,-0.095
3644,-0.105,-0.085
3645,-0.105,-0.085
3646,-0.115,-0.085
3647,-0.115,-0.095
3648,-0.105,-0.085
3649,-0.095,-0.075
3650,-0.095,-0.075
3651,-0.095,-0.085
3652,-0.075,-0.075
3653,-0.075,-0.065
3654,-0.075,-0.065
3655,-0.055,-0.075
3656,-0.055,-0.065
3657,-0.035,-0.045
3658,-0.005,-0.045
3659,0.005,-0.055
3660,0.025,-0.045
3661,0.035,-0.025
3662,0.055,-0.015
3663,0.075,-0.025
3664,0.095,-0.025
3665,0.125,-0.005
3666,0.155,-0.005
3667,0.175,-0.005
3668,0.205,0.015
3669,0.245,0.045
3670,0.255,0.055
3671,0.255,0.045
3672,0.255,0.065
3673,0.245,0.085
3674,0.225,0.075
3675,0.185,0.035
3676,0.145,0.015
3677,0.105,0.015
3678,0.045,-0.025
3679,0.015,-0.065
3680,-0.015,-0.075
3681,-0.025,-0.085
3682,-0.035,-0.085
3683,-0.025,-0.105
3684,-0.025,-0.095
3685,-0.045,-0.095
3686,-0.045,-0.095
3687,-0.035,-0.095
3688,-0.055,-0.105
3689,-0.035,-0.085
3690,-0.045,-0.105
3691,-0.045,-0.105
3692,-0.045,-0.095
3693,-0.035,-0.085
3694,-0.025,-0.095
3695,-0.045,-0.125
3696,-0.055,-0.115
3697,-0.055,-0.105
3698,-0.045,-0.115
3699,-0.065,-0.135
3700,-0.065,-0.135
3701,-0.065,-0.135
3702,-0.065,-0.135
3703,-0.085,-0.155
3704,-0.095,-0.175
3705,-0.085,-0.175
3706,-0.065,-0.165
3707,0.005,-0.105
3708,0.055,-0.065
3709,0.015,-0.125
3710,-0.005,-0.145
3711,-0.065,-0.165
3712,-0.115,-0.185
3713,-0.125,-0.175
3714,-0.135,-0.175
3715,-0.145,-0.195
3716,-0.135,-0.185
3717,-0.125,-0.175
3718,-0.145,-0.165
3719,-0.155,-0.185
3720,-0.165,-0.175
3721,-0.145,-0.165
3722,-0.145,-0.175
3723,-0.145,-0.165
3724,-0.125,-0.165
3725,-0.105,-0.155
3726,-0.205,-0.135
3727,-0.445,-0.135
3728,-0.335,0.025
3729,0.325,0.355
3730,1.455,-0.075
3731,1.675,-0.415
3732,0.295,-0.885
3733,-0.465,-0.925
3734,-0.555,-0.645
3735,-0.395,-0.355
3736,-0.215,-0.185
3737,-0.155,-0.095
3738,-0.145,-0.115
3739,-0.175,-0.135
3740,-0.175,-0.125
3741,-0.165,-0.115
3742,-0.155,-0.125
3743,-0.165,-0.125
3744,-0.145,-0.115
3745,-0.155,-0.105
3746,-0.145,-0.105
3747,-0.145,-0.115
3748,-0.135,-0.105
3749,-0.115,-0.085
3750,-0.105,-0.085
3751,-0.115,-0.105
3752,-0.085,-0.095
3753,-0.085,-0.085
3754,-0.065,-0.075
3755,-0.045,-0.075
3756,-0.025,-0.075
3757,-0.005,-0.055
3758,0.015,-0.055
3759,0.035,-0.055
3760,0.045,-0.055
3761,0.065,-0.045
3762,0.095,-0.045
3763,0.125,-0.035
3764,0.165,-0.025
3765,0.185,-0.025
3766,0.195,0.005
3767,0.195,0.015
3768,0.185,0.025
3769,0.175,0.045
3770,0.135,0.045
3771,0.095,0.025
3772,0.055,-0.005
3773,0.025,-0.025
3774,-0.015,-0.035
3775,-0.055,-0.065
3776,-0.075,-0.075
3777,-0.105,-0.075
3778,-0.105,-0.075
3779,-0.115,-0.085
3780,-0.105,-0.095
3781,-0.095,-0.085
3782,-0.115,-0.065
3783,-0.105,-0.075
3784,-0.105,-0.075
3785,-0.105,-0.075
3786,-0.085,-0.065
3787,-0.105,-0.075
3788,-0.095,-0.085
3789,-0.085,-0.065
3790,-0.105,-0.085
3791,-0.105,-0.085
3792,-0.105,-0.095
3793,-0.125,-0.085
3794,-0.125,-0.095
3795,-0.125,-0.115
3796,-0.135,-0.125
3797,-0.135,-0.115
3798,-0.115,-0.135
3799,-0.085,-0.095
3800,-0.045,-0.045
3801,-0.025,-0.055
3802,-0.075,-0.105
3803,-0.095,-0.115
3804,-0.125,-0.135
3805,-0.165,-0.135
3806,-0.175,-0.145
3807,-0.195,-0.165
3808,-0.195,-0.155
3809,-0.195,-0.145
3810,-0.185,-0.145
3811,-0.195,-0.155
3812,-0.195,-0.145
3813,-0.195,-0.135
3814,-0.205,-0.145
3815,-0.195,-0.145
3816,-0.195,-0.135
3817,-0.185,-0.135
3818,-0.185,-0.125
3819,-0.355,-0.065
3820,-0.455,-0.035
3821,-0.215,0.295
3822,0.455,0.215
3823,1.445,-0.285
3824,1.705,-0.485
3825,0.445,-0.825
3826,-0.515,-0.935
3827,-0.625,-0.585
3828,-0.425,-0.255
3829,-0.225,-0.075
3830,-0.195,-0.035
3831,-0.215,-0.075
3832,-0.215,-0.085
3833,-0.245,-0.065
3834,-0.225,-0.055
3835,-0.225,-0.055
3836,-0.205,-0.055
3837,-0.195,-0.055
3838,-0.195,-0.035
3839,-0.195,-0.045
3840,-0.195,-0.055
3841,-0.195,-0.045
3842,-0.175,-0.025
3843,-0.165,-0.015
3844,-0.145,-0.025
3845,-0.125,-0.015
3846,-0.115,-0.005
3847,-0.105,-0.005
3848,-0.095,-0.005
3849,-0.085,0.005
3850,-0.055,0.025
3851,-0.025,0.025
3852,-0.005,0.025
3853,0.035,0.045
3854,0.055,0.065
3855,0.075,0.055
3856,0.115,0.065
3857,0.125,0.065
3858,0.155,0.095
3859,0.155,0.085
3860,0.155,0.095
3861,0.145,0.105
3862,0.105,0.085
3863,0.055,0.065
3864,0.025,0.045
3865,-0.035,0.025
3866,-0.055,0.005
3867,-0.095,-0.035
3868,-0.105,-0.035
3869,-0.105,-0.035
3870,-0.135,-0.045
3871,-0.135,-0.055
3872,-0.135,-0.055
3873,-0.145,-0.045
3874,-0.135,-0.035
3875,-0.135,-0.055
3876,-0.135,-0.055
3877,-0.135,-0.035
3878,-0.125,-0.035
3879,-0.135,-0.045
3880,-0.125,-0.045
3881,-0.135,-0.035
3882,-0.135,-0.045
3883,-0.135,-0.065
3884,-0.125,-0.055
3885,-0.125,-0.055
3886,-0.145,-0.075
3887,-0.155,-0.085
3888,-0.165,-0.085
3889,-0.175,-0.085
3890,-0.165,-0.095
3891,-0.185,-0.105
3892,-0.175,-0.115
3893,-0.185,-0.095
3894,-0.195,-0.105
3895,-0.205,-0.125
3896,-0.195,-0.125
3897,-0.165,-0.105
3898,-0.085,-0.015
3899,-0.055,-0.035
3900,-0.105,-0.085
3901,-0.125,-0.085
3902,-0.165,-0.115
3903,-0.185,-0.135
3904,-0.225,-0.125
3905,-0.225,-0.125
3906,-0.225,-0.135
3907,-0.225,-0.145
3908,-0.225,-0.145
3909,-0.235,-0.125
3910,-0.235,-0.135
3911,-0.235,-0.155
3912,-0.245,-0.135
3913,-0.235,-0.125
3914,-0.225,-0.135
3915,-0.215,-0.125
3916,-0.225,-0.105
3917,-0.345,-0.025
3918,-0.415,0.005
3919,-0.065,0.365
3920,0.645,-0.235
3921,1.515,-0.455
3922,1.135,-0.645
3923,-0.125,-1.025
3924,-0.595,-0.715
3925,-0.475,-0.255
3926,-0.275,-0.045
3927,-0.215,-0.025
3928,-0.225,-0.055
3929,-0.255,-0.055
3930,-0.245,-0.055
3931,-0.255,-0.065
3932,-0.235,-0.055
3933,-0.215,-0.035
3934,-0.235,-0.035
3935,-0.235,-0.045
3936,-0.225,-0.045
3937,-0.235,-0.035
3938,-0.215,-0.025
3939,-0.205,-0.025
3940,-0.195,-0.025
3941,-0.165,-0.005
3942,-0.165,-0.005
3943,-0.155,-0.005
3944,-0.135,0.005
3945,-0.125,0.015
3946,-0.105,0.025
3947,-0.075,0.025
3948,-0.055,0.035
3949,-0.015,0.045
3950,0.005,0.065
3951,0.025,0.055
3952,0.055,0.065
3953,0.075,0.075
3954,0.125,0.105
3955,0.125,0.085
3956,0.155,0.115
3957,0.185,0.135
3958,0.165,0.125
3959,0.125,0.115
3960,0.095,0.095
3961,0.055,0.075
3962,0.015,0.045
3963,-0.035,0.015
3964,-0.065,-0.015
3965,-0.085,-0.035
3966,-0.105,-0.065
3967,-0.125,-0.075
3968,-0.125,-0.075
3969,-0.145,-0.085
3970,-0.135,-0.065
3971,-0.135,-0.085
3972,-0.125,-0.075
3973,-0.125,-0.065
3974,-0.125,-0.065
3975,-0.125,-0.075
3976,-0.115,-0.065
3977,-0.135,-0.055
3978,-0.125,-0.065
3979,-0.125,-0.075
3980,-0.125,-0.075
3981,-0.115,-0.065
3982,-0.125,-0.075
3983,-0.135,-0.085
3984,-0.135,-0.085
3985,-0.145,-0.085
3986,-0.135,-0.095
3987,-0.135,-0.115
3988,-0.155,-0.115
3989,-0.155,-0.105
3990,-0.165,-0.105
3991,-0.165,-0.135
3992,-0.175,-0.125
3993,-0.185,-0.115
3994,-0.175,-0.115
3995,-0.175,-0.135
3996,-0.175,-0.125
3997,-0.155,-0.115
3998,-0.165,-0.125
3999,-0.185,-0.155
4000,-0.155,-0.145
4001,-0.115,-0.095
4002,-0.055,-0.035
4003,-0.045,-0.065
4004,-0.085,-0.115
4005,-0.095,-0.105
4006,-0.125,-0.125
4007,-0.165,-0.155
4008,-0.195,-0.155
4009,-0.195,-0.145
4010,-0.195,-0.135
4011,-0.195,-0.165
4012,-0.195,-0.155
4013,-0.195,-0.145
4014,-0.195,-0.145
4015,-0.195,-0.155
4016,-0.185,-0.145
4017,-0.195,-0.135
4018,-0.175,-0.125
4019,-0.155,-0.125
4020,-0.275,-0.055
4021,-0.395,-0.035
4022,-0.075,0.345
4023,0.675,-0.235
4024,1.565,-0.445
4025,1.165,-0.635
4026,-0.105,-1.025
4027,-0.535,-0.735
4028,-0.425,-0.275
4029,-0.225,-0.065
4030,-0.155,-0.015
4031,-0.175,-0.065
4032,-0.185,-0.065
4033,-0.195,-0.055
4034,-0.185,-0.055
4035,-0.195,-0.055
4036,-0.185,-0.055
4037,-0.165,-0.035
4038,-0.175,-0.045
4039,-0.175,-0.055
4040,-0.155,-0.055
4041,-0.155,-0.025
4042,-0.135,-0.025
4043,-0.135,-0.025
4044,-0.125,-0.025
4045,-0.085,0.005
4046,-0.085,0.005
4047,-0.075,-0.005
4048,-0.045,0.005
4049,-0.045,0.025
4050,-0.005,0.035
4051,0.015,0.025
4052,0.045,0.035
4053,0.075,0.055
4054,0.095,0.055
4055,0.125,0.055
4056,0.145,0.075
4057,0.185,0.095
4058,0.215,0.105
4059,0.225,0.105
4060,0.235,0.115
4061,0.225,0.135
4062,0.195,0.125
4063,0.155,0.085
4064,0.115,0.065
4065,0.065,0.055
4066,0.035,0.015
4067,0.005,-0.015
4068,-0.025,-0.035
4069,-0.035,-0.035
4070,-0.055,-0.055
4071,-0.055,-0.075
4072,-0.065,-0.065
4073,-0.065,-0.055
4074,-0.065,-0.055
4075,-0.065,-0.075
4076,-0.045,-0.055
4077,-0.045,-0.035
4078,-0.045,-0.055
4079,-0.065,-0.065
4080,-0.055,-0.055
4081,-0.065,-0.055
4082,-0.055,-0.055
4083,-0.055,-0.065
4084,-0.065,-0.065
4085,-0.045,-0.055
4086,-0.045,-0.065
4087,-0.065,-0.085
4088,-0.065,-0.085
4089,-0.075,-0.085
4090,-0.075,-0.085
4091,-0.085,-0.105
4092,-0.095,-0.105
4093,-0.085,-0.115
4094,-0.095,-0.115
4095,-0.115,-0.135
4096,-0.105,-0.125
4097,-0.115,-0.135
4098,-0.115,-0.135
4099,-0.115,-0.135
4100,-0.105,-0.135
4101,-0.105,-0.135
4102,-0.105,-0.125
4103,-0.125,-0.135
4104,-0.105,-0.135
4105,-0.125,-0.135
4106,-0.115,-0.125
4107,-0.105,-0.135
4108,-0.115,-0.155
4109,-0.105,-0.155
4110,-0.085,-0.145
4111,-0.055,-0.125
4112,0.005,-0.065
4113,0.025,-0.065
4114,-0.025,-0.115
4115,-0.045,-0.115
4116,-0.075,-0.155
4117,-0.095,-0.155
4118,-0.125,-0.145
4119,-0.125,-0.155
4120,-0.135,-0.175
4121,-0.135,-0.155
4122,-0.125,-0.155
4123,-0.125,-0.155
4124,-0.125,-0.165
4125,-0.125,-0.155
4126,-0.125,-0.135
4127,-0.115,-0.145
4128,-0.095,-0.145
4129,-0.125,-0.115
4130,-0.325,-0.065
4131,-0.275,0.025
4132,0.245,0.345
4133,1.325,-0.175
4134,1.655,-0.405
4135,0.465,-0.865
4136,-0.435,-0.955
4137,-0.485,-0.515
4138,-0.285,-0.215
4139,-0.155,-0.065
4140,-0.125,-0.085
4141,-0.135,-0.085
4142,-0.145,-0.095
4143,-0.145,-0.105
4144,-0.145,-0.095
4145,-0.135,-0.085
4146,-0.125,-0.095
4147,-0.135,-0.095
4148,-0.115,-0.075
4149,-0.125,-0.075
4150,-0.105,-0.075
4151,-0.105,-0.095
4152,-0.105,-0.075
4153,-0.075,-0.075
4154,-0.055,-0.065
4155,-0.045,-0.065
4156,-0.025,-0.055
4157,-0.005,-0.035
4158,0.005,-0.045
4159,0.015,-0.055
4160,0.035,-0.035
4161,0.055,-0.025
4162,0.095,-0.025
4163,0.125,-0.025
4164,0.165,-0.005
4165,0.185,0.015
4166,0.225,0.015
4167,0.235,0.025
4168,0.245,0.045
4169,0.255,0.055
4170,0.255,0.075
4171,0.225,0.055
4172,0.195,0.055
4173,0.165,0.045
4174,0.115,0.025
4175,0.065,-0.015
4176,0.045,-0.025
4177,-0.005,-0.045
4178,-0.035,-0.065
4179,-0.055,-0.085
4180,-0.065,-0.095
4181,-0.065,-0.085
4182,-0.075,-0.085
4183,-0.085,-0.085
4184,-0.065,-0.095
4185,-0.075,-0.085
4186,-0.075,-0.075
4187,-0.085,-0.085
4188,-0.075,-0.075
4189,-0.055,-0.085
4190,-0.075,-0.075
4191,-0.075,-0.105
4192,-0.055,-0.115
4193,-0.075,-0.095
4194,-0.075,-0.105
4195,-0.085,-0.125
4196,-0.075,-0.125
4197,-0.085,-0.115
4198,-0.085,-0.135
4199,-0.105,-0.145
4200,-0.095,-0.155
4201,-0.115,-0.145
4202,-0.115,-0.145
4203,-0.125,-0.175
4204,-0.115,-0.175
4205,-0.105,-0.165
4206,-0.065,-0.125
4207,-0.005,-0.085
4208,-0.015,-0.115
4209,-0.065,-0.155
4210,-0.075,-0.135
4211,-0.135,-0.175
4212,-0.145,-0.185
4213,-0.155,-0.175
4214,-0.165,-0.175
4215,-0.175,-0.195
4216,-0.175,-0.175
4217,-0.175,-0.175
4218,-0.175,-0.175
4219,-0.175,-0.185
4220,-0.175,-0.175
4221,-0.165,-0.175
4222,-0.175,-0.165
4223,-0.175,-0.175
4224,-0.155,-0.165
4225,-0.155,-0.155
4226,-0.345,-0.115
4227,-0.405,-0.085
4228,-0.075,0.285
4229,0.765,0.215
4230,1.625,-0.195
4231,1.505,-0.365
4232,1.225,-0.405
4233,0.185,-0.845
4234,-0.585,-0.835
4235,-0.525,-0.445
4236,-0.325,-0.215
4237,-0.185,-0.085
4238,-0.195,-0.085
4239,-0.215,-0.115
4240,-0.205,-0.125
4241,-0.215,-0.115
4242,-0.205,-0.095
4243,-0.195,-0.095
4244,-0.195,-0.105
4245,-0.165,-0.095
4246,-0.175,-0.085
4247,-0.175,-0.095
4248,-0.155,-0.085
4249,-0.155,-0.085
4250,-0.145,-0.075
4251,-0.135,-0.075
4252,-0.115,-0.065
4253,-0.095,-0.045
4254,-0.085,-0.045
4255,-0.065,-0.045
4256,-0.045,-0.045
4257,-0.035,-0.035
4258,-0.005,-0.025
4259,0.015,-0.025
4260,0.045,-0.035
4261,0.075,-0.005
4262,0.105,0.005
4263,0.115,-0.005
4264,0.145,0.005
4265,0.145,0.035
4266,0.155,0.045
4267,0.135,0.035
4268,0.115,0.055
4269,0.085,0.065
4270,0.045,0.035
4271,-0.005,0.015
4272,-0.045,-0.005
4273,-0.085,-0.025
4274,-0.095,-0.035
4275,-0.125,-0.065
4276,-0.115,-0.075
4277,-0.115,-0.075
4278,-0.145,-0.075
4279,-0.155,-0.085
4280,-0.145,-0.075
4281,-0.145,-0.085
4282,-0.145,-0.065
4283,-0.145,-0.075
4284,-0.125,-0.075
4285,-0.125,-0.055
4286,-0.125,-0.065
4287,-0.135,-0.075
4288,-0.115,-0.075
4289,-0.125,-0.075
4290,-0.135,-0.075
4291,-0.135,-0.095
4292,-0.135,-0.085
4293,-0.115,-0.085
4294,-0.145,-0.095
4295,-0.155,-0.105
4296,-0.155,-0.115
4297,-0.165,-0.105
4298,-0.165,-0.115
4299,-0.155,-0.125
4300,-0.165,-0.125
4301,-0.175,-0.135
4302,-0.155,-0.135
4303,-0.125,-0.125
4304,-0.055,-0.045
4305,-0.045,-0.045
4306,-0.085,-0.105
4307,-0.115,-0.125
4308,-0.125,-0.135
4309,-0.165,-0.135
4310,-0.195,-0.145
4311,-0.195,-0.155
4312,-0.205,-0.145
4313,-0.195,-0.135
4314,-0.195,-0.145
4315,-0.205,-0.145
4316,-0.185,-0.135
4317,-0.195,-0.135
4318,-0.195,-0.135
4319,-0.195,-0.135
4320,-0.185,-0.125
4321,-0.175,-0.115
4322,-0.175,-0.095
4323,-0.335,-0.035
4324,-0.365,0.015
4325,0.045,0.405
4326,0.855,-0.205
4327,1.685,-0.475
4328,0.975,-0.645
4329,-0.235,-0.965
4330,-0.555,-0.635
4331,-0.415,-0.255
4332,-0.215,-0.055
4333,-0.155,-0.005
4334,-0.185,-0.035
4335,-0.195,-0.055
4336,-0.185,-0.035
4337,-0.195,-0.045
4338,-0.185,-0.025
4339,-0.185,-0.025
4340,-0.175,-0.035
4341,-0.165,-0.025
4342,-0.155,-0.015
4343,-0.155,-0.025
4344,-0.135,-0.005
4345,-0.145,-0.005
4346,-0.125,0.005
4347,-0.115,-0.005
4348,-0.095,-0.005
4349,-0.075,0.025
4350,-0.065,0.035
4351,-0.055,0.025
4352,-0.015,0.035
4353,0.005,0.045
4354,0.035,0.065
4355,0.045,0.055
4356,0.075,0.065
4357,0.115,0.085
4358,0.145,0.085
4359,0.175,0.075
4360,0.205,0.095
4361,0.215,0.115
4362,0.225,0.115
4363,0.225,0.115
4364,0.205,0.125
4365,0.195,0.125
4366,0.145,0.095
4367,0.085,0.065
4368,0.045,0.035
4369,0.005,0.025
4370,-0.005,-0.005
4371,-0.045,-0.035
4372,-0.055,-0.035
4373,-0.055,-0.035
4374,-0.055,-0.035
4375,-0.075,-0.065
4376,-0.075,-0.045
4377,-0.085,-0.035
4378,-0.075,-0.035
4379,-0.075,-0.045
4380,-0.065,-0.045
4381,-0.065,-0.035
4382,-0.065,-0.025
4383,-0.065,-0.045
4384,-0.065,-0.045
4385,-0.065,-0.025
4386,-0.065,-0.025
4387,-0.065,-0.055
4388,-0.075,-0.055
4389,-0.055,-0.035
4390,-0.075,-0.045
4391,-0.085,-0.065
4392,-0.085,-0.065
4393,-0.095,-0.065
4394,-0.085,-0.075
4395,-0.115,-0.085
4396,-0.095,-0.085
4397,-0.105,-0.085
4398,-0.115,-0.095
4399,-0.115,-0.095
4400,-0.125,-0.105
4401,-0.115,-0.115
4402,-0.075,-0.105
4403,-0.025,-0.025
4404,0.035,-0.005
4405,-0.015,-0.065
4406,-0.045,-0.075
4407,-0.095,-0.115
4408,-0.125,-0.115
4409,-0.145,-0.115
4410,-0.135,-0.125
4411,-0.145,-0.135
4412,-0.135,-0.125
4413,-0.145,-0.125
4414,-0.145,-0.125
4415,-0.155,-0.145
4416,-0.165,-0.125
4417,-0.155,-0.115
4418,-0.145,-0.125
4419,-0.145,-0.135
4420,-0.115,-0.115
4421,-0.105,-0.095
4422,-0.255,-0.045
4423,-0.355,-0.045
4424,-0.045,0.335
4425,0.625,-0.105
4426,1.525,-0.345
4427,1.245,-0.595
4428,0.045,-0.995
4429,-0.455,-0.775
4430,-0.385,-0.295
4431,-0.195,-0.065
4432,-0.125,-0.015
4433,-0.135,-0.035
4434,-0.145,-0.045
4435,-0.145,-0.055
4436,-0.145,-0.045
4437,-0.135,-0.035
4438,-0.135,-0.035
4439,-0.145,-0.045
4440,-0.125,-0.045
4441,-0.125,-0.025
4442,-0.115,-0.025
4443,-0.115,-0.035
4444,-0.095,-0.015
4445,-0.075,-0.015
4446,-0.075,0.005
4447,-0.075,-0.015
4448,-0.045,-0.005
4449,-0.035,0.015
4450,-0.015,0.025
4451,-0.005,0.025
4452,0.015,0.025
4453,0.045,0.045
4454,0.075,0.065
4455,0.095,0.055
4456,0.115,0.055
4457,0.135,0.075
4458,0.175,0.085
4459,0.205,0.085
4460,0.225,0.085
4461,0.245,0.095
4462,0.265,0.135
4463,0.265,0.135
4464,0.245,0.125
4465,0.205,0.115
4466,0.185,0.115
4467,0.135,0.085
4468,0.085,0.055
4469,0.055,0.015
4470,0.025,-0.005
4471,-0.005,-0.025
4472,-0.025,-0.045
4473,-0.055,-0.055
4474,-0.045,-0.045
4475,-0.045,-0.055
4476,-0.045,-0.065
4477,-0.055,-0.065
4478,-0.055,-0.055
4479,-0.045,-0.045
4480,-0.055,-0.065
4481,-0.065,-0.055
4482,-0.055,-0.045
4483,-0.055,-0.055
4484,-0.055,-0.065
4485,-0.045,-0.065
4486,-0.045,-0.055
4487,-0.055,-0.065
4488,-0.055,-0.075
4489,-0.065,-0.075
4490,-0.065,-0.085
4491,-0.075,-0.095
4492,-0.085,-0.095
4493,-0.075,-0.085
4494,-0.085,-0.105
4495,-0.105,-0.125
4496,-0.095,-0.125
4497,-0.095,-0.105
4498,-0.105,-0.115
4499,-0.115,-0.145
4500,-0.075,-0.135
4501,-0.045,-0.105
4502,-0.005,-0.035
4503,0.025,-0.055
4504,-0.025,-0.105
4505,-0.055,-0.105
4506,-0.095,-0.135
4507,-0.115,-0.155
4508,-0.115,-0.145
4509,-0.135,-0.145
4510,-0.145,-0.155
4511,-0.145,-0.155
4512,-0.165,-0.155
4513,-0.165,-0.145
4514,-0.155,-0.155
4515,-0.165,-0.165
4516,-0.165,-0.165
4517,-0.155,-0.135
4518,-0.165,-0.135
4519,-0.145,-0.145
4520,-0.135,-0.145
4521,-0.215,-0.105
4522,-0.395,-0.085
4523,-0.285,0.025
4524,0.165,0.345
4525,1.145,-0.115
4526,1.725,-0.295
4527,0.725,-0.685
4528,-0.385,-0.985
4529,-0.565,-0.615
4530,-0.385,-0.275
4531,-0.205,-0.115
4532,-0.155,-0.065
4533,-0.165,-0.075
4534,-0.185,-0.085
4535,-0.195,-0.095
4536,-0.175,-0.095
4537,-0.185,-0.095
4538,-0.155,-0.065
4539,-0.165,-0.085
4540,-0.165,-0.085
4541,-0.145,-0.075
4542,-0.145,-0.065
4543,-0.155,-0.075
4544,-0.115,-0.065
4545,-0.115,-0.055
4546,-0.105,-0.045
4547,-0.105,-0.065
4548,-0.085,-0.045
4549,-0.035,-0.035
4550,-0.035,-0.025
4551,-0.025,-0.045
4552,0.005,-0.035
4553,0.015,-0.025
4554,0.045,-0.005
4555,0.075,-0.005
4556,0.115,0.005
4557,0.145,0.025
4558,0.155,0.025
4559,0.175,0.015
4560,0.215,0.045
4561,0.205,0.065
4562,0.205,0.065
4563,0.185,0.065
4564,0.155,0.065
4565,0.125,0.055
4566,0.065,0.025
4567,0.015,-0.015
4568,-0.035,-0.045
4569,-0.065,-0.055
4570,-0.065,-0.065
4571,-0.085,-0.085
4572,-0.095,-0.095
4573,-0.105,-0.085
4574,-0.105,-0.085
4575,-0.105,-0.095
4576,-0.115,-0.075
4577,-0.105,-0.075
4578,-0.105,-0.075
4579,-0.095,-0.085
4580,-0.095,-0.085
4581,-0.085,-0.065
4582,-0.085,-0.075
4583,-0.095,-0.095
4584,-0.095,-0.085
4585,-0.095,-0.095
4586,-0.095,-0.085
4587,-0.095,-0.115
4588,-0.085,-0.095
4589,-0.105,-0.085
4590,-0.115,-0.115
4591,-0.125,-0.125
4592,-0.115,-0.135
4593,-0.075,-0.095
4594,-0.015,-0.045
4595,-0.005,-0.065
4596,-0.045,-0.115
4597,-0.075,-0.105
4598,-0.135,-0.145
4599,-0.155,-0.165
4600,-0.195,-0.165
4601,-0.185,-0.165
4602,-0.185,-0.165
4603,-0.185,-0.165
4604,-0.195,-0.165
4605,-0.185,-0.155
4606,-0.195,-0.155
4607,-0.195,-0.165
4608,-0.185,-0.165
4609,-0.195,-0.155
4610,-0.195,-0.155
4611,-0.185,-0.155
4612,-0.175,-0.155
4613,-0.165,-0.125
4614,-0.355,-0.075
4615,-0.455,-0.085
4616,-0.175,0.235
4617,0.585,0.235
4618,1.555,-0.235
4619,1.315,-0.535
4620,0.055,-0.955
4621,-0.555,-0.835
4622,-0.505,-0.455
4623,-0.335,-0.215
4624,-0.195,-0.085
4625,-0.195,-0.085
4626,-0.195,-0.075
4627,-0.215,-0.095
4628,-0.205,-0.095
4629,-0.185,-0.085
4630,-0.185,-0.055
4631,-0.185,-0.065
4632,-0.175,-0.075
4633,-0.185,-0.075
4634,-0.165,-0.055
4635,-0.145,-0.045
4636,-0.145,-0.055
4637,-0.125,-0.045
4638,-0.115,-0.025
4639,-0.105,-0.035
4640,-0.095,-0.035
4641,-0.085,-0.025
4642,-0.055,-0.005
4643,-0.035,-0.005
4644,-0.015,-0.015
4645,0.015,-0.005
4646,0.045,0.015
4647,0.045,0.025
4648,0.085,0.015
4649,0.115,0.025
4650,0.145,0.035
4651,0.155,0.055
4652,0.185,0.045
4653,0.215,0.065
4654,0.235,0.085
4655,0.205,0.075
4656,0.175,0.065
4657,0.125,0.055
4658,0.105,0.055
4659,0.055,0.015
4660,0.025,-0.005
4661,-0.005,-0.045
4662,-0.035,-0.035
4663,-0.055,-0.045
4664,-0.065,-0.075
4665,-0.075,-0.075
4666,-0.075,-0.065
4667,-0.085,-0.075
4668,-0.065,-0.075
4669,-0.065,-0.065
4670,-0.075,-0.045
4671,-0.075,-0.055
4672,-0.075,-0.065
4673,-0.085,-0.055
4674,-0.065,-0.045
4675,-0.065,-0.045
4676,-0.055,-0.055
4677,-0.065,-0.045
4678,-0.075,-0.055
4679,-0.085,-0.065
4680,-0.075,-0.065
4681,-0.085,-0.065
4682,-0.095,-0.065
4683,-0.105,-0.085
4684,-0.095,-0.085
4685,-0.105,-0.085
4686,-0.115,-0.105
4687,-0.095,-0.125
4688,-0.055,-0.085
4689,0.015,-0.025
4690,0.005,-0.045
4691,-0.035,-0.105
4692,-0.055,-0.105
4693,-0.095,-0.105
4694,-0.135,-0.135
4695,-0.145,-0.145
4696,-0.165,-0.155
4697,-0.165,-0.135
4698,-0.165,-0.145
4699,-0.155,-0.155
4700,-0.155,-0.145
4701,-0.165,-0.155
4702,-0.165,-0.155
4703,-0.155,-0.165
4704,-0.175,-0.145
4705,-0.155,-0.135
4706,-0.135,-0.135
4707,-0.165,-0.115
4708,-0.325,-0.055
4709,-0.305,0.015
4710,0.215,0.335
4711,1.115,-0.395
4712,1.605,-0.585
4713,0.765,-0.735
4714,-0.365,-1.015
4715,-0.475,-0.515
4716,-0.285,-0.165
4717,-0.145,-0.005
4718,-0.135,-0.055
4719,-0.165,-0.085
4720,-0.175,-0.075
4721,-0.175,-0.065
4722,-0.165,-0.075
4723,-0.165,-0.075
4724,-0.145,-0.065
4725,-0.145,-0.055
4726,-0.145,-0.065
4727,-0.125,-0.065
4728,-0.145,-0.055
4729,-0.125,-0.045
4730,-0.105,-0.025
4731,-0.105,-0.045
4732,-0.075,-0.035
4733,-0.065,-0.015
4734,-0.055,-0.015
4735,-0.045,-0.025
4736,-0.035,-0.005
4737,-0.005,0.005
4738,0.015,0.005
4739,0.035,0.015
4740,0.065,0.025
4741,0.105,0.045
4742,0.125,0.045
4743,0.145,0.045
4744,0.185,0.065
4745,0.215,0.065
4746,0.235,0.085
4747,0.245,0.085
4748,0.255,0.105
4749,0.255,0.115
4750,0.215,0.105
4751,0.165,0.075
4752,0.145,0.045
4753,0.075,0.025
4754,0.045,0.005
4755,0.015,-0.035
4756,-0.015,-0.055
4757,-0.025,-0.055
4758,-0.045,-0.065
4759,-0.055,-0.085
4760,-0.045,-0.085
4761,-0.055,-0.075
4762,-0.045,-0.065
4763,-0.045,-0.075
4764,-0.055,-0.075
4765,-0.045,-0.055
4766,-0.055,-0.065
4767,-0.045,-0.085
4768,-0.055,-0.075
4769,-0.045,-0.065
4770,-0.045,-0.075
4771,-0.045,-0.085
4772,-0.035,-0.085
4773,-0.045,-0.085
4774,-0.045,-0.095
4775,-0.045,-0.115
4776,-0.055,-0.105
4777,-0.065,-0.105
4778,-0.065,-0.115
4779,-0.075,-0.125
4780,-0.065,-0.115
4781,-0.085,-0.125
4782,-0.075,-0.135
4783,-0.055,-0.145
4784,0.005,-0.075
4785,0.055,-0.025
4786,0.045,-0.065
4787,-0.005,-0.125
4788,-0.025,-0.125
4789,-0.065,-0.135
4790,-0.105,-0.155
4791,-0.115,-0.155
4792,-0.125,-0.165
4793,-0.125,-0.155
4794,-0.125,-0.155
4795,-0.135,-0.175
4796,-0.125,-0.155
4797,-0.115,-0.145
4798,-0.125,-0.155
4799,-0.125,-0.165
4800,-0.115,-0.165
4801,-0.125,-0.145
4802,-0.105,-0.135
4803,-0.105,-0.145
4804,-0.265,-0.075
4805,-0.325,-0.045
4806,0.045,0.295
4807,0.795,-0.185
4808,1.655,-0.395
4809,1.155,-0.625
4810,-0.085,-1.005
4811,-0.475,-0.775
4812,-0.355,-0.325
4813,-0.145,-0.085
4814,-0.095,-0.055
4815,-0.115,-0.085
4816,-0.125,-0.095
4817,-0.145,-0.085
4818,-0.135,-0.075
4819,-0.135,-0.095
4820,-0.125,-0.085
4821,-0.105,-0.065
4822,-0.105,-0.065
4823,-0.115,-0.085
4824,-0.105,-0.075
4825,-0.095,-0.055
4826,-0.085,-0.055
4827,-0.065,-0.055
4828,-0.075,-0.055
4829,-0.035,-0.035
4830,-0.025,-0.035
4831,-0.015,-0.035
4832,0.015,-0.015
4833,0.015,-0.015
4834,0.045,-0.005
4835,0.065,-0.005
4836,0.095,0.005
4837,0.125,0.015
4838,0.145,0.025
4839,0.175,0.025
4840,0.195,0.025
4841,0.235,0.055
4842,0.245,0.065
4843,0.265,0.075
4844,0.265,0.075
4845,0.235,0.095
4846,0.195,0.065
4847,0.145,0.045
4848,0.095,0.015
4849,0.055,-0.005
4850,0.015,-0.025
4851,-0.015,-0.065
4852,-0.015,-0.075
4853,-0.025,-0.065
4854,-0.035,-0.085
4855,-0.045,-0.095
4856,-0.055,-0.085
4857,-0.055,-0.075
4858,-0.045,-0.075
4859,-0.035,-0.085
4860,-0.035,-0.075
4861,-0.035,-0.065
4862,-0.045,-0.075
4863,-0.035,-0.075
4864,-0.045,-0.075
4865,-0.035,-0.075
4866,-0.045,-0.075
4867,-0.045,-0.095
4868,-0.045,-0.095
4869,-0.045,-0.095
4870,-0.045,-0.115
4871,-0.065,-0.115
4872,-0.065,-0.125
4873,-0.085,-0.115
4874,-0.085,-0.125
4875,-0.085,-0.135
4876,-0.085,-0.135
4877,-0.075,-0.155
4878,-0.065,-0.155
4879,-0.055,-0.145
4880,0.015,-0.075
4881,0.025,-0.055
4882,0.015,-0.105
4883,-0.025,-0.115
4884,-0.065,-0.155
4885,-0.105,-0.165
4886,-0.115,-0.145
4887,-0.115,-0.165
4888,-0.105,-0.155
4889,-0.125,-0.155
4890,-0.145,-0.185
4891,-0.165,-0.195
4892,-0.155,-0.175
4893,-0.155,-0.185
4894,-0.155,-0.195
4895,-0.145,-0.175
4896,-0.145,-0.175
4897,-0.145,-0.185
4898,-0.155,-0.185
4899,-0.125,-0.165
4900,-0.185,-0.135
4901,-0.390,-0.135
4902,-0.210,0.065
4903,0.540,0.175
4904,1.570,-0.195
4905,1.070,-0.535
4906,-0.290,-1.005
4907,-0.550,-0.735
4908,-0.380,-0.345
4909,-0.190,-0.135
4910,-0.160,-0.085
4911,-0.170,-0.115
4912,-0.190,-0.135
4913,-0.200,-0.135
4914,-0.190,-0.115
4915,-0.190,-0.115
4916,-0.180,-0.125
4917,-0.180,-0.105
4918,-0.150,-0.105
4919,-0.160,-0.105
4920,-0.170,-0.105
4921,-0.150,-0.085
4922,-0.140,-0.085
4923,-0.120,-0.095
4924,-0.090,-0.085
4925,-0.080,-0.065
4926,-0.080,-0.065
4927,-0.050,-0.075
4928,-0.040,-0.065
4929,-0.005,-0.055
4930,0.015,-0.055
4931,0.035,-0.045
4932,0.075,-0.035
4933,0.105,-0.035
4934,0.135,-0.035
4935,0.165,-0.025
4936,0.175,0.005
4937,0.195,0.015
4938,0.195,0.025
4939,0.175,0.025
4940,0.155,0.055
4941,0.115,0.045
4942,0.075,0.025
4943,0.035,-0.015
4944,-0.025,-0.035
4945,-0.035,-0.055
4946,-0.085,-0.085
4947,-0.115,-0.095
4948,-0.115,-0.095
4949,-0.115,-0.095
4950,-0.125,-0.105
4951,-0.135,-0.105
4952,-0.155,-0.095
4953,-0.125,-0.095
4954,-0.125,-0.085
4955,-0.125,-0.105
4956,-0.115,-0.085
4957,-0.115,-0.095
4958,-0.125,-0.095
4959,-0.125,-0.105
4960,-0.135,-0.105
4961,-0.115,-0.085
4962,-0.125,-0.095
4963,-0.125,-0.115
4964,-0.135,-0.125
4965,-0.135,-0.115
4966,-0.125,-0.135
4967,-0.135,-0.145
4968,-0.035,-0.075
4969,-0.015,-0.055
4970,-0.035,-0.085
4971,-0.095,-0.145
4972,-0.105,-0.135
4973,-0.145,-0.155
4974,-0.185,-0.165
4975,-0.205,-0.165
4976,-0.195,-0.175
4977,-0.225,-0.175
4978,-0.205,-0.165
4979,-0.215,-0.185
4980,-0.205,-0.175
4981,-0.195,-0.165
4982,-0.205,-0.165
4983,-0.225,-0.175
4984,-0.205,-0.165
4985,-0.205,-0.155
4986,-0.185,-0.145
4987,-0.175,-0.165
4988,-0.185,-0.135
4989,-0.425,-0.105
4990,-0.415,-0.035
4991,-0.015,0.335
4992,1.015,0.115
4993,1.725,-0.245
4994,0.625,-0.625
4995,-0.435,-0.965
4996,-0.625,-0.695
4997,-0.435,-0.345
4998,-0.275,-0.165
4999,-0.205,-0.085
5000,-0.205,-0.095
5001,-0.225,-0.095
5002,-0.235,-0.095
5003,-0.225,-0.095
5004,-0.215,-0.085
5005,-0.195,-0.055
5006,-0.205,-0.055
5007,-0.295,-0.045
5008,1.405,0.935
5009,0.905,-0.455
5010,-0.145,-0.055
5011,-0.235,-0.135
5012,-0.195,-0.075
5013,-0.155,-0.045
5014,-0.145,-0.015
5015,-0.135,-0.015
5016,-0.105,-0.015
5017,-0.105,-0.005
5018,-0.085,0.015
5019,-0.065,0.015
5020,-0.035,0.025
5021,0.005,0.045
5022,0.015,0.045
5023,0.025,0.045
5024,0.055,0.055
5025,0.095,0.085
5026,0.115,0.095
5027,0.125,0.095
5028,0.135,0.115
5029,0.105,0.145
5030,0.065,0.135
5031,0.035,0.125
5032,-0.015,0.125
5033,-0.045,0.125
5034,-0.075,0.105
5035,-0.115,0.085
5036,-0.135,0.095
5037,-0.145,0.095
5038,-0.155,0.085
5039,-0.155,0.085
5040,-0.185,0.085
5041,-0.165,0.095
5042,-0.165,0.095
5043,-0.165,0.095
5044,-0.155,0.095
5045,-0.155,0.095
5046,-0.145,0.095
5047,-0.145,0.085
5048,-0.165,0.095
5049,-0.155,0.095
5050,-0.155,0.095
5051,-0.145,0.075
5052,-0.155,0.085
5053,-0.155,0.095
5054,-0.175,0.075
5055,-0.175,0.055
5056,-0.175,0.055
5057,-0.135,0.065
5058,-0.055,0.115
5059,-0.055,0.115
5060,-0.085,0.075
5061,-0.125,0.065
5062,-0.175,0.055
5063,-0.195,0.025
5064,-0.235,0.025
5065,-0.225,0.025
5066,-0.225,0.025
5067,-0.225,0.015
5068,-0.225,0.005
5069,-0.225,0.025
5070,-0.235,0.015
5071,-0.225,-0.005
5072,-0.245,-0.005
5073,-0.225,0.005
5074,-0.225,-0.005
5075,-0.215,-0.015
5076,-0.195,-0.005
5077,-0.195,0.005
5078,-0.365,0.045
5079,-0.425,0.035
5080,-0.045,0.355
5081,0.855,-0.045
5082,1.645,-0.265
5083,0.705,-0.495
5084,-0.435,-0.805
5085,-0.575,-0.475
5086,-0.375,-0.145
5087,-0.205,0.015
5088,-0.205,0.025
5089,-0.215,0.005
5090,-0.215,-0.005
5091,-0.235,-0.025
5092,-0.215,-0.015
5093,-0.205,-0.005
5094,-0.195,-0.005
5095,-0.205,-0.005
5096,-0.205,-0.015
5097,-0.195,-0.005
5098,-0.175,0.005
5099,-0.175,-0.005
5100,-0.155,-0.005
5101,-0.135,0.015
5102,-0.135,0.025
5103,-0.125,0.005
5104,-0.135,0.025
5105,-0.075,0.045
5106,-0.075,0.035
5107,-0.045,0.035
5108,-0.025,0.045
5109,-0.005,0.055
5110,0.025,0.055
5111,0.045,0.055
5112,0.055,0.065
5113,0.085,0.075
5114,0.125,0.085
5115,0.145,0.085
5116,0.175,0.105
5117,0.175,0.115
5118,0.155,0.125
5119,0.125,0.105
5120,0.065,0.105
5121,0.045,0.095
5122,0.025,0.065
5123,-0.025,0.015
5124,-0.035,-0.005
5125,-0.045,0.035
5126,-0.075,-0.005
5127,-0.105,-0.055
5128,-0.105,-0.055
5129,-0.115,-0.055
5130,-0.135,-0.055
5131,-0.125,-0.055
5132,-0.115,-0.055
5133,-0.105,-0.045
5134,-0.115,-0.045
5135,-0.125,-0.055
5136,-0.105,-0.055
5137,-0.115,-0.055
5138,-0.105,-0.035
5139,-0.135,-0.055
5140,-0.105,-0.055
5141,-0.105,-0.045
5142,-0.115,-0.045
5143,-0.135,-0.075
5144,-0.105,-0.065
5145,-0.135,-0.065
5146,-0.135,-0.075
5147,-0.145,-0.095
5148,-0.095,-0.095
5149,-0.025,-0.025
5150,-0.005,0.005
5151,-0.045,-0.035
5152,-0.045,-0.075
5153,-0.085,-0.105
5154,-0.135,-0.115
5155,-0.185,-0.155
5156,-0.195,-0.155
5157,-0.195,-0.155
5158,-0.205,-0.145
5159,-0.205,-0.155
5160,-0.205,-0.165
5161,-0.235,-0.155
5162,-0.205,-0.155
5163,-0.205,-0.165
5164,-0.215,-0.165
5165,-0.215,-0.145
5166,-0.205,-0.155
5167,-0.185,-0.155
5168,-0.165,-0.155
5169,-0.265,-0.105
5170,-0.475,-0.095
5171,-0.295,0.075
5172,0.315,0.155
5173,1.435,-0.305
5174,1.525,-0.495
5175,0.215,-0.875
5176,-0.605,-0.985
5177,-0.505,-0.415
5178,-0.255,-0.135
5179,-0.175,-0.055
5180,-0.195,-0.095
5181,-0.195,-0.095
5182,-0.215,-0.095
5183,-0.225,-0.105
5184,-0.205,-0.105
5185,-0.205,-0.095
5186,-0.185,-0.085
5187,-0.185,-0.095
5188,-0.185,-0.095
5189,-0.175,-0.075
5190,-0.175,-0.075
5191,-0.165,-0.085
5192,-0.145,-0.085
5193,-0.135,-0.065
5194,-0.135,-0.065
5195,-0.105,-0.075
5196,-0.085,-0.065
5197,-0.055,-0.045
5198,-0.045,-0.045
5199,-0.025,-0.055
5200,-0.015,-0.045
5201,0.025,-0.035
5202,0.055,-0.035
5203,0.075,-0.025
5204,0.115,-0.015
5205,0.135,-0.015
5206,0.165,0.005
5207,0.185,-0.005
5208,0.175,0.025
5209,0.175,0.045
5210,0.165,0.035
5211,0.115,0.025
5212,0.095,0.015
5213,0.045,0.005
5214,-0.005,-0.035
5215,-0.035,-0.065
5216,-0.095,-0.085
5217,-0.095,-0.095
5218,-0.105,-0.105
5219,-0.125,-0.125
5220,-0.105,-0.135
5221,-0.125,-0.115
5222,-0.125,-0.125
5223,-0.125,-0.135
5224,-0.135,-0.135
5225,-0.115,-0.115
5226,-0.105,-0.125
5227,-0.125,-0.135
5228,-0.115,-0.125
5229,-0.115,-0.125
5230,-0.105,-0.125
5231,-0.115,-0.145
5232,-0.115,-0.145
5233,-0.115,-0.145
5234,-0.125,-0.155
5235,-0.115,-0.165
5236,-0.125,-0.165
5237,-0.125,-0.175
5238,-0.105,-0.175
5239,-0.055,-0.145
5240,0.005,-0.075
5241,0.045,-0.055
5242,0.005,-0.115
5243,-0.065,-0.155
5244,-0.095,-0.185
5245,-0.145,-0.205
5246,-0.195,-0.205
5247,-0.205,-0.225
5248,-0.225,-0.235
5249,-0.225,-0.235
5250,-0.245,-0.235
5251,-0.255,-0.245
5252,-0.225,-0.235
5253,-0.215,-0.215
5254,-0.235,-0.215
5255,-0.245,-0.235
5256,-0.235,-0.225
5257,-0.245,-0.225
5258,-0.235,-0.215
5259,-0.225,-0.215
5260,-0.235,-0.205
5261,-0.475,-0.175
5262,-0.445,-0.085
5263,0.155,0.265
5264,1.375,-0.095
5265,1.545,-0.355
5266,0.275,-0.845
5267,-0.565,-1.025
5268,-0.635,-0.685
5269,-0.415,-0.355
5270,-0.255,-0.175
5271,-0.235,-0.155
5272,-0.255,-0.175
5273,-0.245,-0.165
5274,-0.275,-0.155
5275,-0.235,-0.165
5276,-0.225,-0.155
5277,-0.215,-0.135
5278,-0.245,-0.135
5279,-0.215,-0.155
5280,-0.215,-0.145
5281,-0.185,-0.135
5282,-0.165,-0.125
5283,-0.165,-0.135
5284,-0.145,-0.125
5285,-0.135,-0.115
5286,-0.135,-0.105
5287,-0.095,-0.105
5288,-0.105,-0.095
5289,-0.075,-0.085
5290,-0.055,-0.095
5291,-0.045,-0.095
5292,-0.005,-0.095
5293,0.025,-0.075
5294,0.035,-0.085
5295,0.065,-0.085
5296,0.085,-0.065
5297,0.115,-0.055
5298,0.145,-0.045
5299,0.145,-0.035
5300,0.165,-0.005
5301,0.135,0.015
5302,0.115,0.015
5303,0.085,-0.005
5304,0.025,-0.005
5305,-0.015,-0.025
5306,-0.055,-0.045
5307,-0.085,-0.085
5308,-0.095,-0.095
5309,-0.115,-0.095
5310,-0.135,-0.095
5311,-0.145,-0.105
5312,-0.155,-0.105
5313,-0.145,-0.095
5314,-0.145,-0.105
5315,-0.145,-0.105
5316,-0.135,-0.105
5317,-0.125,-0.085
5318,-0.135,-0.095
5319,-0.135,-0.105
5320,-0.125,-0.105
5321,-0.125,-0.085
5322,-0.125,-0.095
5323,-0.135,-0.105
5324,-0.135,-0.105
5325,-0.115,-0.095
5326,-0.115,-0.115
5327,-0.135,-0.135
5328,-0.125,-0.125
5329,-0.085,-0.095
5330,-0.035,-0.045
5331,-0.025,-0.045
5332,-0.035,-0.095
5333,-0.085,-0.105
5334,-0.115,-0.135
5335,-0.155,-0.165
5336,-0.185,-0.165
5337,-0.215,-0.165
5338,-0.235,-0.175
5339,-0.225,-0.175
5340,-0.205,-0.175
5341,-0.215,-0.175
5342,-0.215,-0.165
5343,-0.215,-0.165
5344,-0.215,-0.175
5345,-0.205,-0.165
5346,-0.215,-0.165
5347,-0.195,-0.165
5348,-0.195,-0.165
5349,-0.195,-0.155
5350,-0.175,-0.135
5351,-0.405,-0.075
5352,-0.425,-0.045
5353,0.045,0.355
5354,1.175,-0.185
5355,1.725,-0.395
5356,0.525,-0.765
5357,-0.525,-0.995
5358,-0.605,-0.605
5359,-0.415,-0.275
5360,-0.215,-0.105
5361,-0.195,-0.065
5362,-0.205,-0.085
5363,-0.215,-0.085
5364,-0.195,-0.085
5365,-0.185,-0.065
5366,-0.185,-0.055
5367,-0.215,-0.075
5368,-0.195,-0.065
5369,-0.185,-0.055
5370,-0.165,-0.045
5371,-0.155,-0.055
5372,-0.155,-0.035
5373,-0.125,-0.025
5374,-0.125,-0.035
5375,-0.105,-0.025
5376,-0.085,-0.025
5377,-0.065,-0.015
5378,-0.045,-0.005
5379,-0.045,-0.005
5380,-0.005,0.005
5381,0.005,0.015
5382,0.015,0.015
5383,0.045,0.005
5384,0.085,0.005
5385,0.105,0.015
5386,0.135,0.025
5387,0.155,0.025
5388,0.175,0.045
5389,0.185,0.055
5390,0.185,0.075
5391,0.155,0.055
5392,0.085,0.055
5393,0.065,0.045
5394,0.045,0.025
5395,-0.005,-0.015
5396,-0.025,-0.025
5397,-0.055,-0.045
5398,-0.065,-0.065
5399,-0.075,-0.075
5400,-0.095,-0.075
5401,-0.095,-0.075
5402,-0.095,-0.075
5403,-0.105,-0.085
5404,-0.065,-0.065
5405,-0.085,-0.065
5406,-0.095,-0.065
5407,-0.085,-0.075
5408,-0.095,-0.065
5409,-0.085,-0.055
5410,-0.065,-0.065
5411,-0.075,-0.065
5412,-0.085,-0.075
5413,-0.055,-0.055
5414,-0.065,-0.065
5415,-0.065,-0.085
5416,-0.065,-0.075
5417,-0.085,-0.075
5418,-0.075,-0.095
5419,-0.085,-0.115
5420,-0.015,-0.095
5421,0.005,-0.025
5422,0.055,-0.005
5423,0.035,-0.055
5424,0.005,-0.075
5425,-0.035,-0.105
5426,-0.075,-0.125
5427,-0.115,-0.145
5428,-0.125,-0.145
5429,-0.125,-0.145
5430,-0.145,-0.145
5431,-0.155,-0.155
5432,-0.125,-0.145
5433,-0.135,-0.145
5434,-0.135,-0.145
5435,-0.145,-0.155
5436,-0.155,-0.155
5437,-0.125,-0.135
5438,-0.125,-0.135
5439,-0.135,-0.145
5440,-0.115,-0.125
5441,-0.145,-0.105
5442,-0.335,-0.065
5443,-0.325,0.025
5444,0.235,0.295
5445,1.235,-0.305
5446,1.765,-0.485
5447,0.665,-0.765
5448,-0.455,-1.015
5449,-0.525,-0.555
5450,-0.315,-0.215
5451,-0.135,-0.045
5452,-0.135,-0.045
5453,-0.125,-0.065
5454,-0.125,-0.065
5455,-0.165,-0.095
5456,-0.095,-0.085
5457,-0.135,-0.055
5458,-0.135,-0.065
5459,-0.145,-0.075
5460,-0.115,-0.075
5461,-0.105,-0.055
5462,-0.105,-0.045
5463,-0.115,-0.075
5464,-0.095,-0.045
5465,-0.095,-0.035
5466,-0.105,-0.045
5467,-0.035,-0.045
5468,-0.005,-0.045
5469,0.005,-0.005
5470,0.015,-0.025
5471,-0.005,-0.025
5472,0.015,-0.015
5473,0.015,0.005
5474,0.105,0.015
5475,0.125,-0.005
5476,0.145,-0.005
5477,0.185,0.025
5478,0.205,0.015
5479,0.215,0.015
5480,0.255,0.025
5481,0.245,0.045
5482,0.235,0.065
5483,0.215,0.055
5484,0.205,0.055
5485,0.175,0.045
5486,0.135,0.015
5487,0.055,-0.015
5488,0.025,-0.045
5489,-0.015,-0.055
5490,-0.015,-0.065
5491,-0.035,-0.085
5492,-0.035,-0.085
5493,-0.015,-0.075
5494,-0.045,-0.075
5495,-0.035,-0.095
5496,-0.055,-0.095
5497,-0.045,-0.065
5498,-0.055,-0.065
5499,-0.025,-0.075
5500,-0.035,-0.075
5501,-0.005,-0.055
5502,-0.025,-0.055
5503,-0.045,-0.075
5504,-0.035,-0.065
5505,-0.055,-0.075
5506,-0.025,-0.065
5507,-0.055,-0.075
5508,-0.045,-0.065
5509,-0.035,-0.085
5510,-0.075,-0.095
5511,-0.065,-0.095
5512,-0.085,-0.105
5513,-0.055,-0.095
5514,-0.065,-0.115
5515,-0.065,-0.095
5516,-0.025,-0.065
5517,0.065,-0.005
5518,0.085,0.005
5519,0.065,-0.055
5520,-0.005,-0.095
5521,-0.115,-0.135
5522,-0.135,-0.125
5523,-0.145,-0.125
5524,-0.155,-0.155
5525,-0.185,-0.175
5526,-0.195,-0.165
5527,-0.185,-0.155
5528,-0.175,-0.145
5529,-0.205,-0.155
5530,-0.205,-0.155
5531,-0.185,-0.165
5532,-0.205,-0.145
5533,-0.175,-0.145
5534,-0.195,-0.125
5535,-0.185,-0.135
5536,-0.175,-0.125
5537,-0.395,-0.045
5538,-0.385,0.015
5539,0.095,0.345
5540,1.165,-0.205
5541,1.685,-0.385
5542,0.415,-0.835
5543,-0.585,-0.955
5544,-0.605,-0.505
5545,-0.375,-0.185
5546,-0.205,-0.025
5547,-0.215,-0.055
5548,-0.205,-0.055
5549,-0.215,-0.055
5550,-0.215,-0.045
5551,-0.245,-0.065
5552,-0.205,-0.035
5553,-0.175,-0.045
5554,-0.185,-0.035
5555,-0.185,-0.035
5556,-0.155,-0.025
5557,-0.155,-0.025
5558,-0.155,-0.015
5559,-0.135,-0.015
5560,-0.145,-0.005
5561,-0.125,0.005
5562,-0.095,0.005
5563,-0.075,-0.005
5564,-0.045,0.005
5565,-0.065,0.025
5566,-0.025,0.025
5567,-0.005,0.015
5568,0.015,0.025
5569,0.035,0.035
5570,0.065,0.035
5571,0.085,0.035
5572,0.095,0.025
5573,0.155,0.065
5574,0.145,0.055
5575,0.185,0.055
5576,0.215,0.085
5577,0.185,0.095
5578,0.175,0.105
5579,0.105,0.105
5580,0.105,0.095
5581,0.085,0.095
5582,0.025,0.065
5583,-0.035,0.025
5584,-0.045,-0.005
5585,-0.075,-0.005
5586,-0.065,-0.025
5587,-0.105,-0.045
5588,-0.105,-0.025
5589,-0.085,-0.035
5590,-0.115,-0.025
5591,-0.095,-0.035
5592,-0.095,-0.025
5593,-0.095,-0.015
5594,-0.095,-0.015
5595,-0.105,-0.035
5596,-0.105,-0.035
5597,-0.055,-0.015
5598,-0.065,-0.025
5599,-0.095,-0.035
5600,-0.075,-0.035
5601,-0.105,-0.025
5602,-0.085,-0.035
5603,-0.105,-0.065
5604,-0.105,-0.065
5605,-0.095,-0.055
5606,-0.115,-0.065
5607,-0.115,-0.095
5608,-0.105,-0.085
5609,-0.115,-0.085
5610,-0.065,-0.025
5611,-0.015,0.015
5612,0.005,-0.015
5613,-0.055,-0.045
5614,-0.065,-0.065
5615,-0.135,-0.105
5616,-0.165,-0.115
5617,-0.165,-0.075
5618,-0.155,-0.105
5619,-0.195,-0.115
5620,-0.195,-0.115
5621,-0.175,-0.095
5622,-0.185,-0.095
5623,-0.185,-0.105
5624,-0.205,-0.105
5625,-0.195,-0.095
5626,-0.195,-0.115
5627,-0.185,-0.135
5628,-0.185,-0.095
5629,-0.155,-0.085
5630,-0.145,-0.065
5631,-0.345,-0.035
5632,-0.455,-0.015
5633,-0.145,0.395
5634,0.705,0.005
5635,1.715,-0.275
5636,1.145,-0.555
5637,-0.095,-0.945
5638,-0.625,-0.715
5639,-0.485,-0.305
5640,-0.265,-0.095
5641,-0.175,0.005
5642,-0.185,-0.025
5643,-0.205,-0.055
5644,-0.185,-0.055
5645,-0.175,-0.045
5646,-0.185,-0.025
5647,-0.185,-0.045
5648,-0.165,-0.035
5649,-0.145,-0.025
5650,-0.135,-0.025
5651,-0.165,-0.025
5652,-0.125,-0.025
5653,-0.105,-0.005
5654,-0.115,0.005
5655,-0.105,-0.015
5656,-0.085,-0.005
5657,-0.095,0.005
5658,-0.075,0.005
5659,-0.065,0.015
5660,-0.035,0.025
5661,-0.025,0.035
5662,-0.015,0.045
5663,0.005,0.025
5664,0.025,0.035
5665,0.045,0.055
5666,0.075,0.065
5667,0.085,0.045
5668,0.115,0.045
5669,0.145,0.065
5670,0.175,0.085
5671,0.185,0.075
5672,0.185,0.075
5673,0.125,0.105
5674,0.095,0.115
5675,0.065,0.095
5676,0.045,0.065
5677,-0.005,0.025
5678,-0.025,0.025
5679,-0.045,-0.005
5680,-0.095,-0.025
5681,-0.145,-0.035
5682,-0.165,-0.035
5683,-0.105,-0.025
5684,-0.165,-0.045
5685,-0.065,-0.035
5686,-0.065,-0.025
5687,-0.075,-0.025
5688,-0.125,-0.035
5689,-0.105,-0.025
5690,-0.125,-0.025
5691,-0.115,-0.025
5692,-0.115,-0.035
5693,-0.125,-0.025
5694,-0.095,-0.015
5695,-0.135,-0.035
5696,-0.115,-0.045
5697,-0.115,-0.055
5698,-0.145,-0.045
5699,-0.135,-0.055
5700,-0.145,-0.085
5701,-0.165,-0.045
5702,-0.155,-0.075
5703,-0.135,-0.085
5704,-0.155,-0.085
5705,-0.165,-0.105
5706,-0.175,-0.095
5707,-0.165,-0.115
5708,-0.135,-0.095
5709,-0.085,-0.015
5710,-0.015,0.015
5711,-0.055,-0.075
5712,-0.105,-0.095
5713,-0.135,-0.115
5714,-0.155,-0.115
5715,-0.155,-0.105
5716,-0.165,-0.135
5717,-0.165,-0.135
5718,-0.155,-0.115
5719,-0.155,-0.145
5720,-0.155,-0.145
5721,-0.165,-0.125
5722,-0.175,-0.125
5723,-0.145,-0.125
5724,-0.185,-0.135
5725,-0.145,-0.115
5726,-0.145,-0.115
5727,-0.155,-0.125
5728,-0.175,-0.075
5729,-0.375,-0.035
5730,-0.255,0.305
5731,0.225,0.055
5732,1.145,-0.285
5733,1.195,-0.565
5734,0.145,-1.035
5735,-0.505,-0.805
5736,-0.445,-0.285
5737,-0.295,-0.075
5738,-0.175,-0.015
5739,-0.195,-0.075
5740,-0.175,-0.055
5741,-0.205,-0.055
5742,-0.195,-0.045
5743,-0.185,-0.055
5744,-0.185,-0.055
5745,-0.195,-0.035
5746,-0.175,-0.045
5747,-0.165,-0.045
5748,-0.165,-0.035
5749,-0.165,-0.015
5750,-0.145,-0.025
5751,-0.145,-0.025
5752,-0.115,-0.005
5753,-0.105,0.015
5754,-0.135,0.005
5755,-0.085,-0.005
5756,-0.075,0.025
5757,-0.045,0.015
5758,-0.055,0.025
5759,-0.035,0.015
5760,0.025,0.035
5761,0.005,0.035
5762,0.035,0.045
5763,0.055,0.035
5764,0.055,0.025
5765,0.105,0.085
5766,0.105,0.065
5767,0.125,0.065
5768,0.135,0.105
5769,0.115,0.125
5770,0.085,0.105
5771,0.095,0.095
5772,0.035,0.075
5773,0.015,0.065
5774,-0.005,0.045
5775,-0.055,0.015
5776,-0.075,-0.015
5777,-0.085,-0.035
5778,-0.105,-0.035
5779,-0.115,-0.045
5780,-0.095,-0.045
5781,-0.105,-0.045
5782,-0.105,-0.035
5783,-0.105,-0.045
5784,-0.135,-0.045
5785,-0.115,-0.025
5786,-0.115,-0.005
5787,-0.115,-0.025
5788,-0.115,-0.025
5789,-0.085,-0.015
5790,-0.105,-0.005
5791,-0.115,-0.025
5792,-0.115,-0.025
5793,-0.125,-0.025
5794,-0.115,-0.035
5795,-0.145,-0.045
5796,-0.135,-0.045
5797,-0.125,-0.045
5798,-0.135,-0.065
5799,-0.155,-0.075
5800,-0.135,-0.075
5801,-0.165,-0.075
5802,-0.145,-0.075
5803,-0.145,-0.085
5804,-0.155,-0.085
5805,-0.175,-0.075
5806,-0.175,-0.085
5807,-0.165,-0.095
5808,-0.145,-0.095
5809,-0.165,-0.105
5810,-0.155,-0.105
5811,-0.095,-0.055
5812,-0.035,-0.005
5813,-0.025,-0.035
5814,-0.075,-0.075
5815,-0.095,-0.095
5816,-0.125,-0.095
5817,-0.155,-0.095
5818,-0.155,-0.085
5819,-0.165,-0.105
5820,-0.175,-0.105
5821,-0.155,-0.095
5822,-0.155,-0.095
5823,-0.175,-0.105
5824,-0.165,-0.085
5825,-0.165,-0.085
5826,-0.165,-0.085
5827,-0.155,-0.085
5828,-0.135,-0.065
5829,-0.125,-0.045
5830,-0.095,-0.055
5831,-0.265,-0.015
5832,-0.445,-0.005
5833,-0.195,0.275
5834,0.505,0.135
5835,1.545,-0.135
5836,1.545,-0.335
5837,0.325,-0.675
5838,-0.535,-0.665
5839,-0.555,-0.335
5840,-0.335,-0.115
5841,-0.165,0.015
5842,-0.125,0.015
5843,-0.145,-0.005
5844,-0.135,0.005
5845,-0.135,0.015
5846,-0.135,0.005
5847,-0.135,0.005
5848,-0.135,0.015
5849,-0.135,0.015
5850,-0.115,0.015
5851,-0.115,0.015
5852,-0.105,0.015
5853,-0.085,0.025
5854,-0.065,0.025
5855,-0.085,0.025
5856,-0.065,0.025
5857,-0.045,0.035
5858,-0.025,0.035
5859,-0.035,0.025
5860,-0.015,0.045
5861,0.025,0.055
5862,0.035,0.055
5863,0.035,0.045
5864,0.075,0.045
5865,0.095,0.065
5866,0.115,0.065
5867,0.125,0.055
5868,0.155,0.065
5869,0.195,0.085
5870,0.215,0.095
5871,0.195,0.085
5872,0.205,0.125
5873,0.185,0.105
5874,0.165,0.105
5875,0.125,0.075
5876,0.085,0.045
5877,0.065,0.035
5878,0.025,0.005
5879,-0.005,-0.025
5880,-0.025,-0.045
5881,-0.045,-0.035
5882,-0.055,-0.045
5883,-0.045,-0.055
5884,-0.055,-0.055
5885,-0.055,-0.045
5886,-0.045,-0.065
5887,-0.055,-0.065
5888,-0.045,-0.055
5889,-0.065,-0.045
5890,-0.055,-0.045
5891,-0.035,-0.065
5892,-0.045,-0.055
5893,-0.055,-0.065
5894,-0.055,-0.075
5895,-0.055,-0.085
5896,-0.065,-0.075
5897,-0.115,-0.085
5898,-0.065,-0.085
5899,-0.075,-0.105
5900,-0.095,-0.115
5901,-0.055,-0.095
5902,-0.085,-0.115
5903,-0.065,-0.125
5904,-0.075,-0.125
5905,-0.105,-0.125
5906,-0.105,-0.135
5907,-0.105,-0.145
5908,-0.095,-0.135
5909,-0.095,-0.125
5910,-0.095,-0.145
5911,-0.125,-0.155
5912,-0.095,-0.145
5913,-0.125,-0.145
5914,-0.115,-0.125
5915,-0.115,-0.145
5916,-0.125,-0.155
5917,-0.095,-0.145
5918,-0.075,-0.135
5919,-0.015,-0.075
5920,0.045,-0.075
5921,-0.035,-0.115
5922,-0.055,-0.135
5923,-0.105,-0.165
5924,-0.095,-0.155
5925,-0.105,-0.155
5926,-0.115,-0.165
5927,-0.135,-0.185
5928,-0.125,-0.175
5929,-0.145,-0.185
5930,-0.155,-0.165
5931,-0.165,-0.175
5932,-0.125,-0.175
5933,-0.115,-0.165
5934,-0.155,-0.155
5935,-0.135,-0.175
5936,-0.115,-0.165
5937,-0.115,-0.145
5938,-0.145,-0.125
5939,-0.355,-0.095
5940,-0.315,0.045
5941,0.195,0.285
5942,1.145,-0.265
5943,1.785,-0.475
5944,0.825,-0.775
5945,-0.415,-1.045
5946,-0.585,-0.615
5947,-0.395,-0.275
5948,-0.185,-0.095
5949,-0.115,-0.075
5950,-0.145,-0.095
5951,-0.175,-0.115
5952,-0.145,-0.105
5953,-0.165,-0.095
5954,-0.165,-0.095
5955,-0.175,-0.085
5956,-0.145,-0.105
5957,-0.145,-0.095
5958,-0.145,-0.085
5959,-0.125,-0.095
5960,-0.125,-0.085
5961,-0.165,-0.095
5962,-0.135,-0.065
5963,-0.105,-0.075
5964,-0.095,-0.065
5965,-0.055,-0.055
5966,-0.095,-0.045
5967,-0.025,-0.045
5968,-0.015,-0.055
5969,-0.025,-0.035
5970,0.035,-0.035
5971,0.045,-0.035
5972,0.025,-0.025
5973,0.065,-0.025
5974,0.095,-0.005
5975,0.085,-0.025
5976,0.165,-0.005
5977,0.195,0.045
5978,0.205,0.045
5979,0.205,0.045
5980,0.165,0.035
5981,0.165,0.025
5982,0.105,0.035
5983,0.075,0.005
5984,0.045,-0.035
5985,-0.015,-0.065
5986,-0.055,-0.085
5987,-0.085,-0.125
5988,-0.115,-0.135
5989,-0.075,-0.125
5990,-0.115,-0.145
5991,-0.125,-0.135
5992,-0.125,-0.155
5993,-0.165,-0.135
5994,-0.105,-0.125
5995,-0.155,-0.145
5996,-0.125,-0.145
5997,-0.155,-0.135
5998,-0.115,-0.145
5999,-0.125,-0.145
6000,-0.095,-0.145
6001,-0.105,-0.135
6002,-0.105,-0.155
6003,-0.115,-0.165
6004,-0.145,-0.175
6005,-0.135,-0.175
6006,-0.145,-0.165
6007,-0.145,-0.185
6008,-0.165,-0.185
6009,-0.165,-0.175
6010,-0.145,-0.185
6011,-0.165,-0.205
6012,-0.175,-0.205
6013,-0.135,-0.195
6014,-0.165,-0.185
6015,-0.155,-0.215
6016,-0.155,-0.205
6017,-0.175,-0.205
6018,-0.155,-0.195
6019,-0.155,-0.205
6020,-0.175,-0.225
6021,-0.145,-0.215
6022,-0.115,-0.175
6023,-0.035,-0.105
6024,0.025,-0.105
6025,-0.095,-0.185
6026,-0.085,-0.165
6027,-0.115,-0.195
6028,-0.125,-0.195
6029,-0.125,-0.195
6030,-0.175,-0.215
6031,-0.175,-0.215
6032,-0.185,-0.215
6033,-0.155,-0.195
6034,-0.185,-0.195
6035,-0.185,-0.205
6036,-0.165,-0.195
6037,-0.195,-0.195
6038,-0.145,-0.185
6039,-0.145,-0.185
6040,-0.135,-0.175
6041,-0.135,-0.155
6042,-0.295,-0.095
6043,-0.405,-0.065
6044,-0.115,0.335
6045,0.745,-0.055
6046,1.725,-0.475
6047,1.145,-0.675
6048,-0.175,-1.035
6049,-0.645,-0.785
6050,-0.475,-0.385
6051,-0.265,-0.165
6052,-0.175,-0.075
6053,-0.165,-0.095
6054,-0.195,-0.115
6055,-0.195,-0.125
6056,-0.185,-0.095
6057,-0.185,-0.095
6058,-0.165,-0.095
6059,-0.155,-0.075
6060,-0.165,-0.085
6061,-0.165,-0.075
6062,-0.165,-0.065
6063,-0.145,-0.075
6064,-0.145,-0.075
6065,-0.135,-0.055
6066,-0.105,-0.055
6067,-0.085,-0.065
6068,-0.075,-0.045
6069,-0.055,-0.025
6070,-0.055,-0.025
6071,-0.045,-0.045
6072,-0.035,-0.015
6073,-0.015,-0.025
6074,0.035,-0.005
6075,0.025,-0.015
6076,0.065,-0.005
6077,0.095,0.025
6078,0.125,0.025
6079,0.165,0.025
6080,0.175,0.045
6081,0.155,0.065
6082,0.165,0.075
6083,0.175,0.065
6084,0.145,0.075
6085,0.115,0.075
6086,0.065,0.045
6087,-0.015,-0.005
6088,-0.075,-0.025
6089,-0.065,-0.035
6090,-0.075,-0.035
6091,-0.115,-0.075
6092,-0.125,-0.075
6093,-0.125,-0.065
6094,-0.135,-0.065
6095,-0.155,-0.075
6096,-0.135,-0.055
6097,-0.135,-0.055
6098,-0.135,-0.055
6099,-0.155,-0.055
6100,-0.135,-0.045
6101,-0.125,-0.045
6102,-0.125,-0.045
6103,-0.145,-0.065
6104,-0.125,-0.055
6105,-0.125,-0.055
6106,-0.125,-0.045
6107,-0.135,-0.065
6108,-0.145,-0.065
6109,-0.135,-0.045
6110,-0.165,-0.065
6111,-0.175,-0.085
6112,-0.155,-0.085
6113,-0.185,-0.085
6114,-0.185,-0.085
6115,-0.185,-0.095
6116,-0.175,-0.095
6117,-0.155,-0.095
6118,-0.105,-0.055
6119,-0.065,0.005
6120,-0.055,-0.035
6121,-0.095,-0.065
6122,-0.125,-0.085
6123,-0.175,-0.115
6124,-0.205,-0.115
6125,-0.215,-0.105
6126,-0.205,-0.115
6127,-0.205,-0.135
6128,-0.215,-0.135
6129,-0.225,-0.135
6130,-0.225,-0.125
6131,-0.205,-0.135
6132,-0.225,-0.135
6133,-0.215,-0.125
6134,-0.205,-0.125
6135,-0.195,-0.125
6136,-0.175,-0.115
6137,-0.175,-0.105
6138,-0.305,-0.035
6139,-0.455,-0.015
6140,-0.175,0.315
6141,0.565,0.035
6142,1.595,-0.485
6143,1.135,-0.695
6144,-0.265,-0.995
6145,-0.625,-0.665
6146,-0.465,-0.245
6147,-0.245,-0.065
6148,-0.205,-0.025
6149,-0.205,-0.045
6150,-0.205,-0.045
6151,-0.205,-0.055
6152,-0.215,-0.045
6153,-0.185,-0.035
6154,-0.175,-0.025
6155,-0.195,-0.035
6156,-0.165,-0.025
6157,-0.165,-0.025
6158,-0.165,-0.015
6159,-0.185,-0.005
6160,-0.185,-0.005
6161,-0.125,-0.005
6162,-0.105,0.000
6163,-0.105,0.010
6164,-0.095,0.020
6165,-0.075,0.030
6166,-0.065,0.030
6167,-0.025,0.040
6168,-0.015,0.060
6169,-0.005,0.060
6170,0.035,0.060
6171,0.075,0.070
6172,0.105,0.080
6173,0.105,0.080
6174,0.145,0.090
6175,0.185,0.090
6176,0.135,0.100
6177,0.175,0.120
6178,0.195,0.120
6179,0.215,0.120
6180,0.155,0.100
6181,0.105,0.090
6182,0.055,0.070
6183,0.015,0.020
6184,-0.005,0.000
6185,-0.085,-0.030
6186,-0.065,-0.050
6187,-0.075,-0.060
6188,-0.105,-0.070
6189,-0.095,-0.060
6190,-0.125,-0.060
6191,-0.085,-0.060
6192,-0.075,-0.060
6193,-0.105,-0.060
6194,-0.105,-0.060
6195,-0.145,-0.060
6196,-0.105,-0.060
6197,-0.105,-0.040
6198,-0.095,-0.060
6199,-0.075,-0.060
6200,-0.085,-0.060
6201,-0.115,-0.080
6202,-0.075,-0.060
6203,-0.095,-0.080
6204,-0.135,-0.080
6205,-0.145,-0.100
6206,-0.105,-0.090
6207,-0.095,-0.100
6208,-0.095,-0.110
6209,-0.135,-0.100
6210,-0.105,-0.120
6211,-0.175,-0.120
6212,-0.115,-0.120
6213,-0.115,-0.120
6214,-0.105,-0.120
6215,-0.145,-0.140
6216,-0.135,-0.160
6217,-0.105,-0.080
6218,0.025,-0.010
6219,0.035,-0.050
6220,-0.075,-0.090
6221,-0.085,-0.120
6222,-0.095,-0.140
6223,-0.165,-0.160
6224,-0.135,-0.160
6225,-0.155,-0.150
6226,-0.155,-0.150
6227,-0.195,-0.160
6228,-0.175,-0.160
6229,-0.145,-0.140
6230,-0.145,-0.150
6231,-0.165,-0.160
6232,-0.195,-0.140
6233,-0.155,-0.130
6234,-0.115,-0.130
6235,-0.145,-0.130
6236,-0.355,-0.030
6237,-0.375,0.010
6238,0.035,0.410
6239,0.775,-0.270
6240,1.635,-0.650
6241,0.995,-0.770
6242,-0.245,-1.005
6243,-0.515,-0.555
6244,-0.345,-0.155
6245,-0.125,0.015
6246,-0.155,-0.015
6247,-0.155,-0.045
6248,-0.195,-0.045
6249,-0.195,-0.035
6250,-0.205,-0.025
6251,-0.155,-0.025
6252,-0.155,-0.005
6253,-0.185,-0.015
6254,-0.175,-0.025
6255,-0.135,-0.025
6256,-0.155,0.005
6257,-0.135,-0.005
6258,-0.135,0.015
6259,-0.105,0.015
6260,-0.095,0.025
6261,-0.095,0.045
6262,-0.075,0.045
6263,-0.055,0.035
6264,-0.055,0.055
6265,-0.065,0.075
6266,-0.025,0.095
6267,-0.025,0.075
6268,0.035,0.105
6269,0.075,0.125
6270,0.095,0.125
6271,0.095,0.115
6272,0.085,0.135
6273,0.185,0.145
6274,0.135,0.165
6275,0.195,0.155
6276,0.245,0.175
6277,0.255,0.175
6278,0.215,0.185
6279,0.155,0.145
6280,0.105,0.115
6281,0.065,0.095
6282,0.025,0.055
6283,-0.025,0.005
6284,-0.055,-0.005
6285,-0.115,-0.035
6286,-0.065,-0.035
6287,-0.085,-0.045
6288,-0.085,-0.055
6289,-0.125,-0.055
6290,-0.085,-0.045
6291,-0.095,-0.055
6292,-0.095,-0.045
6293,-0.075,-0.045
6294,-0.105,-0.035
6295,-0.125,-0.055
6296,-0.105,-0.055
6297,-0.095,-0.045
6298,-0.085,-0.055
6299,-0.105,-0.065
6300,-0.105,-0.075
6301,-0.115,-0.065
6302,-0.095,-0.085
6303,-0.145,-0.095
6304,-0.105,-0.095
6305,-0.125,-0.095
6306,-0.145,-0.105
6307,-0.145,-0.115
6308,-0.135,-0.115
6309,-0.155,-0.115
6310,-0.145,-0.135
6311,-0.055,-0.095
6312,-0.005,-0.015
6313,-0.005,-0.035
6314,-0.035,-0.085
6315,-0.105,-0.125
6316,-0.175,-0.145
6317,-0.175,-0.135
6318,-0.185,-0.145
6319,-0.205,-0.145
6320,-0.235,-0.155
6321,-0.175,-0.145
6322,-0.195,-0.145
6323,-0.195,-0.145
6324,-0.175,-0.145
6325,-0.205,-0.145
6326,-0.195,-0.145
6327,-0.195,-0.155
6328,-0.205,-0.135
6329,-0.155,-0.125
6330,-0.255,-0.065
6331,-0.455,-0.085
6332,-0.225,0.245
6333,0.445,0.085
6334,1.555,-0.415
6335,1.095,-0.705
6336,-0.255,-1.035
6337,-0.575,-0.735
6338,-0.425,-0.295
6339,-0.235,-0.085
6340,-0.155,-0.035
6341,-0.175,-0.055
6342,-0.175,-0.085
6343,-0.185,-0.075
6344,-0.225,-0.075
6345,-0.205,-0.055
6346,-0.185,-0.055
6347,-0.185,-0.075
6348,-0.195,-0.065
6349,-0.155,-0.055
6350,-0.185,-0.055
6351,-0.135,-0.045
6352,-0.155,-0.055
6353,-0.145,-0.035
6354,-0.125,-0.025
6355,-0.115,-0.035
6356,-0.105,-0.025
6357,-0.105,-0.005
6358,-0.075,0.005
6359,-0.105,-0.015
6360,-0.075,-0.005
6361,-0.005,0.015
6362,0.035,0.025
6363,0.035,0.015
6364,0.065,0.025
6365,0.065,0.035
6366,0.105,0.035
6367,0.135,0.035
6368,0.145,0.065
6369,0.175,0.085
6370,0.235,0.095
6371,0.175,0.105
6372,0.145,0.095
6373,0.155,0.115
6374,0.125,0.075
6375,0.065,0.045
6376,0.015,0.025
6377,0.015,-0.015
6378,-0.075,-0.035
6379,-0.085,-0.065
6380,-0.095,-0.065
6381,-0.075,-0.065
6382,-0.095,-0.075
6383,-0.115,-0.075
6384,-0.095,-0.085
6385,-0.135,-0.085
6386,-0.135,-0.065
6387,-0.085,-0.075
6388,-0.105,-0.085
6389,-0.095,-0.075
6390,-0.115,-0.075
6391,-0.105,-0.085
6392,-0.095,-0.085
6393,-0.105,-0.095
6394,-0.145,-0.085
6395,-0.085,-0.095
6396,-0.135,-0.115
6397,-0.095,-0.105
6398,-0.105,-0.115
6399,-0.135,-0.135
6400,-0.135,-0.135
6401,-0.135,-0.135
6402,-0.075,-0.065
6403,0.025,-0.035
6404,-0.005,-0.075
6405,-0.025,-0.105
6406,-0.105,-0.105
6407,-0.145,-0.165
6408,-0.165,-0.155
6409,-0.165,-0.145
6410,-0.185,-0.155
6411,-0.195,-0.155
6412,-0.185,-0.155
6413,-0.175,-0.145
6414,-0.155,-0.145
6415,-0.225,-0.155
6416,-0.185,-0.155
6417,-0.165,-0.145
6418,-0.165,-0.145
6419,-0.155,-0.145
6420,-0.125,-0.145
6421,-0.245,-0.065
6422,-0.455,-0.065
6423,-0.215,0.225
6424,0.625,0.235
6425,1.635,-0.255
6426,1.215,-0.575
6427,-0.045,-0.985
6428,-0.565,-0.805
6429,-0.485,-0.395
6430,-0.265,-0.155
6431,-0.155,-0.055
6432,-0.195,-0.075
6433,-0.185,-0.065
6434,-0.165,-0.065
6435,-0.185,-0.085
6436,-0.125,-0.055
6437,-0.145,-0.055
6438,-0.155,-0.045
6439,-0.145,-0.055
6440,-0.155,-0.045
6441,-0.155,-0.045
6442,-0.125,-0.045
6443,-0.105,-0.045
6444,-0.095,-0.035
6445,-0.105,-0.025
6446,-0.105,-0.015
6447,-0.065,-0.025
6448,-0.055,-0.025
6449,-0.025,-0.005
6450,0.005,-0.015
6451,0.005,-0.005
6452,0.035,0.005
6453,0.045,0.015
6454,0.065,0.015
6455,0.105,0.005
6456,0.105,0.015
6457,0.145,0.045
6458,0.165,0.045
6459,0.235,0.045
6460,0.275,0.075
6461,0.255,0.095
6462,0.205,0.095
6463,0.175,0.085
6464,0.165,0.085
6465,0.125,0.065
6466,0.075,0.035
6467,-0.025,0.015
6468,-0.025,-0.015
6469,-0.015,-0.025
6470,-0.045,-0.035
6471,-0.055,-0.035
6472,-0.075,-0.045
6473,-0.105,-0.035
6474,-0.085,-0.035
6475,-0.085,-0.035
6476,-0.065,-0.035
6477,-0.035,-0.015
6478,-0.065,-0.015
6479,-0.055,-0.035
6480,-0.025,-0.035
6481,-0.065,-0.025
6482,-0.055,0.005
6483,-0.065,-0.035
6484,-0.085,-0.035
6485,-0.095,-0.055
6486,-0.075,-0.045
6487,-0.085,-0.055
6488,-0.035,-0.065
6489,-0.075,-0.075
6490,0.005,0.005
6491,0.025,0.005
6492,0.005,-0.045
6493,-0.055,-0.065
6494,-0.075,-0.085
6495,-0.105,-0.105
6496,-0.145,-0.115
6497,-0.145,-0.125
6498,-0.165,-0.125
6499,-0.175,-0.125
6500,-0.215,-0.135
6501,-0.145,-0.125
6502,-0.135,-0.115
6503,-0.185,-0.115
6504,-0.145,-0.125
6505,-0.165,-0.115
6506,-0.145,-0.095
6507,-0.165,-0.095
6508,-0.155,-0.095
6509,-0.375,-0.025
6510,-0.335,0.065
6511,0.215,0.475
6512,1.375,-0.105
6513,1.635,-0.445
6514,0.245,-0.835
