'sample interval','ECG1','ECG2'
'0.0078125 sec','mV','mV'
0,0.255,0.185
1,0.245,0.175
2,0.235,0.165
3,0.235,0.165
4,0.235,0.165
5,0.225,0.155
6,0.215,0.155
7,0.215,0.145
8,0.205,0.145
9,0.205,0.145
10,0.195,0.135
11,0.195,0.125
12,0.185,0.125
13,0.175,0.125
14,0.165,0.115
15,0.175,0.105
16,0.165,0.105
17,0.155,0.095
18,0.145,0.085
19,0.125,0.075
20,-0.475,-0.335
21,-0.685,-0.645
22,-0.645,-0.625
23,-0.635,-0.615
24,-0.635,-0.615
25,-0.635,-0.605
26,-0.625,-0.605
27,-0.605,-0.595
28,-0.605,-0.585
29,-0.595,-0.585
30,-0.595,-0.585
31,-0.575,-0.565
32,-0.565,-0.565
33,-0.565,-0.555
34,-0.555,-0.555
35,-0.545,-0.535
36,-0.535,-0.535
37,-0.525,-0.525
38,-0.525,-0.525
39,-0.515,-0.515
40,-0.505,-0.505
41,-0.505,-0.495
42,-0.495,-0.495
43,-0.485,-0.485
44,-0.475,-0.475
45,-0.465,-0.465
46,-0.465,-0.465
47,-0.455,-0.465
48,-0.455,-0.445
49,-0.445,-0.445
50,-0.435,-0.445
51,-0.425,-0.425
52,-0.425,-0.425
53,-0.415,-0.415
54,-0.405,-0.415
55,-0.395,-0.405
56,-0.395,-0.405
57,-0.395,-0.395
58,-0.385,-0.395
59,-0.375,-0.385
60,-0.375,-0.375
61,-0.365,-0.375
62,-0.365,-0.375
63,-0.355,-0.365
64,-0.355,-0.355
65,-0.345,-0.345
66,-0.345,-0.345
67,-0.335,-0.345
68,-0.325,-0.335
69,-0.325,-0.325
70,-0.315,-0.325
71,-0.315,-0.325
72,-0.305,-0.315
73,-0.305,-0.305
74,-0.305,-0.305
75,-0.295,-0.305
76,-0.285,-0.295
77,-0.285,-0.285
78,-0.275,-0.285
79,-0.275,-0.285
80,-0.265,-0.275
81,-0.255,-0.265
82,-0.235,-0.255
83,-0.265,-0.275
84,0.555,0.455
85,0.555,0.475
86,0.535,0.455
87,0.535,0.445
88,0.525,0.445
89,0.515,0.445
90,0.505,0.425
91,0.505,0.425
92,0.495,0.415
93,0.485,0.415
94,0.475,0.405
95,0.465,0.395
96,0.465,0.395
97,0.455,0.385
98,0.445,0.375
99,0.435,0.365
100,0.425,0.365
101,0.425,0.355
102,0.415,0.345
103,0.415,0.345
104,0.405,0.345
105,0.395,0.335
106,0.385,0.325
107,0.375,0.315
108,0.375,0.315
109,0.365,0.315
110,0.355,0.295
111,0.345,0.295
112,0.345,0.295
113,0.335,0.285
114,0.325,0.275
115,0.325,0.275
116,0.315,0.265
117,0.315,0.265
118,0.305,0.255
119,0.295,0.255
120,0.295,0.245
121,0.285,0.235
122,0.285,0.235
123,0.275,0.225
124,0.275,0.225
125,0.265,0.215
126,0.265,0.215
127,0.255,0.205
128,0.255,0.205
129,0.245,0.195
130,0.235,0.185
131,0.235,0.185
132,0.225,0.185
133,0.225,0.175
134,0.225,0.175
135,0.215,0.165
136,0.205,0.165
137,0.205,0.165
138,0.205,0.155
139,0.195,0.155
140,0.185,0.145
141,0.185,0.145
142,0.185,0.135
143,0.175,0.135
144,0.165,0.125
145,0.165,0.125
146,0.145,0.115
147,0.155,0.115
148,-0.665,-0.555
149,-0.655,-0.605
150,-0.635,-0.595
151,-0.625,-0.585
152,-0.615,-0.575
153,-0.615,-0.575
154,-0.605,-0.565
155,-0.595,-0.555
156,-0.595,-0.555
157,-0.585,-0.545
158,-0.575,-0.535
159,-0.565,-0.535
160,-0.565,-0.515
161,-0.555,-0.515
162,-0.545,-0.515
163,-0.535,-0.505
164,-0.535,-0.495
165,-0.515,-0.485
166,-0.515,-0.485
167,-0.505,-0.475
168,-0.505,-0.465
169,-0.485,-0.465
170,-0.485,-0.465
171,-0.475,-0.455
172,-0.475,-0.445
173,-0.465,-0.435
174,-0.455,-0.435
175,-0.445,-0.425
176,-0.445,-0.415
177,-0.435,-0.405
178,-0.425,-0.415
179,-0.415,-0.405
180,-0.415,-0.395
181,-0.405,-0.385
182,-0.405,-0.385
183,-0.395,-0.375
184,-0.385,-0.375
185,-0.385,-0.365
186,-0.375,-0.365
187,-0.375,-0.355
188,-0.365,-0.345
189,-0.355,-0.345
190,-0.355,-0.345
191,-0.345,-0.335
192,-0.345,-0.325
193,-0.335,-0.325
194,-0.335,-0.325
195,-0.325,-0.315
196,-0.315,-0.305
197,-0.315,-0.305
198,-0.305,-0.305
199,-0.295,-0.295
200,-0.295,-0.285
201,-0.285,-0.285
202,-0.285,-0.285
203,-0.275,-0.275
204,-0.265,-0.265
205,-0.265,-0.265
206,-0.265,-0.265
207,-0.255,-0.255
208,-0.245,-0.245
209,-0.245,-0.235
210,-0.235,-0.235
211,-0.215,-0.225
212,0.475,0.345
213,0.575,0.505
214,0.555,0.475
215,0.545,0.475
216,0.545,0.465
217,0.535,0.465
218,0.525,0.455
219,0.515,0.445
220,0.515,0.445
221,0.505,0.435
222,0.495,0.425
223,0.495,0.415
224,0.485,0.415
225,0.475,0.405
226,0.465,0.385
227,0.465,0.385
228,0.455,0.385
229,0.445,0.375
230,0.435,0.365
231,0.435,0.355
232,0.425,0.355
233,0.415,0.345
234,0.415,0.335
235,0.405,0.335
236,0.395,0.325
237,0.385,0.315
238,0.385,0.315
239,0.375,0.305
240,0.365,0.305
241,0.365,0.305
242,0.355,0.295
243,0.345,0.285
244,0.345,0.285
245,0.335,0.275
246,0.335,0.265
247,0.325,0.265
248,0.325,0.265
249,0.315,0.265
250,0.315,0.255
251,0.305,0.245
252,0.295,0.245
253,0.295,0.235
254,0.285,0.225
255,0.285,0.225
256,0.275,0.225
257,0.275,0.215
258,0.265,0.215
259,0.265,0.205
260,0.255,0.205
261,0.255,0.205
262,0.245,0.195
263,0.235,0.185
264,0.235,0.185
265,0.225,0.185
266,0.225,0.175
267,0.215,0.175
268,0.215,0.165
269,0.205,0.165
270,0.205,0.155
271,0.195,0.155
272,0.195,0.145
273,0.185,0.145
274,0.165,0.135
275,0.155,0.115
276,-0.435,-0.335
277,-0.645,-0.605
278,-0.615,-0.585
279,-0.605,-0.575
280,-0.605,-0.565
281,-0.595,-0.565
282,-0.595,-0.565
283,-0.585,-0.555
284,-0.575,-0.545
285,-0.565,-0.535
286,-0.555,-0.535
287,-0.545,-0.525
288,-0.535,-0.515
289,-0.535,-0.515
290,-0.525,-0.505
291,-0.505,-0.495
292,-0.505,-0.485
293,-0.495,-0.485
294,-0.485,-0.475
295,-0.475,-0.475
296,-0.475,-0.465
297,-0.465,-0.455
298,-0.465,-0.455
299,-0.455,-0.445
300,-0.445,-0.435
301,-0.435,-0.425
302,-0.425,-0.425
303,-0.425,-0.425
304,-0.415,-0.415
305,-0.405,-0.405
306,-0.405,-0.405
307,-0.395,-0.405
308,-0.385,-0.395
309,-0.385,-0.385
310,-0.375,-0.385
311,-0.375,-0.375
312,-0.365,-0.365
313,-0.355,-0.365
314,-0.355,-0.365
315,-0.345,-0.355
316,-0.335,-0.345
317,-0.335,-0.345
318,-0.335,-0.335
319,-0.325,-0.335
320,-0.315,-0.325
321,-0.315,-0.325
322,-0.305,-0.325
323,-0.295,-0.315
324,-0.295,-0.305
325,-0.285,-0.305
326,-0.285,-0.305
327,-0.275,-0.295
328,-0.265,-0.285
329,-0.265,-0.285
330,-0.265,-0.285
331,-0.255,-0.275
332,-0.255,-0.275
333,-0.245,-0.265
334,-0.235,-0.265
335,-0.225,-0.255
336,-0.225,-0.245
337,-0.215,-0.245
338,-0.195,-0.235
339,-0.215,-0.255
340,0.615,0.465
341,0.605,0.495
342,0.585,0.475
343,0.575,0.465
344,0.565,0.465
345,0.565,0.455
346,0.555,0.455
347,0.545,0.445
348,0.535,0.435
349,0.535,0.435
350,0.525,0.425
351,0.515,0.415
352,0.515,0.405
353,0.505,0.395
354,0.495,0.385
355,0.485,0.385
356,0.485,0.375
357,0.475,0.375
358,0.465,0.365
359,0.455,0.355
360,0.445,0.355
361,0.445,0.345
362,0.435,0.335
363,0.425,0.325
364,0.415,0.325
365,0.415,0.315
366,0.405,0.305
367,0.395,0.295
368,0.385,0.295
369,0.385,0.295
370,0.375,0.285
371,0.365,0.275
372,0.365,0.275
373,0.355,0.265
374,0.345,0.255
375,0.345,0.255
376,0.335,0.255
377,0.335,0.245
378,0.325,0.235
379,0.325,0.225
380,0.315,0.225
381,0.315,0.225
382,0.305,0.215
383,0.295,0.215
384,0.295,0.205
385,0.295,0.195
386,0.285,0.185
387,0.275,0.185
388,0.275,0.185
389,0.265,0.175
390,0.265,0.165
391,0.255,0.165
392,0.255,0.165
393,0.245,0.165
394,0.245,0.155
395,0.235,0.145
396,0.225,0.145
397,0.225,0.145
398,0.225,0.125
399,0.215,0.125
400,0.215,0.125
401,0.205,0.115
402,0.195,0.105
403,0.175,0.095
404,-0.475,-0.495
405,-0.585,-0.625
406,-0.565,-0.615
407,-0.555,-0.605
408,-0.555,-0.595
409,-0.545,-0.595
410,-0.545,-0.585
411,-0.535,-0.585
412,-0.525,-0.575
413,-0.515,-0.565
414,-0.515,-0.555
415,-0.505,-0.545
416,-0.505,-0.545
417,-0.495,-0.535
418,-0.485,-0.535
419,-0.485,-0.515
420,-0.475,-0.515
421,-0.465,-0.505
422,-0.455,-0.505
423,-0.445,-0.495
424,-0.445,-0.485
425,-0.435,-0.485
426,-0.435,-0.475
427,-0.415,-0.465
428,-0.415,-0.465
429,-0.405,-0.455
430,-0.395,-0.455
431,-0.395,-0.445
432,-0.385,-0.435
433,-0.385,-0.425
434,-0.375,-0.425
435,-0.365,-0.415
436,-0.365,-0.415
437,-0.355,-0.405
438,-0.355,-0.405
439,-0.345,-0.395
440,-0.335,-0.385
441,-0.335,-0.385
442,-0.335,-0.385
443,-0.325,-0.375
444,-0.325,-0.365
445,-0.325,-0.365
446,-0.315,-0.355
447,-0.305,-0.355
448,-0.305,-0.345
449,-0.295,-0.345
450,-0.295,-0.345
451,-0.295,-0.335
452,-0.285,-0.325
453,-0.275,-0.325
454,-0.275,-0.315
455,-0.275,-0.315
456,-0.275,-0.305
457,-0.265,-0.305
458,-0.255,-0.305
459,-0.245,-0.295
460,-0.245,-0.285
461,-0.245,-0.275
462,-0.235,-0.285
463,-0.225,-0.275
464,-0.215,-0.265
465,-0.215,-0.255
466,-0.205,-0.255
467,-0.195,-0.235
468,0.415,0.255
469,0.615,0.495
470,0.585,0.465
471,0.565,0.465
472,0.565,0.455
473,0.555,0.455
474,0.545,0.445
475,0.545,0.435
476,0.535,0.425
477,0.525,0.425
478,0.515,0.415
479,0.515,0.405
480,0.505,0.395
481,0.495,0.395
482,0.485,0.385
483,0.485,0.375
484,0.475,0.375
485,0.465,0.375
486,0.455,0.355
487,0.455,0.355
488,0.445,0.355
489,0.435,0.345
490,0.425,0.335
491,0.425,0.335
492,0.415,0.325
493,0.405,0.325
494,0.395,0.305
495,0.395,0.305
496,0.395,0.295
497,0.385,0.295
498,0.375,0.285
499,0.365,0.285
500,0.365,0.275
501,0.355,0.275
502,0.345,0.265
503,0.345,0.255
504,0.345,0.255
505,0.335,0.245
506,0.315,0.235
507,0.315,0.235
508,0.315,0.235
509,0.305,0.235
510,0.295,0.225
511,0.295,0.215
512,0.295,0.215
513,0.285,0.205
514,0.275,0.195
515,0.275,0.195
516,0.265,0.195
517,0.265,0.185
518,0.255,0.185
519,0.255,0.175
520,0.245,0.175
521,0.235,0.175
522,0.235,0.165
523,0.225,0.165
524,0.225,0.155
525,0.215,0.155
526,0.215,0.145
527,0.205,0.145
528,0.195,0.135
529,0.185,0.135
530,0.175,0.115
531,0.215,0.165
532,-0.645,-0.565
533,-0.625,-0.585
534,-0.605,-0.575
535,-0.595,-0.565
536,-0.585,-0.565
537,-0.585,-0.555
538,-0.575,-0.555
539,-0.565,-0.545
540,-0.565,-0.535
541,-0.545,-0.535
542,-0.545,-0.535
543,-0.535,-0.525
544,-0.525,-0.515
545,-0.515,-0.505
546,-0.515,-0.505
547,-0.505,-0.495
548,-0.495,-0.485
549,-0.495,-0.485
550,-0.475,-0.475
551,-0.475,-0.465
552,-0.465,-0.465
553,-0.455,-0.455
554,-0.455,-0.455
555,-0.445,-0.445
556,-0.435,-0.435
557,-0.425,-0.425
558,-0.415,-0.425
559,-0.415,-0.415
560,-0.405,-0.405
561,-0.405,-0.405
562,-0.405,-0.405
563,-0.385,-0.395
564,-0.385,-0.385
565,-0.385,-0.385
566,-0.375,-0.375
567,-0.365,-0.365
568,-0.355,-0.365
569,-0.355,-0.355
570,-0.345,-0.355
571,-0.345,-0.345
572,-0.335,-0.335
573,-0.335,-0.335
574,-0.325,-0.325
575,-0.315,-0.325
576,-0.305,-0.315
577,-0.305,-0.315
578,-0.295,-0.315
579,-0.285,-0.305
580,-0.275,-0.295
581,-0.275,-0.295
582,-0.265,-0.285
583,-0.265,-0.285
584,-0.255,-0.275
585,-0.255,-0.275
586,-0.245,-0.265
587,-0.245,-0.265
588,-0.235,-0.255
589,-0.235,-0.255
590,-0.225,-0.255
591,-0.225,-0.245
592,-0.215,-0.235
593,-0.215,-0.225
594,-0.205,-0.225
595,-0.185,-0.215
596,0.445,0.335
597,0.605,0.505
598,0.575,0.485
599,0.575,0.475
600,0.565,0.475
601,0.565,0.465
602,0.555,0.455
603,0.545,0.455
604,0.535,0.445
605,0.525,0.435
606,0.525,0.435
607,0.515,0.425
608,0.495,0.425
609,0.495,0.415
610,0.485,0.405
611,0.475,0.395
612,0.465,0.385
613,0.465,0.385
614,0.455,0.375
615,0.445,0.375
616,0.435,0.375
617,0.425,0.355
618,0.415,0.355
619,0.415,0.345
620,0.405,0.345
621,0.395,0.335
622,0.385,0.325
623,0.385,0.315
624,0.375,0.315
625,0.375,0.315
626,0.355,0.305
627,0.355,0.295
628,0.345,0.285
629,0.345,0.285
630,0.335,0.275
631,0.335,0.275
632,0.325,0.265
633,0.315,0.265
634,0.315,0.255
635,0.305,0.255
636,0.295,0.245
637,0.295,0.235
638,0.285,0.235
639,0.285,0.225
640,0.275,0.225
641,0.275,0.225
642,0.265,0.215
643,0.265,0.215
644,0.255,0.205
645,0.255,0.205
646,0.245,0.195
647,0.245,0.195
648,0.235,0.195
649,0.235,0.185
650,0.225,0.175
651,0.225,0.175
652,0.215,0.175
653,0.215,0.165
654,0.205,0.155
655,0.205,0.155
656,0.195,0.155
657,0.185,0.145
658,0.185,0.135
659,0.165,0.125
660,-0.315,-0.245
661,-0.645,-0.595
662,-0.625,-0.575
663,-0.605,-0.565
664,-0.595,-0.565
665,-0.595,-0.555
666,-0.595,-0.555
667,-0.585,-0.545
668,-0.575,-0.535
669,-0.575,-0.525
670,-0.565,-0.525
671,-0.555,-0.515
672,-0.545,-0.505
673,-0.545,-0.495
674,-0.535,-0.495
675,-0.525,-0.485
676,-0.515,-0.475
677,-0.515,-0.475
678,-0.505,-0.465
679,-0.495,-0.455
680,-0.485,-0.455
681,-0.485,-0.445
682,-0.475,-0.445
683,-0.465,-0.435
684,-0.465,-0.425
685,-0.455,-0.415
686,-0.445,-0.425
687,-0.435,-0.415
688,-0.425,-0.405
689,-0.425,-0.395
690,-0.425,-0.395
691,-0.415,-0.385
692,-0.405,-0.375
693,-0.405,-0.375
694,-0.395,-0.375
695,-0.385,-0.365
696,-0.375,-0.355
697,-0.375,-0.345
698,-0.365,-0.345
699,-0.365,-0.345
700,-0.355,-0.335
701,-0.345,-0.325
702,-0.345,-0.325
703,-0.335,-0.325
704,-0.325,-0.315
705,-0.325,-0.305
706,-0.325,-0.305
707,-0.315,-0.305
708,-0.305,-0.295
709,-0.305,-0.295
710,-0.305,-0.285
711,-0.295,-0.285
712,-0.295,-0.275
713,-0.285,-0.275
714,-0.285,-0.275
715,-0.285,-0.265
716,-0.275,-0.255
717,-0.265,-0.255
718,-0.265,-0.255
719,-0.255,-0.245
720,-0.255,-0.245
721,-0.245,-0.235
722,-0.235,-0.225
723,-0.225,-0.215
724,-0.045,-0.065
725,0.585,0.525
726,0.555,0.495
727,0.545,0.485
728,0.545,0.485
729,0.535,0.475
730,0.525,0.465
731,0.515,0.465
732,0.505,0.455
733,0.495,0.445
734,0.495,0.435
735,0.485,0.425
736,0.475,0.425
737,0.465,0.415
738,0.455,0.405
739,0.455,0.405
740,0.435,0.395
741,0.435,0.385
742,0.425,0.375
743,0.415,0.375
744,0.415,0.375
745,0.405,0.365
746,0.395,0.355
747,0.395,0.345
748,0.385,0.345
749,0.375,0.335
750,0.375,0.325
751,0.365,0.315
752,0.355,0.315
753,0.345,0.305
754,0.345,0.305
755,0.335,0.295
756,0.325,0.285
757,0.325,0.285
758,0.315,0.275
759,0.315,0.265
760,0.305,0.265
761,0.295,0.265
762,0.295,0.255
763,0.285,0.245
764,0.275,0.245
765,0.275,0.235
766,0.265,0.235
767,0.265,0.225
768,0.255,0.225
769,0.245,0.215
770,0.245,0.205
771,0.235,0.205
772,0.235,0.205
773,0.225,0.195
774,0.215,0.185
775,0.215,0.185
776,0.215,0.185
777,0.205,0.175
778,0.195,0.165
779,0.195,0.165
780,0.185,0.155
781,0.185,0.155
782,0.175,0.145
783,0.165,0.145
784,0.165,0.135
785,0.155,0.135
786,0.145,0.115
787,0.135,0.115
788,-0.615,-0.525
789,-0.665,-0.595
790,-0.635,-0.585
791,-0.635,-0.575
792,-0.625,-0.575
793,-0.625,-0.565
794,-0.615,-0.565
795,-0.605,-0.555
796,-0.605,-0.545
797,-0.595,-0.545
798,-0.585,-0.535
799,-0.575,-0.535
800,-0.565,-0.515
801,-0.565,-0.515
802,-0.555,-0.505
803,-0.545,-0.505
804,-0.535,-0.495
805,-0.525,-0.485
806,-0.515,-0.485
807,-0.515,-0.475
808,-0.505,-0.475
809,-0.495,-0.465
810,-0.495,-0.465
811,-0.495,-0.455
812,-0.475,-0.445
813,-0.475,-0.435
814,-0.465,-0.435
815,-0.465,-0.425
816,-0.455,-0.425
817,-0.445,-0.415
818,-0.445,-0.415
819,-0.435,-0.405
820,-0.435,-0.405
821,-0.425,-0.395
822,-0.425,-0.395
823,-0.415,-0.385
824,-0.405,-0.375
825,-0.405,-0.375
826,-0.395,-0.375
827,-0.385,-0.365
828,-0.385,-0.365
829,-0.375,-0.355
830,-0.375,-0.355
831,-0.365,-0.345
832,-0.365,-0.345
833,-0.355,-0.335
834,-0.345,-0.335
835,-0.345,-0.325
836,-0.335,-0.325
837,-0.335,-0.315
838,-0.325,-0.315
839,-0.325,-0.305
840,-0.315,-0.305
841,-0.305,-0.305
842,-0.305,-0.295
843,-0.295,-0.295
844,-0.295,-0.285
845,-0.285,-0.285
846,-0.285,-0.285
847,-0.275,-0.275
848,-0.275,-0.265
849,-0.265,-0.265
850,-0.255,-0.255
851,-0.235,-0.245
852,0.295,0.205
853,0.575,0.475
854,0.535,0.455
855,0.535,0.445
856,0.525,0.445
857,0.515,0.445
858,0.505,0.425
859,0.505,0.425
860,0.495,0.425
861,0.485,0.415
862,0.475,0.405
863,0.475,0.395
864,0.465,0.385
865,0.465,0.385
866,0.445,0.375
867,0.435,0.365
868,0.425,0.365
869,0.425,0.355
870,0.415,0.345
871,0.405,0.335
872,0.395,0.335
873,0.385,0.325
874,0.375,0.315
875,0.375,0.305
876,0.375,0.305
877,0.355,0.295
878,0.345,0.285
879,0.345,0.285
880,0.345,0.275
881,0.335,0.265
882,0.325,0.265
883,0.325,0.255
884,0.315,0.255
885,0.305,0.245
886,0.305,0.235
887,0.295,0.225
888,0.295,0.225
889,0.285,0.225
890,0.275,0.215
891,0.275,0.205
892,0.275,0.205
893,0.265,0.205
894,0.255,0.195
895,0.255,0.195
896,0.245,0.185
897,0.235,0.185
898,0.235,0.165
899,0.225,0.165
900,0.225,0.165
901,0.215,0.165
902,0.215,0.145
903,0.205,0.145
904,0.205,0.145
905,0.205,0.145
906,0.195,0.135
907,0.185,0.125
908,0.185,0.125
909,0.175,0.125
910,0.165,0.115
911,0.165,0.115
912,0.155,0.095
913,0.155,0.095
914,0.135,0.085
915,0.115,0.075
916,-0.535,-0.495
917,-0.675,-0.645
918,-0.645,-0.625
919,-0.635,-0.615
920,-0.635,-0.615
921,-0.625,-0.605
922,-0.615,-0.605
923,-0.605,-0.595
924,-0.605,-0.585
925,-0.595,-0.575
926,-0.585,-0.575
927,-0.575,-0.565
928,-0.575,-0.555
929,-0.565,-0.545
930,-0.555,-0.545
931,-0.545,-0.535
932,-0.535,-0.525
933,-0.535,-0.525
934,-0.525,-0.515
935,-0.515,-0.515
936,-0.515,-0.505
937,-0.505,-0.495
938,-0.495,-0.495
939,-0.485,-0.485
940,-0.485,-0.475
941,-0.475,-0.465
942,-0.475,-0.465
943,-0.465,-0.465
944,-0.455,-0.455
945,-0.445,-0.445
946,-0.445,-0.445
947,-0.435,-0.435
948,-0.425,-0.435
949,-0.425,-0.425
950,-0.415,-0.425
951,-0.405,-0.415
952,-0.395,-0.405
953,-0.405,-0.395
954,-0.385,-0.395
955,-0.385,-0.395
956,-0.375,-0.385
957,-0.375,-0.385
958,-0.365,-0.385
959,-0.355,-0.375
960,-0.355,-0.365
961,-0.355,-0.365
962,-0.345,-0.355
963,-0.345,-0.355
964,-0.335,-0.345
965,-0.325,-0.345
966,-0.325,-0.345
967,-0.315,-0.335
968,-0.315,-0.325
969,-0.315,-0.325
970,-0.305,-0.315
971,-0.295,-0.315
972,-0.295,-0.305
973,-0.295,-0.305
974,-0.295,-0.295
975,-0.275,-0.295
976,-0.275,-0.285
977,-0.275,-0.275
978,-0.265,-0.275
979,-0.245,-0.255
980,-0.105,-0.135
981,0.575,0.475
982,0.535,0.445
983,0.525,0.435
984,0.515,0.435
985,0.515,0.435
986,0.505,0.425
987,0.505,0.415
988,0.495,0.405
989,0.485,0.405
990,0.475,0.395
991,0.465,0.385
992,0.465,0.375
993,0.455,0.375
994,0.445,0.365
995,0.435,0.365
996,0.435,0.355
997,0.425,0.355
998,0.415,0.335
999,0.405,0.335
1000,0.405,0.325
1001,0.395,0.325
1002,0.385,0.315
1003,0.375,0.305
1004,0.375,0.305
1005,0.365,0.295
1006,0.355,0.285
1007,0.355,0.285
1008,0.345,0.275
1009,0.335,0.275
1010,0.335,0.265
1011,0.325,0.255
1012,0.315,0.255
1013,0.315,0.245
1014,0.305,0.245
1015,0.295,0.235
1016,0.285,0.235
1017,0.285,0.225
1018,0.275,0.225
1019,0.275,0.215
1020,0.265,0.215
1021,0.255,0.205
1022,0.255,0.195
1023,0.245,0.195
1024,0.245,0.195
1025,0.235,0.185
1026,0.225,0.175
1027,0.225,0.175
1028,0.215,0.175
1029,0.215,0.165
1030,0.215,0.165
1031,0.205,0.155
1032,0.195,0.155
1033,0.195,0.145
1034,0.185,0.145
1035,0.185,0.135
1036,0.175,0.135
1037,0.175,0.125
1038,0.165,0.125
1039,0.165,0.115
1040,0.155,0.115
1041,0.145,0.115
1042,0.135,0.095
1043,0.125,0.095
1044,-0.605,-0.575
1045,-0.645,-0.625
1046,-0.635,-0.615
1047,-0.625,-0.605
1048,-0.625,-0.605
1049,-0.615,-0.595
1050,-0.615,-0.595
1051,-0.605,-0.585
1052,-0.595,-0.575
1053,-0.585,-0.565
1054,-0.585,-0.565
1055,-0.575,-0.545
1056,-0.565,-0.545
1057,-0.555,-0.535
1058,-0.545,-0.535
1059,-0.535,-0.525
1060,-0.535,-0.515
1061,-0.525,-0.505
1062,-0.515,-0.505
1063,-0.515,-0.495
1064,-0.505,-0.485
1065,-0.505,-0.475
1066,-0.495,-0.475
1067,-0.485,-0.465
1068,-0.475,-0.465
1069,-0.465,-0.455
1070,-0.465,-0.445
1071,-0.465,-0.435
1072,-0.455,-0.435
1073,-0.445,-0.425
1074,-0.445,-0.425
1075,-0.435,-0.415
1076,-0.435,-0.405
1077,-0.425,-0.405
1078,-0.415,-0.405
1079,-0.405,-0.395
1080,-0.405,-0.385
1081,-0.395,-0.375
1082,-0.395,-0.375
1083,-0.385,-0.375
1084,-0.375,-0.365
1085,-0.365,-0.355
1086,-0.365,-0.355
1087,-0.355,-0.355
1088,-0.345,-0.345
1089,-0.345,-0.335
1090,-0.345,-0.335
1091,-0.325,-0.325
1092,-0.325,-0.325
1093,-0.325,-0.315
1094,-0.315,-0.315
1095,-0.305,-0.305
1096,-0.305,-0.305
1097,-0.295,-0.295
1098,-0.295,-0.295
1099,-0.285,-0.285
1100,-0.285,-0.275
1101,-0.275,-0.275
1102,-0.275,-0.275
1103,-0.265,-0.265
1104,-0.265,-0.255
1105,-0.255,-0.255
1106,-0.245,-0.245
1107,-0.215,-0.235
1108,0.485,0.385
1109,0.575,0.495
1110,0.545,0.475
1111,0.535,0.465
1112,0.525,0.465
1113,0.525,0.455
1114,0.515,0.445
1115,0.505,0.445
1116,0.505,0.435
1117,0.495,0.425
1118,0.485,0.415
1119,0.475,0.415
1120,0.475,0.405
1121,0.455,0.395
1122,0.455,0.385
1123,0.445,0.375
1124,0.435,0.375
1125,0.435,0.375
1126,0.425,0.355
1127,0.415,0.355
1128,0.405,0.355
1129,0.395,0.345
1130,0.395,0.335
1131,0.395,0.325
1132,0.375,0.325
1133,0.375,0.315
1134,0.355,0.305
1135,0.355,0.305
1136,0.345,0.295
1137,0.345,0.295
1138,0.335,0.285
1139,0.335,0.275
1140,0.325,0.275
1141,0.325,0.265
1142,0.315,0.255
1143,0.305,0.255
1144,0.305,0.255
1145,0.305,0.245
1146,0.295,0.245
1147,0.295,0.235
1148,0.285,0.235
1149,0.285,0.225
1150,0.275,0.215
1151,0.275,0.215
1152,0.265,0.215
1153,0.255,0.205
1154,0.255,0.195
1155,0.245,0.195
1156,0.245,0.195
1157,0.235,0.185
1158,0.235,0.185
1159,0.225,0.175
1160,0.225,0.175
1161,0.215,0.175
1162,0.215,0.165
1163,0.215,0.165
1164,0.215,0.155
1165,0.205,0.155
1166,0.195,0.145
1167,0.195,0.145
1168,0.185,0.135
1169,0.175,0.135
1170,0.165,0.125
1171,0.155,0.115
1172,0.005,-0.005
1173,-0.655,-0.615
1174,-0.625,-0.595
1175,-0.615,-0.585
1176,-0.605,-0.575
1177,-0.595,-0.575
1178,-0.595,-0.565
1179,-0.585,-0.555
1180,-0.575,-0.555
1181,-0.575,-0.545
1182,-0.565,-0.545
1183,-0.555,-0.535
1184,-0.545,-0.525
1185,-0.535,-0.515
1186,-0.535,-0.515
1187,-0.525,-0.505
1188,-0.515,-0.495
1189,-0.505,-0.485
1190,-0.495,-0.485
1191,-0.495,-0.475
1192,-0.485,-0.465
1193,-0.485,-0.465
1194,-0.475,-0.455
1195,-0.455,-0.455
1196,-0.445,-0.445
1197,-0.445,-0.435
1198,-0.445,-0.435
1199,-0.425,-0.425
1200,-0.425,-0.415
1201,-0.415,-0.415
1202,-0.415,-0.405
1203,-0.405,-0.395
1204,-0.395,-0.395
1205,-0.385,-0.385
1206,-0.375,-0.375
1207,-0.375,-0.375
1208,-0.365,-0.365
1209,-0.365,-0.365
1210,-0.365,-0.365
1211,-0.355,-0.355
1212,-0.345,-0.345
1213,-0.345,-0.345
1214,-0.335,-0.345
1215,-0.325,-0.335
1216,-0.315,-0.325
1217,-0.315,-0.325
1218,-0.315,-0.325
1219,-0.305,-0.315
1220,-0.295,-0.305
1221,-0.295,-0.305
1222,-0.285,-0.305
1223,-0.275,-0.295
1224,-0.275,-0.295
1225,-0.265,-0.285
1226,-0.265,-0.285
1227,-0.255,-0.275
1228,-0.255,-0.265
1229,-0.245,-0.265
1230,-0.235,-0.265
1231,-0.225,-0.255
1232,-0.225,-0.255
1233,-0.215,-0.245
1234,-0.205,-0.235
1235,-0.185,-0.225
1236,0.445,0.375
1237,0.585,0.495
1238,0.565,0.475
1239,0.565,0.475
1240,0.555,0.465
1241,0.545,0.455
1242,0.545,0.445
1243,0.535,0.445
1244,0.535,0.435
1245,0.525,0.425
1246,0.515,0.415
1247,0.505,0.415
1248,0.495,0.405
1249,0.495,0.405
1250,0.485,0.385
1251,0.485,0.385
1252,0.475,0.375
1253,0.455,0.375
1254,0.455,0.365
1255,0.445,0.355
1256,0.435,0.345
1257,0.435,0.345
1258,0.425,0.335
1259,0.425,0.325
1260,0.415,0.325
1261,0.405,0.315
1262,0.395,0.305
1263,0.395,0.305
1264,0.375,0.295
1265,0.375,0.295
1266,0.375,0.275
1267,0.365,0.275
1268,0.355,0.265
1269,0.355,0.265
1270,0.345,0.255
1271,0.345,0.255
1272,0.335,0.245
1273,0.325,0.245
1274,0.325,0.225
1275,0.315,0.225
1276,0.305,0.215
1277,0.305,0.215
1278,0.295,0.205
1279,0.295,0.205
1280,0.285,0.205
1281,0.285,0.195
1282,0.275,0.185
1283,0.275,0.185
1284,0.265,0.175
1285,0.265,0.175
1286,0.255,0.165
1287,0.255,0.165
1288,0.245,0.155
1289,0.245,0.155
1290,0.235,0.145
1291,0.235,0.135
1292,0.225,0.145
1293,0.225,0.135
1294,0.225,0.125
1295,0.215,0.125
1296,0.205,0.115
1297,0.205,0.115
1298,0.195,0.095
1299,0.175,0.095
1300,-0.475,-0.525
1301,-0.595,-0.625
1302,-0.575,-0.605
1303,-0.575,-0.595
1304,-0.575,-0.595
1305,-0.565,-0.595
1306,-0.555,-0.585
1307,-0.545,-0.585
1308,-0.535,-0.575
1309,-0.535,-0.565
1310,-0.525,-0.565
1311,-0.525,-0.555
1312,-0.515,-0.545
1313,-0.505,-0.535
1314,-0.505,-0.535
1315,-0.495,-0.525
1316,-0.495,-0.515
1317,-0.485,-0.515
1318,-0.475,-0.515
1319,-0.465,-0.505
1320,-0.465,-0.495
1321,-0.455,-0.485
1322,-0.445,-0.485
1323,-0.435,-0.475
1324,-0.435,-0.465
1325,-0.425,-0.465
1326,-0.415,-0.465
1327,-0.415,-0.455
1328,-0.405,-0.445
1329,-0.395,-0.435
1330,-0.395,-0.435
1331,-0.385,-0.435
1332,-0.375,-0.425
1333,-0.375,-0.415
1334,-0.365,-0.415
1335,-0.355,-0.405
1336,-0.355,-0.395
1337,-0.345,-0.395
1338,-0.345,-0.395
1339,-0.335,-0.385
1340,-0.325,-0.375
1341,-0.325,-0.375
1342,-0.315,-0.365
1343,-0.315,-0.365
1344,-0.305,-0.355
1345,-0.295,-0.355
1346,-0.285,-0.345
1347,-0.295,-0.345
1348,-0.285,-0.335
1349,-0.275,-0.335
1350,-0.275,-0.335
1351,-0.265,-0.325
1352,-0.265,-0.325
1353,-0.255,-0.315
1354,-0.255,-0.315
1355,-0.235,-0.305
1356,-0.235,-0.305
1357,-0.225,-0.305
1358,-0.225,-0.295
1359,-0.215,-0.285
1360,-0.215,-0.285
1361,-0.205,-0.275
1362,-0.195,-0.265
1363,-0.185,-0.255
1364,0.305,0.185
1365,0.625,0.465
1366,0.585,0.445
1367,0.575,0.435
1368,0.565,0.435
1369,0.565,0.425
1370,0.555,0.415
1371,0.555,0.415
1372,0.535,0.405
1373,0.535,0.395
1374,0.525,0.385
1375,0.515,0.385
1376,0.505,0.375
1377,0.495,0.365
1378,0.485,0.365
1379,0.485,0.355
1380,0.475,0.345
1381,0.465,0.345
1382,0.455,0.335
1383,0.455,0.325
1384,0.445,0.325
1385,0.435,0.315
1386,0.425,0.305
1387,0.425,0.295
1388,0.415,0.295
1389,0.405,0.285
1390,0.395,0.285
1391,0.395,0.275
1392,0.395,0.265
1393,0.375,0.265
1394,0.375,0.255
1395,0.365,0.255
1396,0.365,0.245
1397,0.355,0.245
1398,0.355,0.235
1399,0.345,0.235
1400,0.335,0.225
1401,0.335,0.215
1402,0.325,0.215
1403,0.325,0.215
1404,0.315,0.205
1405,0.305,0.205
1406,0.305,0.195
1407,0.305,0.195
1408,0.295,0.185
1409,0.285,0.185
1410,0.275,0.175
1411,0.275,0.175
1412,0.265,0.165
1413,0.265,0.165
1414,0.255,0.155
1415,0.255,0.155
1416,0.245,0.145
1417,0.245,0.145
1418,0.235,0.135
1419,0.235,0.135
1420,0.225,0.135
1421,0.225,0.125
1422,0.215,0.115
1423,0.215,0.115
1424,0.205,0.115
1425,0.195,0.105
1426,0.185,0.095
1427,0.165,0.085
1428,-0.295,-0.315
1429,-0.635,-0.635
1430,-0.605,-0.615
1431,-0.595,-0.605
1432,-0.585,-0.605
1433,-0.585,-0.595
1434,-0.575,-0.585
1435,-0.565,-0.585
1436,-0.555,-0.575
1437,-0.555,-0.565
1438,-0.545,-0.565
1439,-0.535,-0.555
1440,-0.525,-0.545
1441,-0.515,-0.535
1442,-0.515,-0.535
1443,-0.505,-0.525
1444,-0.495,-0.515
1445,-0.485,-0.505
1446,-0.485,-0.505
1447,-0.475,-0.495
1448,-0.465,-0.495
1449,-0.455,-0.485
1450,-0.455,-0.475
1451,-0.445,-0.465
1452,-0.435,-0.465
1453,-0.425,-0.455
1454,-0.415,-0.445
1455,-0.415,-0.445
1456,-0.405,-0.435
1457,-0.395,-0.425
1458,-0.395,-0.425
1459,-0.385,-0.415
1460,-0.385,-0.405
1461,-0.375,-0.405
1462,-0.365,-0.405
1463,-0.365,-0.395
1464,-0.365,-0.385
1465,-0.355,-0.385
1466,-0.345,-0.375
1467,-0.345,-0.375
1468,-0.335,-0.365
1469,-0.325,-0.355
1470,-0.325,-0.355
1471,-0.315,-0.345
1472,-0.305,-0.345
1473,-0.305,-0.335
1474,-0.295,-0.345
1475,-0.295,-0.335
1476,-0.295,-0.325
1477,-0.285,-0.325
1478,-0.285,-0.325
1479,-0.275,-0.315
1480,-0.265,-0.315
1481,-0.265,-0.305
1482,-0.265,-0.295
1483,-0.255,-0.295
1484,-0.245,-0.285
1485,-0.235,-0.285
1486,-0.235,-0.275
1487,-0.225,-0.275
1488,-0.225,-0.265
1489,-0.215,-0.255
1490,-0.205,-0.255
1491,-0.185,-0.245
1492,0.505,0.365
1493,0.615,0.485
1494,0.585,0.455
1495,0.575,0.455
1496,0.575,0.455
1497,0.565,0.445
1498,0.555,0.435
1499,0.555,0.425
1500,0.535,0.425
1501,0.525,0.415
1502,0.525,0.405
1503,0.515,0.405
1504,0.505,0.395
1505,0.505,0.395
1506,0.495,0.385
1507,0.485,0.375
1508,0.485,0.365
1509,0.475,0.365
1510,0.465,0.355
1511,0.455,0.345
1512,0.445,0.345
1513,0.445,0.335
1514,0.435,0.325
1515,0.425,0.325
1516,0.415,0.315
1517,0.405,0.315
1518,0.405,0.295
1519,0.395,0.295
1520,0.385,0.285
1521,0.385,0.285
1522,0.375,0.275
1523,0.365,0.275
1524,0.365,0.265
1525,0.355,0.265
1526,0.345,0.255
1527,0.345,0.245
1528,0.335,0.245
1529,0.335,0.235
1530,0.325,0.225
1531,0.315,0.225
1532,0.315,0.225
1533,0.305,0.215
1534,0.295,0.205
1535,0.295,0.205
1536,0.285,0.205
1537,0.285,0.195
1538,0.275,0.195
1539,0.275,0.185
1540,0.265,0.185
1541,0.265,0.175
1542,0.255,0.165
1543,0.255,0.165
1544,0.245,0.165
1545,0.245,0.155
1546,0.225,0.155
1547,0.235,0.155
1548,0.225,0.145
1549,0.215,0.145
1550,0.205,0.135
1551,0.205,0.125
1552,0.205,0.125
1553,0.195,0.125
1554,0.185,0.105
1555,0.165,0.095
1556,-0.335,-0.365
1557,-0.635,-0.625
1558,-0.605,-0.605
1559,-0.595,-0.595
1560,-0.595,-0.595
1561,-0.585,-0.585
1562,-0.585,-0.585
1563,-0.575,-0.575
1564,-0.565,-0.565
1565,-0.555,-0.555
1566,-0.555,-0.555
1567,-0.545,-0.545
1568,-0.535,-0.525
1569,-0.535,-0.525
1570,-0.525,-0.525
1571,-0.515,-0.515
1572,-0.505,-0.505
1573,-0.495,-0.495
1574,-0.495,-0.495
1575,-0.485,-0.485
1576,-0.485,-0.475
1577,-0.465,-0.475
1578,-0.455,-0.465
1579,-0.445,-0.465
1580,-0.445,-0.455
1581,-0.435,-0.445
1582,-0.425,-0.445
1583,-0.425,-0.435
1584,-0.425,-0.425
1585,-0.415,-0.425
1586,-0.405,-0.415
1587,-0.395,-0.405
1588,-0.395,-0.405
1589,-0.385,-0.395
1590,-0.375,-0.395
1591,-0.375,-0.385
1592,-0.365,-0.375
1593,-0.365,-0.365
1594,-0.355,-0.365
1595,-0.345,-0.365
1596,-0.345,-0.345
1597,-0.335,-0.345
1598,-0.335,-0.345
1599,-0.325,-0.345
1600,-0.315,-0.335
1601,-0.315,-0.325
1602,-0.305,-0.325
1603,-0.305,-0.315
1604,-0.295,-0.315
1605,-0.295,-0.305
1606,-0.285,-0.305
1607,-0.285,-0.305
1608,-0.275,-0.295
1609,-0.275,-0.295
1610,-0.275,-0.285
1611,-0.265,-0.285
1612,-0.265,-0.275
1613,-0.255,-0.275
1614,-0.255,-0.275
1615,-0.245,-0.265
1616,-0.245,-0.255
1617,-0.235,-0.245
1618,-0.225,-0.245
1619,-0.195,-0.225
1620,0.415,0.345
1621,0.585,0.495
1622,0.555,0.475
1623,0.555,0.465
1624,0.545,0.465
1625,0.535,0.455
1626,0.535,0.445
1627,0.525,0.445
1628,0.515,0.435
1629,0.505,0.425
1630,0.505,0.415
1631,0.495,0.415
1632,0.485,0.405
1633,0.475,0.405
1634,0.465,0.385
1635,0.465,0.385
1636,0.455,0.385
1637,0.445,0.365
1638,0.435,0.365
1639,0.425,0.355
1640,0.425,0.355
1641,0.415,0.345
1642,0.405,0.335
1643,0.395,0.335
1644,0.395,0.325
1645,0.385,0.315
1646,0.385,0.315
1647,0.375,0.305
1648,0.365,0.305
1649,0.365,0.295
1650,0.355,0.285
1651,0.345,0.275
1652,0.335,0.275
1653,0.335,0.275
1654,0.325,0.265
1655,0.325,0.255
1656,0.315,0.255
1657,0.305,0.255
1658,0.295,0.235
1659,0.295,0.235
1660,0.295,0.235
1661,0.285,0.225
1662,0.275,0.225
1663,0.275,0.215
1664,0.265,0.215
1665,0.255,0.205
1666,0.245,0.205
1667,0.245,0.195
1668,0.235,0.195
1669,0.235,0.185
1670,0.235,0.185
1671,0.225,0.175
1672,0.215,0.175
1673,0.215,0.175
1674,0.205,0.155
1675,0.205,0.155
1676,0.195,0.155
1677,0.195,0.155
1678,0.175,0.145
1679,0.175,0.135
1680,0.175,0.135
1681,0.165,0.125
1682,0.155,0.115
1683,0.145,0.105
1684,-0.095,-0.155
1685,-0.675,-0.625
1686,-0.645,-0.595
1687,-0.625,-0.595
1688,-0.625,-0.585
1689,-0.615,-0.575
1690,-0.615,-0.575
1691,-0.605,-0.565
1692,-0.595,-0.555
1693,-0.585,-0.545
1694,-0.585,-0.545
1695,-0.575,-0.535
1696,-0.565,-0.525
1697,-0.555,-0.515
1698,-0.545,-0.515
1699,-0.535,-0.505
1700,-0.535,-0.495
1701,-0.525,-0.495
1702,-0.515,-0.485
1703,-0.505,-0.485
1704,-0.495,-0.475
1705,-0.495,-0.465
1706,-0.485,-0.465
1707,-0.475,-0.455
1708,-0.465,-0.455
1709,-0.475,-0.445
1710,-0.465,-0.435
1711,-0.455,-0.435
1712,-0.445,-0.425
1713,-0.445,-0.425
1714,-0.435,-0.415
1715,-0.425,-0.405
1716,-0.425,-0.405
1717,-0.405,-0.395
1718,-0.405,-0.395
1719,-0.395,-0.395
1720,-0.395,-0.385
1721,-0.385,-0.375
1722,-0.375,-0.375
1723,-0.365,-0.375
1724,-0.365,-0.365
1725,-0.355,-0.365
1726,-0.355,-0.355
1727,-0.345,-0.355
1728,-0.345,-0.345
1729,-0.335,-0.335
1730,-0.335,-0.335
1731,-0.325,-0.335
1732,-0.325,-0.325
1733,-0.315,-0.325
1734,-0.315,-0.315
1735,-0.305,-0.315
1736,-0.305,-0.305
1737,-0.295,-0.305
1738,-0.295,-0.305
1739,-0.285,-0.295
1740,-0.285,-0.285
1741,-0.275,-0.285
1742,-0.275,-0.285
1743,-0.265,-0.275
1744,-0.255,-0.265
1745,-0.245,-0.265
1746,-0.235,-0.255
1747,-0.215,-0.245
1748,0.405,0.385
1749,0.555,0.475
1750,0.525,0.455
1751,0.525,0.455
1752,0.515,0.445
1753,0.505,0.435
1754,0.505,0.435
1755,0.495,0.425
1756,0.485,0.415
1757,0.475,0.415
1758,0.465,0.395
1759,0.465,0.395
1760,0.455,0.385
1761,0.445,0.375
1762,0.445,0.365
1763,0.435,0.365
1764,0.415,0.355
1765,0.415,0.345
1766,0.405,0.345
1767,0.405,0.335
1768,0.395,0.335
1769,0.385,0.325
1770,0.375,0.315
1771,0.375,0.305
1772,0.365,0.305
1773,0.355,0.295
1774,0.345,0.285
1775,0.345,0.275
1776,0.335,0.275
1777,0.335,0.265
1778,0.325,0.255
1779,0.325,0.255
1780,0.315,0.245
1781,0.305,0.245
1782,0.295,0.235
1783,0.295,0.235
1784,0.285,0.225
1785,0.275,0.215
1786,0.275,0.215
1787,0.265,0.215
1788,0.265,0.205
1789,0.255,0.195
1790,0.255,0.195
1791,0.245,0.185
1792,0.245,0.185
1793,0.235,0.175
1794,0.235,0.165
1795,0.225,0.165
1796,0.225,0.165
1797,0.215,0.155
1798,0.215,0.145
1799,0.205,0.145
1800,0.205,0.145
1801,0.205,0.135
1802,0.195,0.125
1803,0.195,0.125
1804,0.185,0.125
1805,0.185,0.115
1806,0.175,0.105
1807,0.165,0.105
1808,0.155,0.095
1809,0.145,0.095
1810,0.135,0.075
1811,0.125,0.065
1812,-0.445,-0.465
1813,-0.685,-0.655
1814,-0.655,-0.635
1815,-0.645,-0.625
1816,-0.635,-0.615
1817,-0.625,-0.615
1818,-0.615,-0.615
1819,-0.615,-0.605
1820,-0.605,-0.595
1821,-0.595,-0.585
1822,-0.585,-0.585
1823,-0.575,-0.575
1824,-0.575,-0.555
1825,-0.565,-0.555
1826,-0.555,-0.555
1827,-0.545,-0.545
1828,-0.545,-0.535
1829,-0.535,-0.535
1830,-0.525,-0.525
1831,-0.525,-0.515
1832,-0.515,-0.515
1833,-0.505,-0.505
1834,-0.495,-0.505
1835,-0.485,-0.495
1836,-0.475,-0.485
1837,-0.475,-0.485
1838,-0.465,-0.485
1839,-0.455,-0.475
1840,-0.455,-0.455
1841,-0.445,-0.455
1842,-0.445,-0.455
1843,-0.435,-0.445
1844,-0.425,-0.445
1845,-0.415,-0.435
1846,-0.415,-0.435
1847,-0.405,-0.425
1848,-0.405,-0.425
1849,-0.395,-0.415
1850,-0.385,-0.415
1851,-0.385,-0.405
1852,-0.385,-0.395
1853,-0.375,-0.395
1854,-0.365,-0.395
1855,-0.355,-0.385
1856,-0.345,-0.375
1857,-0.345,-0.375
1858,-0.345,-0.375
1859,-0.335,-0.365
1860,-0.325,-0.355
1861,-0.315,-0.355
1862,-0.315,-0.355
1863,-0.305,-0.345
1864,-0.305,-0.345
1865,-0.295,-0.335
1866,-0.295,-0.335
1867,-0.295,-0.325
1868,-0.285,-0.325
1869,-0.285,-0.315
1870,-0.285,-0.315
1871,-0.275,-0.305
1872,-0.265,-0.295
1873,-0.265,-0.295
1874,-0.255,-0.295
1875,-0.235,-0.275
1876,-0.045,-0.025
1877,0.575,0.455
1878,0.535,0.425
1879,0.535,0.425
1880,0.525,0.425
1881,0.515,0.415
1882,0.505,0.405
1883,0.505,0.395
1884,0.495,0.395
1885,0.485,0.385
1886,0.475,0.375
1887,0.465,0.375
1888,0.465,0.365
1889,0.455,0.365
1890,0.445,0.345
1891,0.445,0.345
1892,0.425,0.335
1893,0.425,0.335
1894,0.415,0.325
1895,0.415,0.315
1896,0.405,0.315
1897,0.395,0.305
1898,0.385,0.295
1899,0.385,0.285
1900,0.375,0.285
1901,0.365,0.275
1902,0.355,0.265
1903,0.355,0.265
1904,0.345,0.255
1905,0.335,0.255
1906,0.335,0.245
1907,0.325,0.235
1908,0.315,0.235
1909,0.315,0.225
1910,0.295,0.215
1911,0.295,0.215
1912,0.285,0.205
1913,0.285,0.205
1914,0.275,0.195
1915,0.275,0.195
1916,0.265,0.185
1917,0.255,0.185
1918,0.255,0.175
1919,0.245,0.175
1920,0.235,0.175
1921,0.235,0.165
1922,0.225,0.155
1923,0.225,0.155
1924,0.215,0.155
1925,0.215,0.145
1926,0.205,0.135
1927,0.205,0.135
1928,0.195,0.135
1929,0.195,0.135
1930,0.185,0.115
1931,0.185,0.115
1932,0.175,0.115
1933,0.175,0.115
1934,0.165,0.105
1935,0.165,0.105
1936,0.155,0.095
1937,0.145,0.085
1938,0.135,0.075
1939,0.125,0.065
1940,-0.445,-0.485
1941,-0.665,-0.645
1942,-0.635,-0.625
1943,-0.625,-0.625
1944,-0.625,-0.615
1945,-0.615,-0.605
1946,-0.615,-0.605
1947,-0.605,-0.595
1948,-0.595,-0.595
1949,-0.595,-0.585
1950,-0.585,-0.575
1951,-0.575,-0.575
1952,-0.565,-0.565
1953,-0.555,-0.555
1954,-0.545,-0.545
1955,-0.535,-0.545
1956,-0.525,-0.535
1957,-0.525,-0.525
1958,-0.515,-0.525
1959,-0.505,-0.515
1960,-0.495,-0.505
1961,-0.485,-0.495
1962,-0.485,-0.495
1963,-0.475,-0.485
1964,-0.465,-0.475
1965,-0.455,-0.465
1966,-0.455,-0.465
1967,-0.445,-0.465
1968,-0.445,-0.455
1969,-0.435,-0.445
1970,-0.425,-0.445
1971,-0.415,-0.435
1972,-0.415,-0.425
1973,-0.415,-0.425
1974,-0.415,-0.415
1975,-0.405,-0.415
1976,-0.395,-0.405
1977,-0.385,-0.405
1978,-0.385,-0.395
1979,-0.385,-0.395
1980,-0.375,-0.385
1981,-0.365,-0.375
1982,-0.365,-0.375
1983,-0.355,-0.365
1984,-0.345,-0.365
1985,-0.345,-0.355
1986,-0.345,-0.355
1987,-0.335,-0.345
1988,-0.335,-0.345
1989,-0.325,-0.335
1990,-0.325,-0.335
1991,-0.315,-0.325
1992,-0.305,-0.325
1993,-0.305,-0.315
1994,-0.305,-0.315
1995,-0.295,-0.305
1996,-0.295,-0.295
1997,-0.285,-0.295
1998,-0.275,-0.295
1999,-0.275,-0.285
2000,-0.265,-0.275
2001,-0.255,-0.265
2002,-0.245,-0.265
2003,-0.225,-0.255
2004,0.385,0.335
2005,0.575,0.475
2006,0.545,0.455
2007,0.535,0.445
2008,0.525,0.445
2009,0.515,0.445
2010,0.505,0.425
2011,0.505,0.425
2012,0.495,0.415
2013,0.485,0.415
2014,0.475,0.405
2015,0.465,0.405
2016,0.455,0.395
2017,0.455,0.385
2018,0.445,0.375
2019,0.435,0.375
2020,0.425,0.355
2021,0.425,0.355
2022,0.415,0.345
2023,0.405,0.345
2024,0.395,0.335
2025,0.395,0.325
2026,0.385,0.315
2027,0.375,0.315
2028,0.365,0.315
2029,0.365,0.305
2030,0.365,0.295
2031,0.355,0.295
2032,0.345,0.285
2033,0.345,0.285
2034,0.335,0.275
2035,0.325,0.275
2036,0.315,0.265
2037,0.315,0.255
2038,0.305,0.255
2039,0.305,0.245
2040,0.295,0.245
2041,0.285,0.235
2042,0.285,0.235
2043,0.285,0.225
2044,0.275,0.225
2045,0.265,0.215
2046,0.265,0.205
2047,0.255,0.205
2048,0.255,0.205
2049,0.245,0.195
2050,0.245,0.195
2051,0.235,0.185
2052,0.225,0.185
2053,0.225,0.175
2054,0.225,0.175
2055,0.215,0.165
2056,0.215,0.165
2057,0.205,0.155
2058,0.195,0.155
2059,0.195,0.145
2060,0.185,0.145
2061,0.185,0.145
2062,0.175,0.135
2063,0.175,0.125
2064,0.165,0.125
2065,0.155,0.125
2066,0.145,0.115
2067,0.135,0.095
2068,-0.235,-0.325
2069,-0.685,-0.625
2070,-0.645,-0.605
2071,-0.635,-0.595
2072,-0.625,-0.585
2073,-0.625,-0.585
2074,-0.615,-0.585
2075,-0.615,-0.575
2076,-0.605,-0.565
2077,-0.595,-0.555
2078,-0.585,-0.555
2079,-0.575,-0.545
2080,-0.565,-0.535
2081,-0.555,-0.525
2082,-0.545,-0.525
2083,-0.535,-0.515
2084,-0.535,-0.505
2085,-0.525,-0.495
2086,-0.515,-0.495
2087,-0.505,-0.485
2088,-0.505,-0.475
2089,-0.495,-0.465
2090,-0.485,-0.465
2091,-0.475,-0.455
2092,-0.475,-0.455
2093,-0.465,-0.435
2094,-0.455,-0.435
2095,-0.445,-0.435
2096,-0.435,-0.425
2097,-0.435,-0.415
2098,-0.425,-0.415
2099,-0.415,-0.405
2100,-0.415,-0.395
2101,-0.405,-0.395
2102,-0.395,-0.395
2103,-0.395,-0.375
2104,-0.385,-0.375
2105,-0.375,-0.365
2106,-0.365,-0.365
2107,-0.365,-0.355
2108,-0.355,-0.345
2109,-0.355,-0.345
2110,-0.345,-0.345
2111,-0.335,-0.335
2112,-0.345,-0.335
2113,-0.325,-0.325
2114,-0.325,-0.325
2115,-0.315,-0.315
2116,-0.315,-0.315
2117,-0.305,-0.305
2118,-0.305,-0.305
2119,-0.295,-0.295
2120,-0.295,-0.295
2121,-0.285,-0.285
2122,-0.285,-0.285
2123,-0.275,-0.275
2124,-0.275,-0.275
2125,-0.265,-0.275
2126,-0.265,-0.265
2127,-0.255,-0.265
2128,-0.245,-0.255
2129,-0.235,-0.245
2130,-0.225,-0.245
2131,-0.205,-0.225
2132,0.345,0.325
2133,0.595,0.495
2134,0.565,0.475
2135,0.555,0.465
2136,0.545,0.465
2137,0.545,0.455
2138,0.535,0.445
2139,0.525,0.445
2140,0.525,0.435
2141,0.515,0.435
2142,0.505,0.415
2143,0.495,0.415
2144,0.495,0.405
2145,0.485,0.405
2146,0.475,0.395
2147,0.465,0.385
2148,0.455,0.385
2149,0.455,0.375
2150,0.445,0.365
2151,0.435,0.355
2152,0.425,0.355
2153,0.425,0.345
2154,0.415,0.335
2155,0.415,0.335
2156,0.405,0.335
2157,0.395,0.325
2158,0.395,0.315
2159,0.385,0.305
2160,0.385,0.305
2161,0.375,0.295
2162,0.365,0.285
2163,0.355,0.285
2164,0.355,0.275
2165,0.345,0.275
2166,0.335,0.265
2167,0.325,0.265
2168,0.325,0.255
2169,0.315,0.245
2170,0.315,0.245
2171,0.305,0.235
2172,0.295,0.235
2173,0.295,0.225
2174,0.285,0.225
2175,0.285,0.215
2176,0.275,0.205
2177,0.265,0.205
2178,0.265,0.205
2179,0.265,0.195
2180,0.255,0.195
2181,0.255,0.185
2182,0.245,0.175
2183,0.245,0.175
2184,0.235,0.165
2185,0.235,0.165
2186,0.225,0.155
2187,0.225,0.155
2188,0.215,0.145
2189,0.215,0.145
2190,0.205,0.135
2191,0.205,0.135
2192,0.195,0.135
2193,0.195,0.125
2194,0.175,0.115
2195,0.165,0.095
2196,-0.275,-0.385
2197,-0.635,-0.625
2198,-0.605,-0.605
2199,-0.595,-0.595
2200,-0.595,-0.585
2201,-0.585,-0.585
2202,-0.575,-0.585
2203,-0.565,-0.575
2204,-0.565,-0.555
2205,-0.555,-0.555
2206,-0.545,-0.545
2207,-0.535,-0.545
2208,-0.535,-0.535
2209,-0.525,-0.525
2210,-0.515,-0.525
2211,-0.505,-0.515
2212,-0.505,-0.505
2213,-0.495,-0.505
2214,-0.485,-0.495
2215,-0.475,-0.485
2216,-0.475,-0.475
2217,-0.465,-0.475
2218,-0.455,-0.475
2219,-0.445,-0.465
2220,-0.435,-0.455
2221,-0.435,-0.445
2222,-0.425,-0.445
2223,-0.415,-0.445
2224,-0.415,-0.435
2225,-0.405,-0.425
2226,-0.395,-0.425
2227,-0.395,-0.425
2228,-0.385,-0.405
2229,-0.375,-0.405
2230,-0.365,-0.405
2231,-0.355,-0.395
2232,-0.345,-0.385
2233,-0.335,-0.385
2234,-0.335,-0.375
2235,-0.325,-0.375
2236,-0.315,-0.365
2237,-0.315,-0.365
2238,-0.305,-0.365
2239,-0.295,-0.355
2240,-0.295,-0.345
2241,-0.285,-0.345
2242,-0.275,-0.345
2243,-0.275,-0.335
2244,-0.265,-0.335
2245,-0.265,-0.325
2246,-0.255,-0.325
2247,-0.255,-0.315
2248,-0.245,-0.315
2249,-0.245,-0.305
2250,-0.235,-0.305
2251,-0.235,-0.295
2252,-0.225,-0.295
2253,-0.225,-0.285
2254,-0.225,-0.285
2255,-0.215,-0.275
2256,-0.205,-0.275
2257,-0.205,-0.265
2258,-0.195,-0.265
2259,-0.175,-0.245
2260,-0.005,0.025
2261,0.615,0.475
2262,0.585,0.455
2263,0.575,0.445
2264,0.565,0.445
2265,0.565,0.435
2266,0.555,0.425
2267,0.545,0.415
2268,0.535,0.415
2269,0.525,0.405
2270,0.525,0.395
2271,0.515,0.395
2272,0.505,0.385
2273,0.495,0.385
2274,0.485,0.365
2275,0.495,0.365
2276,0.475,0.355
2277,0.465,0.345
2278,0.455,0.335
2279,0.455,0.335
2280,0.445,0.325
2281,0.435,0.325
2282,0.425,0.315
2283,0.425,0.305
2284,0.415,0.305
2285,0.405,0.295
2286,0.395,0.285
2287,0.395,0.285
2288,0.395,0.275
2289,0.385,0.265
2290,0.375,0.265
2291,0.375,0.255
2292,0.365,0.255
2293,0.355,0.245
2294,0.345,0.235
2295,0.345,0.235
2296,0.345,0.225
2297,0.335,0.225
2298,0.325,0.215
2299,0.325,0.205
2300,0.315,0.205
2301,0.305,0.205
2302,0.305,0.195
2303,0.295,0.185
2304,0.295,0.185
2305,0.285,0.175
2306,0.285,0.175
2307,0.275,0.165
2308,0.265,0.165
2309,0.265,0.155
2310,0.255,0.145
2311,0.245,0.145
2312,0.245,0.135
2313,0.235,0.135
2314,0.235,0.125
2315,0.225,0.125
2316,0.215,0.125
2317,0.215,0.125
2318,0.205,0.105
2319,0.205,0.105
2320,0.195,0.105
2321,0.185,0.095
2322,0.175,0.085
2323,0.155,0.075
2324,-0.385,-0.475
2325,-0.635,-0.645
2326,-0.605,-0.625
2327,-0.595,-0.625
2328,-0.595,-0.615
2329,-0.585,-0.605
2330,-0.585,-0.605
2331,-0.575,-0.595
2332,-0.565,-0.585
2333,-0.565,-0.575
2334,-0.545,-0.575
2335,-0.545,-0.565
2336,-0.535,-0.555
2337,-0.525,-0.545
2338,-0.525,-0.545
2339,-0.515,-0.535
2340,-0.505,-0.525
2341,-0.495,-0.515
2342,-0.485,-0.515
2343,-0.475,-0.505
2344,-0.475,-0.495
2345,-0.465,-0.495
2346,-0.455,-0.495
2347,-0.445,-0.485
2348,-0.435,-0.475
2349,-0.435,-0.465
2350,-0.435,-0.465
2351,-0.425,-0.455
2352,-0.415,-0.445
2353,-0.405,-0.435
2354,-0.405,-0.435
2355,-0.395,-0.425
2356,-0.385,-0.425
2357,-0.375,-0.415
2358,-0.375,-0.415
2359,-0.365,-0.405
2360,-0.365,-0.395
2361,-0.355,-0.395
2362,-0.345,-0.395
2363,-0.335,-0.385
2364,-0.335,-0.375
2365,-0.325,-0.365
2366,-0.325,-0.365
2367,-0.315,-0.355
2368,-0.305,-0.355
2369,-0.305,-0.345
2370,-0.295,-0.345
2371,-0.295,-0.345
2372,-0.285,-0.335
2373,-0.285,-0.325
2374,-0.285,-0.325
2375,-0.275,-0.325
2376,-0.265,-0.315
2377,-0.265,-0.305
2378,-0.265,-0.305
2379,-0.255,-0.305
2380,-0.245,-0.295
2381,-0.235,-0.285
2382,-0.245,-0.285
2383,-0.225,-0.285
2384,-0.225,-0.275
2385,-0.215,-0.265
2386,-0.205,-0.265
2387,-0.185,-0.245
2388,-0.115,-0.075
2389,0.595,0.485
2390,0.575,0.465
2391,0.565,0.455
2392,0.565,0.445
2393,0.555,0.445
2394,0.545,0.435
2395,0.545,0.435
2396,0.535,0.425
2397,0.525,0.415
2398,0.515,0.405
2399,0.505,0.395
2400,0.495,0.385
2401,0.495,0.385
2402,0.485,0.375
2403,0.475,0.365
2404,0.465,0.365
2405,0.455,0.355
2406,0.445,0.345
2407,0.445,0.345
2408,0.435,0.335
2409,0.425,0.325
2410,0.415,0.325
2411,0.405,0.315
2412,0.395,0.315
2413,0.395,0.305
2414,0.385,0.305
2415,0.375,0.295
2416,0.365,0.285
2417,0.365,0.285
2418,0.355,0.275
2419,0.355,0.265
2420,0.345,0.265
2421,0.335,0.265
2422,0.325,0.255
2423,0.325,0.245
2424,0.325,0.235
2425,0.315,0.235
2426,0.305,0.235
2427,0.305,0.225
2428,0.305,0.215
2429,0.295,0.215
2430,0.285,0.215
2431,0.285,0.205
2432,0.285,0.205
2433,0.275,0.195
2434,0.265,0.195
2435,0.265,0.185
2436,0.265,0.175
2437,0.265,0.185
2438,0.245,0.175
2439,0.245,0.165
2440,0.245,0.165
2441,0.235,0.155
2442,0.235,0.145
2443,0.235,0.155
2444,0.225,0.145
2445,0.225,0.145
2446,0.215,0.135
2447,0.215,0.125
2448,0.205,0.125
2449,0.195,0.125
2450,0.185,0.105
2451,0.175,0.105
2452,0.195,0.145
2453,-0.615,-0.625
2454,-0.605,-0.615
2455,-0.585,-0.605
2456,-0.585,-0.595
2457,-0.575,-0.585
2458,-0.575,-0.585
2459,-0.565,-0.575
2460,-0.555,-0.575
2461,-0.555,-0.555
2462,-0.545,-0.555
2463,-0.535,-0.545
2464,-0.525,-0.535
2465,-0.515,-0.525
2466,-0.515,-0.525
2467,-0.505,-0.525
2468,-0.495,-0.505
2469,-0.495,-0.505
2470,-0.485,-0.495
2471,-0.475,-0.495
2472,-0.465,-0.485
2473,-0.465,-0.475
2474,-0.455,-0.465
2475,-0.445,-0.465
2476,-0.445,-0.455
2477,-0.435,-0.445
2478,-0.425,-0.445
2479,-0.425,-0.435
2480,-0.415,-0.425
2481,-0.405,-0.415
2482,-0.405,-0.415
2483,-0.395,-0.405
2484,-0.385,-0.405
2485,-0.375,-0.395
2486,-0.375,-0.385
2487,-0.365,-0.385
2488,-0.365,-0.375
2489,-0.355,-0.375
2490,-0.355,-0.375
2491,-0.345,-0.365
2492,-0.345,-0.355
2493,-0.335,-0.345
2494,-0.325,-0.345
2495,-0.315,-0.345
2496,-0.315,-0.335
2497,-0.305,-0.325
2498,-0.305,-0.325
2499,-0.295,-0.315
2500,-0.295,-0.315
2501,-0.295,-0.305
2502,-0.285,-0.305
2503,-0.275,-0.295
2504,-0.265,-0.295
2505,-0.265,-0.285
2506,-0.265,-0.285
2507,-0.255,-0.275
2508,-0.255,-0.275
2509,-0.245,-0.265
2510,-0.245,-0.265
2511,-0.235,-0.265
2512,-0.235,-0.255
2513,-0.225,-0.245
2514,-0.215,-0.235
2515,-0.185,-0.225
2516,0.385,0.355
2517,0.585,0.485
2518,0.565,0.465
2519,0.555,0.465
2520,0.555,0.455
2521,0.545,0.455
2522,0.535,0.445
2523,0.535,0.435
2524,0.515,0.435
2525,0.515,0.425
2526,0.505,0.415
2527,0.495,0.415
2528,0.485,0.405
2529,0.485,0.395
2530,0.475,0.395
2531,0.465,0.385
2532,0.455,0.375
2533,0.445,0.375
2534,0.445,0.355
2535,0.435,0.355
2536,0.425,0.355
2537,0.425,0.345
2538,0.415,0.335
2539,0.405,0.335
2540,0.395,0.325
2541,0.385,0.325
2542,0.385,0.315
2543,0.375,0.305
2544,0.375,0.305
2545,0.365,0.295
2546,0.365,0.285
2547,0.345,0.285
2548,0.345,0.275
2549,0.345,0.275
2550,0.335,0.265
2551,0.325,0.255
2552,0.325,0.255
2553,0.315,0.255
2554,0.305,0.245
2555,0.305,0.235
2556,0.295,0.235
2557,0.295,0.225
2558,0.285,0.215
2559,0.275,0.215
2560,0.265,0.215
2561,0.265,0.205
2562,0.265,0.195
2563,0.255,0.195
2564,0.245,0.195
2565,0.245,0.185
2566,0.245,0.175
2567,0.235,0.175
2568,0.225,0.175
2569,0.225,0.165
2570,0.215,0.155
2571,0.215,0.155
2572,0.205,0.155
2573,0.195,0.155
2574,0.195,0.145
2575,0.185,0.135
2576,0.175,0.135
2577,0.175,0.125
2578,0.165,0.115
2579,0.145,0.105
2580,0.105,-0.025
2581,-0.675,-0.615
2582,-0.635,-0.605
2583,-0.625,-0.595
2584,-0.615,-0.585
2585,-0.615,-0.575
2586,-0.605,-0.575
2587,-0.595,-0.565
2588,-0.595,-0.555
2589,-0.585,-0.545
2590,-0.575,-0.545
2591,-0.565,-0.535
2592,-0.565,-0.525
2593,-0.555,-0.525
2594,-0.555,-0.515
2595,-0.535,-0.505
2596,-0.525,-0.505
2597,-0.515,-0.495
2598,-0.515,-0.495
2599,-0.495,-0.485
2600,-0.495,-0.475
2601,-0.485,-0.465
2602,-0.485,-0.465
2603,-0.465,-0.455
2604,-0.465,-0.455
2605,-0.455,-0.445
2606,-0.455,-0.435
2607,-0.445,-0.435
2608,-0.435,-0.425
2609,-0.435,-0.415
2610,-0.425,-0.415
2611,-0.425,-0.415
2612,-0.415,-0.405
2613,-0.415,-0.395
2614,-0.405,-0.395
2615,-0.395,-0.385
2616,-0.395,-0.385
2617,-0.385,-0.375
2618,-0.385,-0.375
2619,-0.375,-0.365
2620,-0.375,-0.355
2621,-0.365,-0.355
2622,-0.365,-0.345
2623,-0.355,-0.345
2624,-0.345,-0.345
2625,-0.345,-0.335
2626,-0.335,-0.335
2627,-0.335,-0.325
2628,-0.325,-0.325
2629,-0.325,-0.315
2630,-0.315,-0.315
2631,-0.305,-0.305
2632,-0.305,-0.295
2633,-0.305,-0.295
2634,-0.295,-0.295
2635,-0.285,-0.285
2636,-0.285,-0.285
2637,-0.275,-0.275
2638,-0.275,-0.275
2639,-0.265,-0.275
2640,-0.255,-0.265
2641,-0.255,-0.255
2642,-0.245,-0.255
2643,-0.225,-0.235
2644,0.135,0.205
2645,0.585,0.485
2646,0.545,0.465
2647,0.535,0.455
2648,0.525,0.445
2649,0.525,0.445
2650,0.515,0.435
2651,0.505,0.435
2652,0.505,0.425
2653,0.485,0.415
2654,0.485,0.405
2655,0.475,0.395
2656,0.465,0.395
2657,0.465,0.385
2658,0.455,0.375
2659,0.445,0.375
2660,0.435,0.365
2661,0.425,0.355
2662,0.425,0.345
2663,0.415,0.345
2664,0.405,0.335
2665,0.385,0.335
2666,0.385,0.325
2667,0.385,0.315
2668,0.365,0.315
2669,0.365,0.305
2670,0.355,0.295
2671,0.355,0.285
2672,0.345,0.285
2673,0.335,0.275
2674,0.325,0.265
2675,0.315,0.265
2676,0.315,0.255
2677,0.305,0.255
2678,0.295,0.235
2679,0.295,0.235
2680,0.285,0.235
2681,0.285,0.225
2682,0.275,0.215
2683,0.275,0.215
2684,0.255,0.215
2685,0.255,0.205
2686,0.245,0.195
2687,0.245,0.195
2688,0.235,0.185
2689,0.225,0.185
2690,0.225,0.175
2691,0.225,0.175
2692,0.215,0.165
2693,0.215,0.165
2694,0.205,0.155
2695,0.205,0.155
2696,0.195,0.155
2697,0.195,0.145
2698,0.185,0.135
2699,0.175,0.135
2700,0.175,0.125
2701,0.175,0.125
2702,0.165,0.115
2703,0.155,0.105
2704,0.155,0.105
2705,0.145,0.095
2706,0.135,0.085
2707,0.125,0.075
2708,-0.075,-0.275
2709,-0.685,-0.655
2710,-0.655,-0.635
2711,-0.645,-0.625
2712,-0.635,-0.615
2713,-0.635,-0.605
2714,-0.625,-0.605
2715,-0.615,-0.595
2716,-0.615,-0.585
2717,-0.605,-0.585
2718,-0.605,-0.585
2719,-0.585,-0.575
2720,-0.585,-0.565
2721,-0.575,-0.555
2722,-0.565,-0.545
2723,-0.555,-0.545
2724,-0.545,-0.535
2725,-0.545,-0.525
2726,-0.535,-0.525
2727,-0.525,-0.515
2728,-0.525,-0.505
2729,-0.515,-0.505
2730,-0.505,-0.505
2731,-0.505,-0.495
2732,-0.495,-0.485
2733,-0.485,-0.475
2734,-0.475,-0.475
2735,-0.465,-0.465
2736,-0.465,-0.455
2737,-0.455,-0.455
2738,-0.455,-0.455
2739,-0.445,-0.445
2740,-0.435,-0.435
2741,-0.425,-0.425
2742,-0.425,-0.425
2743,-0.415,-0.425
2744,-0.415,-0.415
2745,-0.415,-0.415
2746,-0.395,-0.405
2747,-0.395,-0.405
2748,-0.385,-0.395
2749,-0.385,-0.385
2750,-0.375,-0.385
2751,-0.365,-0.385
2752,-0.365,-0.375
2753,-0.355,-0.375
2754,-0.355,-0.365
2755,-0.345,-0.365
2756,-0.345,-0.355
2757,-0.325,-0.355
2758,-0.325,-0.345
2759,-0.325,-0.345
2760,-0.315,-0.335
2761,-0.315,-0.335
2762,-0.305,-0.335
2763,-0.305,-0.325
2764,-0.295,-0.325
2765,-0.295,-0.315
2766,-0.285,-0.315
2767,-0.275,-0.305
2768,-0.275,-0.295
2769,-0.265,-0.295
2770,-0.265,-0.285
2771,-0.245,-0.275
2772,0.135,0.215
2773,0.575,0.455
2774,0.525,0.425
2775,0.525,0.415
2776,0.505,0.415
2777,0.505,0.405
2778,0.495,0.395
2779,0.485,0.395
2780,0.475,0.385
2781,0.475,0.385
2782,0.465,0.365
2783,0.455,0.365
2784,0.455,0.355
2785,0.435,0.355
2786,0.435,0.335
2787,0.425,0.335
2788,0.415,0.325
2789,0.405,0.325
2790,0.405,0.315
2791,0.395,0.305
2792,0.385,0.305
2793,0.385,0.295
2794,0.375,0.285
2795,0.365,0.275
2796,0.355,0.275
2797,0.355,0.265
2798,0.345,0.265
2799,0.345,0.255
2800,0.325,0.245
2801,0.325,0.245
2802,0.315,0.235
2803,0.315,0.225
2804,0.305,0.225
2805,0.305,0.225
2806,0.295,0.205
2807,0.285,0.205
2808,0.285,0.205
2809,0.275,0.195
2810,0.265,0.185
2811,0.265,0.185
2812,0.255,0.185
2813,0.245,0.175
2814,0.245,0.165
2815,0.235,0.165
2816,0.225,0.155
2817,0.225,0.155
2818,0.215,0.145
2819,0.215,0.145
2820,0.205,0.135
2821,0.205,0.135
2822,0.205,0.125
2823,0.195,0.125
2824,0.195,0.115
2825,0.185,0.115
2826,0.185,0.105
2827,0.175,0.105
2828,0.165,0.105
2829,0.165,0.095
2830,0.155,0.095
2831,0.155,0.085
2832,0.145,0.085
2833,0.135,0.075
2834,0.125,0.065
2835,0.115,0.055
2836,-0.265,-0.445
2837,-0.685,-0.665
2838,-0.655,-0.645
2839,-0.645,-0.635
2840,-0.645,-0.635
2841,-0.625,-0.625
2842,-0.625,-0.625
2843,-0.625,-0.615
2844,-0.615,-0.605
2845,-0.605,-0.595
2846,-0.595,-0.595
2847,-0.585,-0.585
2848,-0.575,-0.575
2849,-0.565,-0.565
2850,-0.555,-0.565
2851,-0.545,-0.555
2852,-0.555,-0.545
2853,-0.535,-0.545
2854,-0.535,-0.535
2855,-0.525,-0.535
2856,-0.515,-0.515
2857,-0.505,-0.515
2858,-0.495,-0.515
2859,-0.485,-0.505
2860,-0.485,-0.495
2861,-0.475,-0.485
2862,-0.475,-0.485
2863,-0.465,-0.475
2864,-0.455,-0.465
2865,-0.445,-0.465
2866,-0.445,-0.455
2867,-0.435,-0.455
2868,-0.435,-0.445
2869,-0.425,-0.435
2870,-0.425,-0.435
2871,-0.415,-0.425
2872,-0.405,-0.425
2873,-0.405,-0.415
2874,-0.405,-0.415
2875,-0.395,-0.405
2876,-0.385,-0.395
2877,-0.375,-0.385
2878,-0.375,-0.385
2879,-0.365,-0.375
2880,-0.365,-0.375
2881,-0.355,-0.365
2882,-0.355,-0.365
2883,-0.345,-0.355
2884,-0.345,-0.355
2885,-0.335,-0.345
2886,-0.335,-0.345
2887,-0.325,-0.335
2888,-0.315,-0.335
2889,-0.315,-0.325
2890,-0.305,-0.325
2891,-0.295,-0.325
2892,-0.295,-0.315
2893,-0.295,-0.305
2894,-0.285,-0.305
2895,-0.275,-0.295
2896,-0.275,-0.295
2897,-0.265,-0.285
2898,-0.255,-0.275
2899,-0.235,-0.265
2900,-0.135,0.015
2901,0.575,0.465
2902,0.535,0.435
2903,0.525,0.435
2904,0.525,0.425
2905,0.515,0.425
2906,0.505,0.415
2907,0.495,0.405
2908,0.485,0.405
2909,0.485,0.395
2910,0.475,0.385
2911,0.465,0.375
2912,0.465,0.375
2913,0.445,0.365
2914,0.445,0.355
2915,0.435,0.355
2916,0.425,0.345
2917,0.405,0.335
2918,0.405,0.335
2919,0.395,0.325
2920,0.385,0.315
2921,0.385,0.315
2922,0.375,0.305
2923,0.365,0.295
2924,0.365,0.295
2925,0.355,0.285
2926,0.345,0.275
2927,0.345,0.275
2928,0.335,0.265
2929,0.325,0.265
2930,0.325,0.255
2931,0.315,0.255
2932,0.305,0.245
2933,0.305,0.245
2934,0.295,0.235
2935,0.295,0.225
2936,0.285,0.225
2937,0.275,0.225
2938,0.275,0.215
2939,0.265,0.205
2940,0.265,0.205
2941,0.265,0.205
2942,0.245,0.195
2943,0.245,0.195
2944,0.235,0.185
2945,0.235,0.185
2946,0.235,0.175
2947,0.225,0.175
2948,0.225,0.165
2949,0.215,0.165
2950,0.215,0.155
2951,0.205,0.155
2952,0.205,0.145
2953,0.195,0.145
2954,0.195,0.135
2955,0.185,0.135
2956,0.185,0.135
2957,0.175,0.125
2958,0.175,0.115
2959,0.165,0.115
2960,0.165,0.115
2961,0.155,0.105
2962,0.145,0.095
2963,0.135,0.085
2964,0.005,-0.225
2965,-0.675,-0.645
2966,-0.645,-0.615
2967,-0.635,-0.605
2968,-0.625,-0.595
2969,-0.625,-0.585
2970,-0.615,-0.585
2971,-0.605,-0.575
2972,-0.605,-0.575
2973,-0.595,-0.565
2974,-0.585,-0.565
2975,-0.575,-0.555
2976,-0.565,-0.545
2977,-0.565,-0.535
2978,-0.555,-0.525
2979,-0.545,-0.515
2980,-0.535,-0.515
2981,-0.525,-0.505
2982,-0.525,-0.505
2983,-0.515,-0.485
2984,-0.505,-0.485
2985,-0.495,-0.475
2986,-0.485,-0.465
2987,-0.475,-0.465
2988,-0.475,-0.455
2989,-0.465,-0.445
2990,-0.465,-0.445
2991,-0.455,-0.435
2992,-0.445,-0.425
2993,-0.435,-0.425
2994,-0.435,-0.415
2995,-0.425,-0.405
2996,-0.415,-0.395
2997,-0.415,-0.395
2998,-0.405,-0.395
2999,-0.395,-0.385
3000,-0.395,-0.375
3001,-0.385,-0.375
3002,-0.375,-0.365
3003,-0.365,-0.365
3004,-0.365,-0.355
3005,-0.355,-0.345
3006,-0.355,-0.345
3007,-0.345,-0.345
3008,-0.335,-0.335
3009,-0.335,-0.325
3010,-0.325,-0.325
3011,-0.325,-0.325
3012,-0.315,-0.315
3013,-0.315,-0.305
3014,-0.305,-0.305
3015,-0.305,-0.305
3016,-0.295,-0.295
3017,-0.295,-0.295
3018,-0.285,-0.285
3019,-0.285,-0.285
3020,-0.275,-0.275
3021,-0.265,-0.275
3022,-0.265,-0.265
3023,-0.255,-0.265
3024,-0.255,-0.255
3025,-0.245,-0.245
3026,-0.225,-0.245
3027,-0.205,-0.225
3028,0.095,0.235
3029,0.595,0.485
3030,0.565,0.465
3031,0.545,0.465
3032,0.545,0.455
3033,0.535,0.455
3034,0.525,0.445
3035,0.525,0.445
3036,0.515,0.435
3037,0.505,0.425
3038,0.505,0.415
3039,0.495,0.415
3040,0.485,0.405
3041,0.475,0.405
3042,0.475,0.395
3043,0.465,0.385
3044,0.455,0.385
3045,0.445,0.375
3046,0.445,0.365
3047,0.435,0.355
3048,0.425,0.355
3049,0.415,0.345
3050,0.415,0.335
3051,0.415,0.335
3052,0.405,0.325
3053,0.395,0.325
3054,0.385,0.315
3055,0.385,0.315
3056,0.375,0.305
3057,0.375,0.305
3058,0.365,0.295
3059,0.355,0.285
3060,0.355,0.285
3061,0.345,0.275
3062,0.345,0.265
3063,0.335,0.265
3064,0.335,0.265
3065,0.325,0.255
3066,0.325,0.255
3067,0.315,0.255
3068,0.305,0.245
3069,0.305,0.235
3070,0.295,0.225
3071,0.295,0.225
3072,0.285,0.225
3073,0.285,0.225
3074,0.275,0.205
3075,0.265,0.205
3076,0.265,0.205
3077,0.255,0.205
3078,0.255,0.195
3079,0.255,0.195
3080,0.245,0.185
3081,0.235,0.185
3082,0.235,0.175
3083,0.235,0.175
3084,0.225,0.165
3085,0.225,0.165
3086,0.215,0.155
3087,0.215,0.155
3088,0.205,0.145
3089,0.195,0.145
3090,0.185,0.135
3091,0.175,0.115
3092,0.045,-0.215
3093,-0.625,-0.605
3094,-0.595,-0.575
3095,-0.575,-0.565
3096,-0.575,-0.565
3097,-0.575,-0.555
3098,-0.565,-0.555
3099,-0.555,-0.545
3100,-0.545,-0.535
3101,-0.535,-0.535
3102,-0.535,-0.525
3103,-0.525,-0.515
3104,-0.515,-0.505
3105,-0.505,-0.505
3106,-0.495,-0.495
3107,-0.485,-0.485
3108,-0.485,-0.485
3109,-0.465,-0.465
3110,-0.465,-0.465
3111,-0.455,-0.465
3112,-0.455,-0.455
3113,-0.445,-0.445
3114,-0.435,-0.445
3115,-0.425,-0.435
3116,-0.425,-0.425
3117,-0.415,-0.415
3118,-0.415,-0.415
3119,-0.405,-0.405
3120,-0.395,-0.405
3121,-0.385,-0.395
3122,-0.385,-0.385
3123,-0.375,-0.385
3124,-0.365,-0.375
3125,-0.355,-0.365
3126,-0.355,-0.365
3127,-0.345,-0.355
3128,-0.345,-0.345
3129,-0.335,-0.345
3130,-0.335,-0.345
3131,-0.325,-0.335
3132,-0.315,-0.335
3133,-0.305,-0.325
3134,-0.305,-0.325
3135,-0.295,-0.315
3136,-0.285,-0.315
3137,-0.285,-0.305
3138,-0.275,-0.305
3139,-0.265,-0.295
3140,-0.265,-0.295
3141,-0.265,-0.285
3142,-0.255,-0.285
3143,-0.245,-0.275
3144,-0.235,-0.275
3145,-0.235,-0.265
3146,-0.235,-0.265
3147,-0.225,-0.255
3148,-0.215,-0.255
3149,-0.205,-0.245
3150,-0.205,-0.235
3151,-0.195,-0.235
3152,-0.195,-0.225
3153,-0.185,-0.215
3154,-0.175,-0.215
3155,-0.165,-0.205
3156,-0.165,-0.245
3157,0.635,0.505
3158,0.625,0.495
3159,0.615,0.485
3160,0.605,0.485
3161,0.595,0.475
3162,0.595,0.465
3163,0.585,0.465
3164,0.575,0.465
3165,0.575,0.455
3166,0.565,0.445
3167,0.555,0.435
3168,0.555,0.435
3169,0.535,0.425
3170,0.535,0.415
3171,0.515,0.405
3172,0.515,0.405
3173,0.505,0.405
3174,0.495,0.395
3175,0.485,0.385
3176,0.485,0.375
3177,0.475,0.375
3178,0.465,0.365
3179,0.455,0.365
3180,0.445,0.355
3181,0.445,0.355
3182,0.435,0.345
3183,0.435,0.335
3184,0.425,0.325
3185,0.415,0.325
3186,0.405,0.315
3187,0.405,0.315
3188,0.395,0.305
3189,0.385,0.305
3190,0.375,0.295
3191,0.375,0.285
3192,0.365,0.285
3193,0.365,0.275
3194,0.355,0.275
3195,0.355,0.265
3196,0.335,0.265
3197,0.335,0.255
3198,0.335,0.255
3199,0.325,0.245
3200,0.315,0.235
3201,0.315,0.235
3202,0.305,0.225
3203,0.305,0.225
3204,0.295,0.225
3205,0.295,0.215
3206,0.285,0.215
3207,0.285,0.205
3208,0.275,0.205
3209,0.275,0.195
3210,0.275,0.185
3211,0.265,0.185
3212,0.255,0.185
3213,0.255,0.175
3214,0.255,0.165
3215,0.245,0.165
3216,0.235,0.155
3217,0.235,0.155
3218,0.225,0.145
3219,0.205,0.135
3220,-0.275,-0.465
3221,-0.555,-0.575
3222,-0.535,-0.565
3223,-0.535,-0.555
3224,-0.525,-0.555
3225,-0.525,-0.545
3226,-0.515,-0.545
3227,-0.515,-0.535
3228,-0.505,-0.525
3229,-0.505,-0.515
3230,-0.495,-0.515
3231,-0.485,-0.505
3232,-0.485,-0.495
3233,-0.475,-0.485
3234,-0.465,-0.485
3235,-0.465,-0.475
3236,-0.455,-0.465
3237,-0.445,-0.455
3238,-0.435,-0.455
3239,-0.425,-0.445
3240,-0.425,-0.435
3241,-0.415,-0.425
3242,-0.405,-0.425
3243,-0.405,-0.415
3244,-0.395,-0.415
3245,-0.385,-0.405
3246,-0.385,-0.405
3247,-0.365,-0.395
3248,-0.365,-0.385
3249,-0.355,-0.375
3250,-0.345,-0.375
3251,-0.345,-0.365
3252,-0.335,-0.365
3253,-0.325,-0.355
3254,-0.315,-0.355
3255,-0.305,-0.345
3256,-0.305,-0.335
3257,-0.285,-0.325
3258,-0.295,-0.325
3259,-0.285,-0.315
3260,-0.275,-0.315
3261,-0.265,-0.305
3262,-0.265,-0.305
3263,-0.255,-0.295
3264,-0.255,-0.295
3265,-0.245,-0.285
3266,-0.245,-0.285
3267,-0.235,-0.275
3268,-0.235,-0.265
3269,-0.225,-0.255
3270,-0.225,-0.255
3271,-0.215,-0.245
3272,-0.215,-0.245
3273,-0.215,-0.235
3274,-0.215,-0.235
3275,-0.205,-0.225
3276,-0.205,-0.215
3277,-0.195,-0.215
3278,-0.195,-0.215
3279,-0.195,-0.205
3280,-0.185,-0.195
3281,-0.175,-0.185
3282,-0.165,-0.185
3283,-0.155,-0.165
3284,-0.175,0.015
3285,0.655,0.565
3286,0.625,0.545
3287,0.615,0.535
3288,0.605,0.535
3289,0.605,0.535
3290,0.585,0.515
3291,0.585,0.515
3292,0.575,0.515
3293,0.575,0.505
3294,0.565,0.495
3295,0.555,0.485
3296,0.545,0.485
3297,0.535,0.475
3298,0.525,0.465
3299,0.525,0.465
3300,0.515,0.455
3301,0.505,0.455
3302,0.495,0.445
3303,0.495,0.445
3304,0.485,0.435
3305,0.475,0.435
3306,0.475,0.425
3307,0.465,0.415
3308,0.455,0.415
3309,0.455,0.415
3310,0.445,0.405
3311,0.445,0.395
3312,0.435,0.395
3313,0.425,0.385
3314,0.415,0.385
3315,0.415,0.385
3316,0.405,0.375
3317,0.395,0.375
3318,0.395,0.365
3319,0.385,0.365
3320,0.375,0.355
3321,0.375,0.355
3322,0.365,0.345
3323,0.355,0.345
3324,0.355,0.335
3325,0.345,0.335
3326,0.345,0.325
3327,0.335,0.325
3328,0.325,0.315
3329,0.325,0.315
3330,0.325,0.315
3331,0.315,0.305
3332,0.305,0.305
3333,0.305,0.305
3334,0.295,0.295
3335,0.295,0.295
3336,0.285,0.295
3337,0.285,0.295
3338,0.275,0.285
3339,0.265,0.275
3340,0.265,0.275
3341,0.265,0.275
3342,0.255,0.265
3343,0.255,0.265
3344,0.245,0.255
3345,0.235,0.255
3346,0.235,0.245
3347,0.215,0.235
3348,0.185,0.005
3349,-0.605,-0.465
3350,-0.555,-0.445
3351,-0.545,-0.435
3352,-0.535,-0.425
3353,-0.535,-0.415
3354,-0.525,-0.415
3355,-0.515,-0.405
3356,-0.515,-0.395
3357,-0.505,-0.385
3358,-0.505,-0.375
3359,-0.495,-0.375
3360,-0.485,-0.365
3361,-0.475,-0.355
3362,-0.465,-0.355
3363,-0.455,-0.345
3364,-0.455,-0.335
3365,-0.445,-0.325
3366,-0.435,-0.325
3367,-0.425,-0.315
3368,-0.415,-0.305
3369,-0.415,-0.305
3370,-0.405,-0.295
3371,-0.395,-0.285
3372,-0.385,-0.285
3373,-0.385,-0.275
3374,-0.385,-0.265
3375,-0.375,-0.265
3376,-0.365,-0.255
3377,-0.355,-0.245
3378,-0.355,-0.245
3379,-0.345,-0.235
3380,-0.335,-0.225
3381,-0.325,-0.225
3382,-0.325,-0.225
3383,-0.325,-0.215
3384,-0.315,-0.205
3385,-0.305,-0.195
3386,-0.305,-0.195
3387,-0.295,-0.185
3388,-0.285,-0.175
3389,-0.275,-0.175
3390,-0.275,-0.175
3391,-0.265,-0.165
3392,-0.265,-0.155
3393,-0.255,-0.145
3394,-0.255,-0.145
3395,-0.245,-0.135
3396,-0.235,-0.125
3397,-0.235,-0.125
3398,-0.225,-0.125
3399,-0.225,-0.115
3400,-0.215,-0.105
3401,-0.215,-0.095
3402,-0.205,-0.105
3403,-0.195,-0.085
3404,-0.195,-0.085
3405,-0.185,-0.075
3406,-0.185,-0.075
3407,-0.175,-0.065
3408,-0.175,-0.055
3409,-0.155,-0.055
3410,-0.155,-0.045
3411,-0.135,-0.025
3412,0.185,0.465
3413,0.665,0.695
3414,0.635,0.665
3415,0.625,0.665
3416,0.615,0.655
3417,0.605,0.655
3418,0.595,0.635
3419,0.585,0.635
3420,0.575,0.635
3421,0.565,0.625
3422,0.555,0.615
3423,0.545,0.605
3424,0.545,0.605
3425,0.535,0.595
3426,0.525,0.585
3427,0.515,0.585
3428,0.505,0.575
3429,0.495,0.575
3430,0.495,0.565
3431,0.485,0.555
3432,0.475,0.555
3433,0.475,0.545
3434,0.465,0.535
3435,0.455,0.535
3436,0.445,0.535
3437,0.445,0.525
3438,0.435,0.515
3439,0.425,0.505
3440,0.415,0.505
3441,0.415,0.505
3442,0.405,0.495
3443,0.405,0.485
3444,0.395,0.485
3445,0.385,0.475
3446,0.375,0.465
3447,0.375,0.465
3448,0.365,0.465
3449,0.355,0.455
3450,0.355,0.445
3451,0.345,0.445
3452,0.345,0.435
3453,0.335,0.435
3454,0.335,0.425
3455,0.325,0.425
3456,0.325,0.415
3457,0.315,0.415
3458,0.305,0.405
3459,0.305,0.395
3460,0.295,0.395
3461,0.295,0.395
3462,0.285,0.385
3463,0.285,0.385
3464,0.275,0.375
3465,0.275,0.375
3466,0.265,0.365
3467,0.265,0.365
3468,0.255,0.355
3469,0.245,0.355
3470,0.235,0.345
3471,0.235,0.335
3472,0.235,0.335
3473,0.215,0.325
3474,0.205,0.315
3475,0.195,0.305
3476,0.225,0.265
3477,-0.615,-0.425
3478,-0.595,-0.395
3479,-0.575,-0.385
3480,-0.565,-0.385
3481,-0.565,-0.375
3482,-0.555,-0.375
3483,-0.545,-0.365
3484,-0.545,-0.365
3485,-0.535,-0.355
3486,-0.525,-0.345
3487,-0.515,-0.335
3488,-0.515,-0.335
3489,-0.505,-0.325
3490,-0.505,-0.315
3491,-0.495,-0.315
3492,-0.485,-0.305
3493,-0.475,-0.295
3494,-0.465,-0.295
3495,-0.455,-0.285
3496,-0.455,-0.275
3497,-0.445,-0.275
3498,-0.435,-0.265
3499,-0.435,-0.265
3500,-0.425,-0.255
3501,-0.415,-0.245
3502,-0.415,-0.245
3503,-0.405,-0.235
3504,-0.405,-0.235
3505,-0.385,-0.225
3506,-0.385,-0.225
3507,-0.375,-0.215
3508,-0.375,-0.215
3509,-0.365,-0.205
3510,-0.365,-0.205
3511,-0.355,-0.205
3512,-0.345,-0.195
3513,-0.345,-0.185
3514,-0.345,-0.185
3515,-0.335,-0.185
3516,-0.325,-0.175
3517,-0.325,-0.165
3518,-0.325,-0.165
3519,-0.315,-0.165
3520,-0.305,-0.155
3521,-0.305,-0.145
3522,-0.295,-0.145
3523,-0.295,-0.145
3524,-0.295,-0.135
3525,-0.285,-0.135
3526,-0.285,-0.135
3527,-0.275,-0.125
3528,-0.275,-0.125
3529,-0.275,-0.115
3530,-0.265,-0.115
3531,-0.255,-0.115
3532,-0.255,-0.105
3533,-0.255,-0.105
3534,-0.245,-0.105
3535,-0.235,-0.095
3536,-0.235,-0.085
3537,-0.225,-0.085
3538,-0.215,-0.075
3539,-0.185,-0.065
3540,0.245,0.525
3541,0.595,0.655
3542,0.565,0.625
3543,0.555,0.625
3544,0.545,0.615
3545,0.545,0.615
3546,0.535,0.605
3547,0.535,0.595
3548,0.515,0.585
3549,0.505,0.585
3550,0.505,0.575
3551,0.495,0.565
3552,0.485,0.555
3553,0.485,0.545
3554,0.465,0.545
3555,0.465,0.535
3556,0.455,0.525
3557,0.455,0.525
3558,0.435,0.505
3559,0.435,0.505
3560,0.425,0.505
3561,0.415,0.495
3562,0.405,0.485
3563,0.405,0.475
3564,0.395,0.475
3565,0.385,0.465
3566,0.375,0.455
3567,0.375,0.455
3568,0.365,0.445
3569,0.365,0.445
3570,0.355,0.435
3571,0.345,0.425
3572,0.345,0.425
3573,0.335,0.415
3574,0.325,0.405
3575,0.315,0.405
3576,0.305,0.395
3577,0.305,0.395
3578,0.295,0.385
3579,0.295,0.385
3580,0.285,0.375
3581,0.285,0.375
3582,0.275,0.365
3583,0.265,0.355
3584,0.265,0.355
3585,0.255,0.355
3586,0.245,0.345
3587,0.245,0.335
3588,0.245,0.335
3589,0.235,0.335
3590,0.225,0.315
3591,0.225,0.315
3592,0.215,0.305
3593,0.215,0.305
3594,0.205,0.295
3595,0.205,0.295
3596,0.195,0.295
3597,0.195,0.285
3598,0.185,0.275
3599,0.185,0.275
3600,0.175,0.275
3601,0.165,0.265
3602,0.155,0.255
3603,0.145,0.245
3604,0.175,0.145
3605,-0.685,-0.475
3606,-0.645,-0.465
3607,-0.625,-0.455
3608,-0.615,-0.445
3609,-0.605,-0.435
3610,-0.605,-0.435
3611,-0.595,-0.425
3612,-0.585,-0.415
3613,-0.575,-0.415
3614,-0.575,-0.405
3615,-0.565,-0.405
3616,-0.555,-0.395
3617,-0.545,-0.385
3618,-0.535,-0.385
3619,-0.525,-0.375
3620,-0.525,-0.365
3621,-0.515,-0.355
3622,-0.505,-0.355
3623,-0.495,-0.345
3624,-0.485,-0.345
3625,-0.475,-0.335
3626,-0.475,-0.335
3627,-0.465,-0.325
3628,-0.455,-0.325
3629,-0.445,-0.315
3630,-0.445,-0.315
3631,-0.435,-0.305
3632,-0.435,-0.295
3633,-0.435,-0.295
3634,-0.435,-0.295
3635,-0.425,-0.285
3636,-0.415,-0.285
3637,-0.415,-0.265
3638,-0.405,-0.275
3639,-0.395,-0.265
3640,-0.395,-0.265
3641,-0.385,-0.255
3642,-0.385,-0.255
3643,-0.375,-0.245
3644,-0.375,-0.245
3645,-0.365,-0.235
3646,-0.355,-0.235
3647,-0.355,-0.235
3648,-0.345,-0.225
3649,-0.335,-0.225
3650,-0.335,-0.215
3651,-0.335,-0.215
3652,-0.325,-0.205
3653,-0.315,-0.205
3654,-0.315,-0.205
3655,-0.305,-0.195
3656,-0.305,-0.195
3657,-0.295,-0.185
3658,-0.295,-0.185
3659,-0.285,-0.185
3660,-0.275,-0.175
3661,-0.275,-0.165
3662,-0.275,-0.165
3663,-0.265,-0.165
3664,-0.265,-0.165
3665,-0.245,-0.155
3666,-0.245,-0.145
3667,-0.225,-0.135
3668,-0.255,-0.105
3669,0.585,0.595
3670,0.545,0.565
3671,0.535,0.555
3672,0.525,0.545
3673,0.525,0.535
3674,0.515,0.535
3675,0.505,0.525
3676,0.495,0.515
3677,0.485,0.515
3678,0.475,0.495
3679,0.465,0.495
3680,0.455,0.485
3681,0.455,0.475
3682,0.445,0.465
3683,0.445,0.455
3684,0.425,0.445
3685,0.425,0.445
3686,0.405,0.435
3687,0.405,0.425
3688,0.395,0.415
3689,0.385,0.405
3690,0.375,0.405
3691,0.375,0.395
3692,0.365,0.385
3693,0.355,0.385
3694,0.345,0.365
3695,0.345,0.365
3696,0.335,0.355
3697,0.325,0.355
3698,0.325,0.335
3699,0.315,0.335
3700,0.305,0.335
3701,0.305,0.325
3702,0.295,0.315
3703,0.295,0.305
3704,0.285,0.305
3705,0.275,0.295
3706,0.275,0.285
3707,0.265,0.275
3708,0.255,0.275
3709,0.245,0.265
3710,0.245,0.255
3711,0.245,0.255
3712,0.235,0.245
3713,0.225,0.245
3714,0.225,0.225
3715,0.215,0.225
3716,0.205,0.225
3717,0.205,0.215
3718,0.195,0.205
3719,0.195,0.205
3720,0.185,0.195
3721,0.185,0.195
3722,0.175,0.185
3723,0.175,0.175
3724,0.165,0.175
3725,0.165,0.165
3726,0.155,0.155
3727,0.155,0.155
3728,0.145,0.145
3729,0.135,0.145
3730,0.125,0.125
3731,0.105,0.115
3732,0.045,-0.205
3733,-0.705,-0.615
3734,-0.665,-0.595
3735,-0.655,-0.585
3736,-0.645,-0.575
3737,-0.635,-0.575
3738,-0.635,-0.575
3739,-0.635,-0.565
3740,-0.625,-0.565
3741,-0.615,-0.555
3742,-0.605,-0.555
3743,-0.595,-0.545
3744,-0.595,-0.535
3745,-0.585,-0.525
3746,-0.575,-0.525
3747,-0.575,-0.515
3748,-0.555,-0.515
3749,-0.555,-0.505
3750,-0.555,-0.505
3751,-0.545,-0.495
3752,-0.535,-0.495
3753,-0.525,-0.485
3754,-0.525,-0.485
3755,-0.515,-0.475
3756,-0.505,-0.465
3757,-0.495,-0.465
3758,-0.495,-0.465
3759,-0.485,-0.455
3760,-0.475,-0.455
3761,-0.475,-0.445
3762,-0.475,-0.445
3763,-0.465,-0.445
3764,-0.455,-0.435
3765,-0.445,-0.425
3766,-0.445,-0.425
3767,-0.435,-0.425
3768,-0.425,-0.415
3769,-0.425,-0.405
3770,-0.425,-0.405
3771,-0.415,-0.405
3772,-0.405,-0.395
3773,-0.405,-0.395
3774,-0.405,-0.395
3775,-0.395,-0.385
3776,-0.385,-0.385
3777,-0.385,-0.375
3778,-0.385,-0.375
3779,-0.375,-0.365
3780,-0.365,-0.365
3781,-0.365,-0.355
3782,-0.365,-0.355
3783,-0.355,-0.345
3784,-0.355,-0.345
3785,-0.345,-0.345
3786,-0.345,-0.335
3787,-0.335,-0.335
3788,-0.335,-0.335
3789,-0.325,-0.325
3790,-0.325,-0.325
3791,-0.315,-0.325
3792,-0.315,-0.315
3793,-0.305,-0.305
3794,-0.295,-0.305
3795,-0.285,-0.295
3796,-0.325,-0.205
3797,0.535,0.445
3798,0.505,0.415
3799,0.485,0.405
3800,0.475,0.395
3801,0.475,0.385
3802,0.465,0.375
3803,0.455,0.375
3804,0.455,0.375
3805,0.445,0.365
3806,0.435,0.355
3807,0.425,0.345
3808,0.415,0.335
3809,0.405,0.325
3810,0.405,0.315
3811,0.395,0.305
3812,0.375,0.305
3813,0.375,0.295
3814,0.365,0.285
3815,0.365,0.285
3816,0.345,0.275
3817,0.345,0.265
3818,0.335,0.255
3819,0.325,0.245
3820,0.315,0.245
3821,0.305,0.235
3822,0.305,0.225
3823,0.295,0.225
3824,0.285,0.215
3825,0.285,0.215
3826,0.275,0.205
3827,0.265,0.195
3828,0.265,0.195
3829,0.255,0.185
3830,0.245,0.175
3831,0.245,0.175
3832,0.235,0.175
3833,0.225,0.165
3834,0.215,0.155
3835,0.215,0.155
3836,0.205,0.145
3837,0.205,0.145
3838,0.195,0.135
3839,0.195,0.125
3840,0.185,0.125
3841,0.175,0.115
3842,0.175,0.105
3843,0.175,0.105
3844,0.155,0.095
3845,0.155,0.095
3846,0.155,0.085
3847,0.145,0.085
3848,0.145,0.075
3849,0.135,0.065
3850,0.125,0.065
3851,0.125,0.055
3852,0.115,0.045
3853,0.105,0.035
3854,0.095,0.025
3855,0.075,0.005
3856,0.095,-0.115
3857,-1.155,-1.460
3858,-1.435,-1.640
3859,-1.465,-1.680
3860,-1.475,-1.720
3861,-1.475,-1.740
3862,-1.475,-1.760
3863,-1.475,-1.760
3864,-1.465,-1.770
3865,-1.455,-1.770
3866,-1.435,-1.780
3867,-1.405,-1.780
3868,-1.385,-1.770
3869,-1.055,-1.765
3870,-0.465,-1.785
3871,0.025,-1.795
3872,-0.675,-1.795
3873,-1.375,-1.780
3874,-1.315,-1.780
3875,-1.285,-1.770
3876,-1.275,-1.770
3877,-1.265,-1.755
3878,-1.265,-1.755
3879,-1.255,-1.755
3880,-1.255,-1.755
3881,-1.235,-1.750
3882,-1.205,-1.750
3883,-1.175,-1.740
3884,-1.155,-1.740
3885,-1.125,-1.725
3886,-1.115,-1.725
3887,-1.085,-1.725
3888,-1.055,-1.725
3889,-1.035,-1.720
3890,-0.995,-1.720
3891,-0.965,-1.710
3892,-0.925,-1.710
3893,-0.875,-1.695
3894,-0.845,-1.695
3895,-0.795,-1.695
3896,-0.745,-1.685
3897,-0.695,-1.690
3898,-0.625,-1.690
3899,-0.575,-1.680
3900,-0.545,-1.670
3901,-0.515,-1.665
3902,-0.505,-1.665
3903,-0.545,-1.655
3904,-0.575,-1.645
3905,-0.665,-1.650
3906,-0.705,-1.640
3907,-0.765,-1.630
3908,-0.785,-1.620
3909,-0.805,-1.615
3910,-0.825,-1.605
3911,-0.815,-1.605
3912,-0.815,-1.595
3913,-0.815,-1.590
3914,-0.805,-1.590
3915,-0.785,-1.580
3916,-0.775,-1.570
3917,-0.755,-1.555
3918,-0.755,-1.555
3919,-0.745,-1.545
3920,-0.735,-1.535
3921,-0.735,-1.540
3922,-0.715,-1.540
3923,-0.705,-1.520
3924,-0.675,-1.520
3925,-0.665,-1.495
3926,-0.665,-1.495
3927,-0.665,-1.485
3928,-0.665,-1.475
3929,-0.665,-1.470
3930,-0.645,-1.460
3931,-0.635,-1.450
3932,-0.625,-1.440
3933,-0.605,-1.425
3934,-0.605,-1.415
3935,-0.605,-1.405
3936,-0.595,-1.395
3937,-0.595,-1.390
3938,-0.575,-1.380
3939,-0.555,-1.370
3940,-0.555,-1.360
3941,-0.535,-1.345
3942,-0.535,-1.325
3943,-0.525,-1.315
3944,-0.525,-1.295
3945,-0.495,-1.270
3946,-0.445,-1.260
3947,-0.425,-1.230
3948,-0.375,-1.230
3949,-0.335,-1.215
3950,-0.345,-1.215
3951,-0.375,-1.205
3952,-0.375,-1.205
3953,-0.405,-1.200
3954,-0.395,-1.190
3955,-0.435,-1.180
3956,-0.445,-1.160
3957,-0.425,-1.145
3958,-0.435,-1.135
3959,-0.435,-1.115
3960,-0.435,-1.105
3961,-0.435,-1.100
3962,-0.425,-1.090
3963,-0.395,-1.070
3964,-0.395,-1.060
3965,-0.375,-1.035
3966,-0.375,-0.905
3967,-0.185,-0.795
3968,0.185,-1.035
3969,0.785,-1.400
3970,0.975,-1.420
3971,0.135,-1.330
3972,-0.395,-1.120
3973,-0.325,-0.975
3974,-0.315,-0.925
3975,-0.325,-0.875
3976,-0.335,-0.865
3977,-0.335,-0.840
3978,-0.315,-0.830
3979,-0.305,-0.820
3980,-0.295,-0.800
3981,-0.275,-0.785
3982,-0.285,-0.785
3983,-0.265,-0.765
3984,-0.265,-0.765
3985,-0.245,-0.760
3986,-0.215,-0.760
3987,-0.205,-0.750
3988,-0.165,-0.740
3989,-0.145,-0.725
3990,-0.135,-0.725
3991,-0.105,-0.715
3992,-0.085,-0.715
3993,-0.025,-0.710
3994,0.015,-0.710
3995,0.075,-0.720
3996,0.135,-0.710
3997,0.165,-0.715
3998,0.185,-0.715
3999,0.205,-0.715
4000,0.195,-0.705
4001,0.175,-0.690
4002,0.125,-0.670
4003,0.055,-0.650
4004,-0.005,-0.620
4005,-0.075,-0.585
4006,-0.145,-0.565
4007,-0.185,-0.535
4008,-0.235,-0.545
4009,-0.225,-0.540
4010,-0.225,-0.530
4011,-0.225,-0.520
4012,-0.205,-0.510
4013,-0.225,-0.505
4014,-0.215,-0.505
4015,-0.205,-0.495
4016,-0.225,-0.485
4017,-0.195,-0.480
4018,-0.195,-0.470
4019,-0.195,-0.460
4020,-0.145,-0.440
4021,-0.135,-0.415
4022,-0.165,-0.415
4023,-0.155,-0.395
4024,-0.155,-0.395
4025,-0.165,-0.395
4026,-0.165,-0.415
4027,-0.185,-0.415
4028,-0.175,-0.415
4029,-0.165,-0.405
4030,-0.165,-0.405
4031,-0.175,-0.395
4032,-0.165,-0.395
4033,-0.165,-0.385
4034,-0.155,-0.385
4035,-0.145,-0.375
4036,-0.135,-0.365
4037,-0.125,-0.355
4038,-0.145,-0.355
4039,-0.115,-0.325
4040,-0.075,-0.295
4041,-0.085,-0.285
4042,-0.015,-0.285
4043,0.005,-0.285
4044,0.015,-0.305
4045,-0.015,-0.295
4046,-0.035,-0.315
4047,-0.045,-0.305
4048,-0.075,-0.305
4049,-0.115,-0.315
4050,-0.125,-0.315
4051,-0.125,-0.305
4052,-0.125,-0.305
4053,-0.095,-0.295
4054,-0.105,-0.285
4055,-0.105,-0.275
4056,-0.105,-0.275
4057,-0.105,-0.265
4058,-0.085,-0.255
4059,-0.065,-0.255
4060,-0.075,-0.135
4061,0.055,0.005
4062,0.375,-0.075
4063,0.995,-0.745
4064,1.435,-0.935
4065,0.605,-0.825
4066,-0.195,-0.495
4067,-0.065,-0.305
4068,-0.035,-0.225
4069,-0.025,-0.165
4070,-0.045,-0.145
4071,-0.045,-0.135
4072,-0.055,-0.125
4073,-0.055,-0.115
4074,-0.045,-0.115
4075,-0.035,-0.105
4076,-0.005,-0.105
4077,0.005,-0.095
4078,0.005,-0.105
4079,0.015,-0.095
4080,0.035,-0.095
4081,0.035,-0.085
4082,0.065,-0.095
4083,0.075,-0.095
4084,0.105,-0.095
4085,0.155,-0.095
4086,0.165,-0.095
4087,0.205,-0.105
4088,0.265,-0.125
4089,0.305,-0.135
4090,0.345,-0.145
4091,0.385,-0.155
4092,0.405,-0.155
4093,0.435,-0.155
4094,0.425,-0.145
4095,0.395,-0.135
4096,0.335,-0.105
4097,0.235,-0.085
4098,0.165,-0.065
4099,0.085,-0.045
4100,0.025,-0.025
4101,-0.005,-0.025
4102,-0.035,-0.025
4103,-0.045,-0.015
4104,-0.045,-0.015
4105,-0.065,-0.015
4106,-0.055,-0.015
4107,-0.055,-0.015
4108,-0.025,0.005
4109,-0.035,0.005
4110,-0.025,-0.005
4111,-0.025,0.005
4112,-0.025,-0.005
4113,-0.005,-0.005
4114,-0.005,-0.005
4115,0.005,0.005
4116,0.015,0.005
4117,0.015,0.005
4118,0.005,0.005
4119,0.005,0.005
4120,-0.005,0.015
4121,-0.005,0.015
4122,-0.005,0.005
4123,0.005,0.015
4124,0.015,0.015
4125,0.015,0.015
4126,0.005,0.015
4127,0.025,0.035
4128,0.035,0.065
4129,0.055,0.085
4130,0.105,0.085
4131,0.155,0.085
4132,0.165,0.075
4133,0.115,0.065
4134,0.095,0.045
4135,0.085,0.045
4136,0.045,0.045
4137,0.025,0.035
4138,-0.005,0.035
4139,-0.015,0.035
4140,-0.025,0.035
4141,-0.025,0.035
4142,-0.025,0.025
4143,-0.015,0.035
4144,-0.025,0.035
4145,-0.025,0.045
4146,-0.015,0.045
4147,0.015,0.045
4148,0.015,0.055
4149,0.005,0.255
4150,0.275,0.285
4151,0.565,-0.005
4152,1.275,-0.665
4153,1.405,-0.785
4154,0.385,-0.505
4155,-0.065,-0.165
4156,0.005,0.015
4157,0.055,0.065
4158,0.025,0.105
4159,0.025,0.125
4160,0.005,0.135
4161,0.005,0.135
4162,0.025,0.135
4163,0.025,0.145
4164,0.025,0.145
4165,0.045,0.155
4166,0.045,0.145
4167,0.055,0.155
4168,0.075,0.145
4169,0.075,0.155
4170,0.105,0.145
4171,0.115,0.155
4172,0.135,0.155
4173,0.165,0.155
4174,0.185,0.155
4175,0.215,0.145
4176,0.265,0.135
4177,0.285,0.125
4178,0.355,0.105
4179,0.385,0.095
4180,0.425,0.085
4181,0.455,0.085
4182,0.455,0.065
4183,0.455,0.075
4184,0.415,0.085
4185,0.345,0.105
4186,0.255,0.105
4187,0.175,0.135
4188,0.105,0.155
4189,0.055,0.165
4190,0.015,0.165
4191,-0.025,0.175
4192,-0.035,0.165
4193,-0.045,0.165
4194,-0.025,0.165
4195,-0.035,0.155
4196,-0.025,0.175
4197,-0.025,0.165
4198,-0.035,0.165
4199,-0.025,0.165
4200,-0.035,0.165
4201,-0.035,0.175
4202,-0.025,0.165
4203,-0.025,0.175
4204,0.005,0.175
4205,-0.005,0.175
4206,-0.015,0.165
4207,-0.015,0.165
4208,-0.035,0.165
4209,-0.035,0.165
4210,-0.015,0.155
4211,-0.025,0.155
4212,-0.015,0.165
4213,-0.035,0.155
4214,-0.025,0.155
4215,-0.025,0.155
4216,-0.035,0.155
4217,-0.025,0.155
4218,-0.035,0.145
4219,-0.015,0.155
4220,-0.015,0.155
4221,0.025,0.185
4222,0.035,0.205
4223,0.055,0.205
4224,0.095,0.195
4225,0.115,0.185
4226,0.095,0.165
4227,0.055,0.155
4228,0.055,0.145
4229,0.035,0.165
4230,0.015,0.145
4231,-0.025,0.145
4232,-0.045,0.145
4233,-0.055,0.145
4234,-0.045,0.135
4235,-0.045,0.135
4236,-0.035,0.155
4237,-0.025,0.145
4238,-0.025,0.145
4239,-0.025,0.155
4240,-0.015,0.145
4241,-0.025,0.155
4242,-0.005,0.315
4243,0.185,0.405
4244,0.555,0.065
4245,1.235,-0.665
4246,1.365,-0.805
4247,0.435,-0.455
4248,-0.055,-0.065
4249,-0.015,0.105
4250,0.015,0.155
4251,0.005,0.195
4252,-0.025,0.215
4253,-0.005,0.225
4254,-0.015,0.225
4255,-0.005,0.225
4256,-0.005,0.225
4257,-0.005,0.225
4258,0.005,0.225
4259,0.015,0.225
4260,0.025,0.225
4261,0.055,0.225
4262,0.045,0.215
4263,0.065,0.225
4264,0.085,0.215
4265,0.095,0.205
4266,0.125,0.215
4267,0.155,0.205
4268,0.175,0.205
4269,0.235,0.195
4270,0.255,0.185
4271,0.305,0.175
4272,0.345,0.165
4273,0.365,0.155
4274,0.415,0.135
4275,0.435,0.125
4276,0.415,0.145
4277,0.395,0.155
4278,0.325,0.165
4279,0.255,0.185
4280,0.165,0.205
4281,0.095,0.205
4282,0.035,0.215
4283,-0.005,0.215
4284,-0.035,0.225
4285,-0.045,0.225
4286,-0.065,0.215
4287,-0.065,0.215
4288,-0.075,0.215
4289,-0.055,0.215
4290,-0.075,0.215
4291,-0.055,0.215
4292,-0.045,0.215
4293,-0.045,0.225
4294,-0.045,0.225
4295,-0.035,0.225
4296,-0.055,0.225
4297,-0.035,0.225
4298,-0.045,0.215
4299,-0.035,0.225
4300,-0.025,0.225
4301,-0.025,0.225
4302,-0.035,0.225
4303,-0.045,0.215
4304,-0.055,0.215
4305,-0.055,0.225
4306,-0.045,0.215
4307,-0.035,0.215
4308,-0.035,0.215
4309,-0.035,0.225
4310,-0.035,0.215
4311,-0.035,0.225
4312,-0.025,0.205
4313,-0.035,0.215
4314,-0.035,0.205
4315,-0.015,0.215
4316,-0.015,0.215
4317,-0.015,0.225
4318,-0.015,0.225
4319,0.025,0.255
4320,0.035,0.265
4321,0.065,0.265
4322,0.105,0.255
4323,0.125,0.245
4324,0.075,0.235
4325,0.075,0.215
4326,0.045,0.205
4327,0.015,0.215
4328,-0.005,0.185
4329,-0.045,0.195
4330,-0.045,0.195
4331,-0.045,0.195
4332,-0.035,0.195
4333,-0.035,0.205
4334,-0.035,0.205
4335,-0.035,0.195
4336,-0.035,0.205
4337,-0.045,0.205
4338,-0.015,0.205
4339,-0.005,0.215
4340,-0.005,0.425
4341,0.295,0.465
4342,0.715,-0.185
4343,1.395,-0.725
4344,1.205,-0.715
4345,0.185,-0.255
4346,-0.035,0.055
4347,-0.005,0.175
4348,-0.005,0.225
4349,0.005,0.265
4350,-0.025,0.275
4351,-0.035,0.275
4352,-0.025,0.285
4353,-0.035,0.285
4354,-0.025,0.285
4355,-0.005,0.285
4356,-0.005,0.285
4357,0.015,0.285
4358,0.015,0.285
4359,0.035,0.285
4360,0.055,0.275
4361,0.045,0.275
4362,0.065,0.275
4363,0.095,0.275
4364,0.115,0.275
4365,0.155,0.275
4366,0.175,0.265
4367,0.215,0.255
4368,0.325,0.245
4369,0.275,0.235
4370,0.345,0.215
4371,0.375,0.205
4372,0.375,0.185
4373,0.415,0.195
4374,0.385,0.195
4375,0.345,0.205
4376,0.275,0.225
4377,0.175,0.245
4378,0.105,0.255
4379,0.045,0.265
4380,-0.005,0.275
4381,-0.035,0.265
4382,-0.065,0.265
4383,-0.075,0.265
4384,-0.095,0.265
4385,-0.085,0.265
4386,-0.075,0.265
4387,-0.075,0.255
4388,-0.075,0.265
4389,-0.065,0.265
4390,-0.055,0.265
4391,-0.065,0.265
4392,-0.075,0.265
4393,-0.055,0.265
4394,-0.045,0.265
4395,-0.055,0.265
4396,-0.045,0.265
4397,-0.055,0.265
4398,-0.055,0.265
4399,-0.055,0.255
4400,-0.045,0.255
4401,-0.085,0.305
4402,-0.065,0.265
4403,-0.065,0.255
4404,-0.065,0.245
4405,-0.055,0.245
4406,-0.065,0.245
4407,-0.065,0.245
4408,-0.075,0.245
4409,-0.065,0.235
4410,-0.055,0.235
4411,-0.045,0.235
4412,-0.035,0.235
4413,-0.035,0.245
4414,-0.055,0.245
4415,-0.015,0.265
4416,-0.005,0.285
4417,0.025,0.285
4418,0.055,0.275
4419,0.075,0.275
4420,0.065,0.245
4421,0.045,0.235
4422,0.035,0.225
4423,-0.005,0.225
4424,-0.035,0.205
4425,-0.075,0.205
4426,-0.065,0.205
4427,-0.065,0.205
4428,-0.065,0.205
4429,-0.075,0.215
4430,-0.065,0.205
4431,-0.055,0.205
4432,-0.065,0.205
4433,-0.055,0.205
4434,-0.045,0.205
4435,-0.035,0.215
4436,-0.065,0.345
4437,0.135,0.455
4438,0.545,0.305
4439,1.045,-0.405
4440,1.445,-0.535
4441,0.485,-0.425
4442,-0.105,-0.055
4443,-0.045,0.125
4444,-0.025,0.185
4445,-0.015,0.245
4446,-0.045,0.255
4447,-0.045,0.265
4448,-0.045,0.275
4449,-0.045,0.275
4450,-0.035,0.265
4451,-0.035,0.275
4452,-0.015,0.275
4453,0.005,0.285
4454,0.005,0.265
4455,0.015,0.255
4456,-0.005,0.245
4457,0.035,0.245
4458,0.045,0.235
4459,0.075,0.225
4460,0.105,0.225
4461,0.135,0.225
4462,0.145,0.205
4463,0.185,0.185
4464,0.245,0.195
4465,0.235,0.245
4466,0.285,0.175
4467,0.355,0.135
4468,0.375,0.135
4469,0.395,0.135
4470,0.385,0.145
4471,0.335,0.145
4472,0.245,0.165
4473,0.185,0.185
4474,0.105,0.195
4475,0.035,0.205
4476,-0.005,0.215
4477,-0.045,0.245
4478,-0.095,0.215
4479,-0.085,0.205
4480,-0.115,0.195
4481,-0.115,0.215
4482,-0.215,0.165
4483,-0.105,0.205
4484,-0.085,0.195
4485,-0.095,0.205
4486,-0.095,0.195
4487,-0.075,0.195
4488,-0.085,0.195
4489,-0.105,0.195
4490,-0.085,0.185
4491,-0.075,0.185
4492,-0.065,0.195
4493,-0.085,0.185
4494,-0.095,0.175
4495,-0.085,0.175
4496,-0.105,0.175
4497,-0.095,0.175
4498,-0.085,0.165
4499,-0.085,0.165
4500,-0.075,0.165
4501,-0.095,0.165
4502,-0.085,0.165
4503,-0.085,0.165
4504,-0.075,0.175
4505,-0.055,0.195
4506,-0.025,0.195
4507,0.015,0.195
4508,0.045,0.185
4509,0.065,0.175
4510,0.015,0.155
4511,-0.005,0.125
4512,-0.005,0.125
4513,-0.155,0.065
4514,-0.005,0.125
4515,0.285,0.205
4516,-0.115,0.085
4517,-0.105,0.095
4518,-0.125,0.095
4519,-0.125,0.095
4520,-0.115,0.095
4521,-0.145,0.095
4522,-0.135,0.095
4523,-0.115,0.105
4524,-0.115,0.105
4525,-0.095,0.105
4526,-0.105,0.215
4527,0.015,0.335
4528,0.375,0.235
4529,0.995,-0.445
4530,1.435,-0.675
4531,0.775,-0.655
4532,-0.235,-0.255
4533,-0.115,-0.025
4534,-0.105,0.065
4535,-0.085,0.105
4536,-0.095,0.125
4537,-0.115,0.145
4538,-0.105,0.145
4539,-0.095,0.155
4540,-0.095,0.165
4541,-0.065,0.155
4542,-0.065,0.165
4543,-0.075,0.165
4544,-0.065,0.155
4545,-0.075,0.165
4546,-0.045,0.155
4547,-0.025,0.165
4548,0.005,0.155
4549,0.035,0.155
4550,0.035,0.145
4551,0.055,0.145
4552,0.095,0.125
4553,0.105,0.115
4554,0.175,0.105
4555,0.225,0.085
4556,0.275,0.065
4557,0.315,0.065
4558,0.335,0.045
4559,0.365,0.035
4560,0.355,0.035
4561,0.315,0.035
4562,0.265,0.055
4563,0.195,0.075
4564,0.095,0.095
4565,0.055,0.115
4566,-0.035,0.125
4567,-0.085,0.125
4568,-0.095,0.125
4569,-0.135,0.125
4570,-0.145,0.125
4571,-0.145,0.115
4572,-0.155,0.125
4573,-0.135,0.125
4574,-0.145,0.125
4575,-0.145,0.115
4576,-0.135,0.115
4577,-0.135,0.115
4578,-0.135,0.105
4579,-0.125,0.105
4580,-0.115,0.105
4581,-0.115,0.105
4582,-0.115,0.095
4583,-0.115,0.095
4584,-0.115,0.085
4585,-0.125,0.085
4586,-0.115,0.075
4587,-0.135,0.075
4588,-0.125,0.065
4589,-0.125,0.065
4590,-0.135,0.065
4591,-0.125,0.065
4592,-0.145,0.055
4593,-0.115,0.085
4594,-0.085,0.095
4595,-0.065,0.105
4596,-0.015,0.115
4597,0.005,0.105
4598,-0.005,0.075
4599,-0.045,0.065
4600,-0.075,0.045
4601,-0.085,0.045
4602,-0.095,0.025
4603,-0.145,0.025
4604,-0.155,0.025
4605,-0.165,0.015
4606,-0.165,0.005
4607,-0.165,0.005
4608,-0.175,0.015
4609,-0.165,0.015
4610,-0.155,0.005
4611,-0.145,0.005
4612,-0.115,0.015
4613,-0.125,0.015
4614,-0.115,0.105
4615,-0.045,0.285
4616,0.285,0.185
4617,0.905,-0.635
4618,1.425,-0.935
4619,0.815,-0.805
4620,-0.095,-0.325
4621,-0.105,-0.075
4622,-0.105,0.005
4623,-0.095,0.045
4624,-0.125,0.065
4625,-0.145,0.075
4626,-0.135,0.075
4627,-0.125,0.075
4628,-0.115,0.085
4629,-0.125,0.075
4630,-0.105,0.075
4631,-0.105,0.075
4632,-0.095,0.075
4633,-0.095,0.075
4634,-0.075,0.065
4635,-0.045,0.055
4636,-0.035,0.065
4637,-0.015,0.065
4638,0.005,0.055
4639,0.035,0.045
4640,0.055,0.045
4641,0.085,0.035
4642,0.135,0.015
4643,0.185,0.005
4644,0.225,-0.005
4645,0.265,-0.015
4646,0.295,-0.035
4647,0.305,-0.035
4648,0.325,-0.045
4649,0.305,-0.045
4650,0.255,-0.025
4651,0.175,-0.005
4652,0.105,0.005
4653,0.035,0.015
4654,-0.035,0.015
4655,-0.085,0.025
4656,-0.115,0.025
4657,-0.145,0.035
4658,-0.145,0.015
4659,-0.155,0.015
4660,-0.145,0.015
4661,-0.145,0.025
4662,-0.165,0.015
4663,-0.145,0.015
4664,-0.145,0.015
4665,-0.145,0.005
4666,-0.135,0.015
4667,-0.135,0.015
4668,-0.135,0.015
4669,-0.115,0.015
4670,-0.125,0.015
4671,-0.125,0.015
4672,-0.125,0.015
4673,-0.145,0.005
4674,-0.125,-0.005
4675,-0.135,-0.005
4676,-0.145,-0.005
4677,-0.125,-0.005
4678,-0.145,-0.005
4679,-0.135,-0.015
4680,-0.135,-0.015
4681,-0.155,-0.015
4682,-0.135,-0.025
4683,-0.155,-0.025
4684,-0.125,-0.025
4685,-0.135,-0.015
4686,-0.125,-0.025
4687,-0.125,-0.015
4688,-0.095,0.015
4689,-0.085,0.025
4690,-0.055,0.005
4691,-0.005,0.005
4692,0.015,-0.005
4693,-0.015,-0.015
4694,-0.045,-0.045
4695,-0.055,-0.045
4696,-0.085,-0.055
4697,-0.125,-0.055
4698,-0.145,-0.065
4699,-0.145,-0.065
4700,-0.145,-0.065
4701,-0.145,-0.065
4702,-0.145,-0.065
4703,-0.145,-0.065
4704,-0.155,-0.065
4705,-0.145,-0.065
4706,-0.125,-0.065
4707,-0.105,-0.055
4708,-0.085,0.005
4709,-0.055,0.205
4710,0.285,0.125
4711,0.765,-0.565
4712,1.345,-0.985
4713,0.925,-0.895
4714,-0.025,-0.415
4715,-0.115,-0.145
4716,-0.105,-0.055
4717,-0.085,-0.015
4718,-0.115,0.005
4719,-0.135,0.015
4720,-0.135,0.015
4721,-0.145,0.015
4722,-0.125,0.005
4723,-0.125,0.005
4724,-0.115,0.015
4725,-0.095,0.005
4726,-0.095,0.005
4727,-0.085,0.005
4728,-0.085,-0.005
4729,-0.065,-0.005
4730,-0.055,-0.015
4731,-0.015,-0.015
4732,-0.005,-0.015
4733,0.025,-0.015
4734,0.045,-0.025
4735,0.075,-0.035
4736,0.105,-0.035
4737,0.155,-0.055
4738,0.195,-0.065
4739,0.235,-0.075
4740,0.265,-0.085
4741,0.305,-0.085
4742,0.305,-0.085
4743,0.285,-0.085
4744,0.255,-0.075
4745,0.185,-0.055
4746,0.115,-0.045
4747,0.035,-0.025
4748,-0.035,-0.025
4749,-0.095,-0.015
4750,-0.125,-0.025
4751,-0.145,-0.025
4752,-0.175,-0.025
4753,-0.175,-0.025
4754,-0.175,-0.035
4755,-0.165,-0.025
4756,-0.165,-0.025
4757,-0.155,-0.025
4758,-0.165,-0.035
4759,-0.155,-0.025
4760,-0.155,-0.025
4761,-0.155,-0.025
4762,-0.155,-0.025
4763,-0.145,-0.025
4764,-0.145,-0.025
4765,-0.145,-0.025
4766,-0.155,-0.035
4767,-0.155,-0.035
4768,-0.165,-0.035
4769,-0.165,-0.035
4770,-0.165,-0.045
4771,-0.155,-0.045
4772,-0.155,-0.045
4773,-0.155,-0.055
4774,-0.165,-0.055
4775,-0.165,-0.055
4776,-0.175,-0.055
4777,-0.185,-0.055
4778,-0.175,-0.065
4779,-0.165,-0.055
4780,-0.155,-0.055
4781,-0.165,-0.055
4782,-0.135,-0.035
4783,-0.105,-0.005
4784,-0.085,-0.015
4785,-0.045,-0.025
4786,-0.005,-0.035
4787,-0.055,-0.055
4788,-0.075,-0.065
4789,-0.075,-0.075
4790,-0.115,-0.075
4791,-0.145,-0.085
4792,-0.185,-0.085
4793,-0.185,-0.085
4794,-0.185,-0.085
4795,-0.175,-0.085
4796,-0.165,-0.075
4797,-0.165,-0.075
4798,-0.165,-0.075
4799,-0.165,-0.075
4800,-0.165,-0.075
4801,-0.145,-0.065
4802,-0.135,-0.065
4803,-0.125,0.125
4804,0.145,0.165
4805,0.495,-0.215
4806,1.115,-0.845
4807,1.175,-0.935
4808,0.195,-0.585
4809,-0.205,-0.265
4810,-0.135,-0.115
4811,-0.115,-0.065
4812,-0.135,-0.025
4813,-0.135,-0.015
4814,-0.145,-0.005
4815,-0.145,-0.005
4816,-0.145,-0.015
4817,-0.135,-0.015
4818,-0.135,-0.015
4819,-0.135,-0.025
4820,-0.125,-0.015
4821,-0.095,-0.005
4822,-0.105,-0.015
4823,-0.085,-0.025
4824,-0.075,-0.025
4825,-0.085,-0.025
4826,-0.045,-0.035
4827,-0.025,-0.045
4828,0.005,-0.045
4829,0.045,-0.045
4830,0.065,-0.055
4831,0.105,-0.055
4832,0.155,-0.075
4833,0.185,-0.095
4834,0.225,-0.105
4835,0.265,-0.115
4836,0.295,-0.115
4837,0.285,-0.105
4838,0.255,-0.105
4839,0.205,-0.085
4840,0.125,-0.065
4841,0.025,-0.055
4842,-0.045,-0.045
4843,-0.095,-0.035
4844,-0.125,-0.025
4845,-0.155,-0.025
4846,-0.175,-0.035
4847,-0.185,-0.035
4848,-0.185,-0.035
4849,-0.215,-0.035
4850,-0.195,-0.045
4851,-0.185,-0.045
4852,-0.195,-0.045
4853,-0.175,-0.045
4854,-0.185,-0.035
4855,-0.165,-0.035
4856,-0.185,-0.035
4857,-0.185,-0.035
4858,-0.165,-0.045
4859,-0.155,-0.045
4860,-0.175,-0.045
4861,-0.165,-0.045
4862,-0.165,-0.055
4863,-0.165,-0.055
4864,-0.175,-0.055
4865,-0.175,-0.055
4866,-0.175,-0.065
4867,-0.165,-0.065
4868,-0.175,-0.065
4869,-0.165,-0.055
4870,-0.165,-0.045
4871,-0.135,-0.025
4872,-0.125,-0.005
4873,-0.075,-0.015
4874,-0.045,-0.035
4875,-0.045,-0.045
4876,-0.065,-0.055
4877,-0.095,-0.075
4878,-0.115,-0.075
4879,-0.135,-0.085
4880,-0.185,-0.095
4881,-0.205,-0.095
4882,-0.195,-0.105
4883,-0.195,-0.105
4884,-0.195,-0.095
4885,-0.205,-0.095
4886,-0.195,-0.095
4887,-0.195,-0.095
4888,-0.205,-0.095
4889,-0.185,-0.095
4890,-0.175,-0.095
4891,-0.165,-0.015
4892,-0.085,0.145
4893,0.265,0.125
4894,0.915,-0.565
4895,1.355,-0.825
4896,0.605,-0.805
4897,-0.315,-0.425
4898,-0.185,-0.205
4899,-0.145,-0.115
4900,-0.135,-0.065
4901,-0.145,-0.035
4902,-0.165,-0.035
4903,-0.145,-0.025
4904,-0.165,-0.025
4905,-0.155,-0.025
4906,-0.145,-0.025
4907,-0.125,-0.025
4908,-0.095,-0.025
4909,-0.105,-0.025
4910,-0.095,-0.035
4911,-0.075,-0.025
4912,-0.075,-0.035
4913,-0.045,-0.035
4914,-0.035,-0.045
4915,-0.015,-0.035
4916,0.045,-0.045
4917,0.055,-0.045
4918,0.095,-0.055
4919,0.125,-0.065
4920,0.145,-0.075
4921,0.205,-0.095
4922,0.255,-0.105
4923,0.285,-0.115
4924,0.305,-0.125
4925,0.305,-0.115
4926,0.275,-0.115
4927,0.225,-0.105
4928,0.135,-0.085
4929,0.055,-0.055
4930,-0.015,-0.055
4931,-0.075,-0.035
4932,-0.125,-0.025
4933,-0.145,-0.025
4934,-0.175,-0.025
4935,-0.185,-0.015
4936,-0.185,-0.025
4937,-0.215,-0.025
4938,-0.205,-0.025
4939,-0.185,-0.015
4940,-0.185,-0.015
4941,-0.175,-0.015
4942,-0.175,-0.015
4943,-0.165,-0.015
4944,-0.165,-0.015
4945,-0.175,-0.015
4946,-0.155,-0.015
4947,-0.145,-0.025
4948,-0.145,-0.025
4949,-0.135,-0.015
4950,-0.135,-0.015
4951,-0.135,-0.025
4952,-0.135,-0.035
4953,-0.165,-0.035
4954,-0.155,-0.035
4955,-0.135,-0.035
4956,-0.145,-0.035
4957,-0.095,-0.005
4958,-0.105,0.005
4959,-0.075,0.015
4960,-0.015,0.005
4961,-0.025,-0.015
4962,-0.035,-0.035
4963,-0.065,-0.045
4964,-0.075,-0.055
4965,-0.105,-0.055
4966,-0.125,-0.075
4967,-0.175,-0.075
4968,-0.185,-0.065
4969,-0.185,-0.075
4970,-0.185,-0.085
4971,-0.185,-0.075
4972,-0.165,-0.075
4973,-0.185,-0.065
4974,-0.175,-0.065
4975,-0.155,-0.075
4976,-0.165,-0.065
4977,-0.145,-0.045
4978,-0.145,0.175
4979,0.215,0.165
4980,0.705,-0.485
4981,1.365,-0.945
4982,0.825,-0.855
4983,-0.155,-0.365
4984,-0.165,-0.145
4985,-0.125,-0.065
4986,-0.125,-0.025
4987,-0.145,-0.005
4988,-0.125,0.005
4989,-0.145,0.005
4990,-0.145,0.005
4991,-0.135,0.015
4992,-0.145,0.005
4993,-0.125,0.005
4994,-0.115,0.005
4995,-0.105,0.015
4996,-0.085,0.005
4997,-0.075,0.005
4998,-0.075,0.005
4999,-0.035,0.005
5000,-0.055,0.015
5001,-0.015,0.005
5002,0.015,0.005
5003,0.045,-0.005
5004,0.075,-0.005
5005,0.125,-0.005
5006,0.155,-0.025
5007,0.205,-0.035
5008,0.235,-0.055
5009,0.275,-0.065
5010,0.305,-0.075
5011,0.325,-0.075
5012,0.315,-0.075
5013,0.265,-0.055
5014,0.205,-0.045
5015,0.135,-0.025
5016,0.045,-0.015
5017,-0.045,-0.005
5018,-0.085,-0.005
5019,-0.135,-0.005
5020,-0.145,0.005
5021,-0.145,0.005
5022,-0.175,-0.005
5023,-0.185,-0.005
5024,-0.175,-0.015
5025,-0.195,-0.015
5026,-0.165,-0.025
5027,-0.165,-0.025
5028,-0.155,-0.025
5029,-0.155,-0.025
5030,-0.155,-0.025
5031,-0.155,-0.025
5032,-0.155,-0.035
5033,-0.175,-0.025
5034,-0.155,-0.035
5035,-0.145,-0.035
5036,-0.155,-0.045
5037,-0.155,-0.045
5038,-0.145,-0.045
5039,-0.145,-0.045
5040,-0.155,-0.055
5041,-0.185,-0.065
5042,-0.165,-0.065
5043,-0.155,-0.065
5044,-0.155,-0.075
5045,-0.145,-0.075
5046,-0.155,-0.075
5047,-0.155,-0.085
5048,-0.125,-0.065
5049,-0.125,-0.045
5050,-0.085,-0.045
5051,-0.045,-0.055
5052,-0.015,-0.065
5053,-0.005,-0.075
5054,-0.065,-0.085
5055,-0.055,-0.105
5056,-0.095,-0.095
5057,-0.125,-0.105
5058,-0.145,-0.105
5059,-0.165,-0.105
5060,-0.165,-0.115
5061,-0.145,-0.095
5062,-0.155,-0.105
5063,-0.155,-0.105
5064,-0.165,-0.095
5065,-0.155,-0.095
5066,-0.135,-0.095
5067,-0.115,-0.085
5068,-0.115,-0.085
5069,-0.115,0.095
5070,0.135,0.165
5071,0.585,-0.385
5072,1.255,-0.975
5073,1.085,-0.975
5074,0.015,-0.545
5075,-0.125,-0.225
5076,-0.105,-0.105
5077,-0.105,-0.055
5078,-0.125,-0.035
5079,-0.145,-0.025
5080,-0.145,-0.015
5081,-0.135,-0.005
5082,-0.135,-0.005
5083,-0.135,-0.005
5084,-0.105,0.005
5085,-0.105,-0.005
5086,-0.095,-0.005
5087,-0.085,0.005
5088,-0.095,-0.005
5089,-0.065,-0.005
5090,-0.045,-0.005
5091,-0.025,-0.015
5092,0.015,-0.015
5093,0.015,-0.025
5094,0.055,-0.035
5095,0.075,-0.045
5096,0.105,-0.065
5097,0.155,-0.075
5098,0.205,-0.095
5099,0.245,-0.115
5100,0.295,-0.125
5101,0.305,-0.135
5102,0.305,-0.145
5103,0.285,-0.125
5104,0.245,-0.115
5105,0.185,-0.105
5106,0.115,-0.085
5107,0.035,-0.065
5108,-0.025,-0.055
5109,-0.085,-0.045
5110,-0.125,-0.045
5111,-0.145,-0.045
5112,-0.165,-0.055
5113,-0.165,-0.055
5114,-0.175,-0.065
5115,-0.165,-0.065
5116,-0.155,-0.055
5117,-0.155,-0.065
5118,-0.155,-0.065
5119,-0.155,-0.065
5120,-0.165,-0.075
5121,-0.145,-0.065
5122,-0.135,-0.065
5123,-0.135,-0.075
5124,-0.125,-0.065
5125,-0.135,-0.065
5126,-0.135,-0.065
5127,-0.135,-0.065
5128,-0.155,-0.065
5129,-0.135,-0.065
5130,-0.145,-0.065
5131,-0.145,-0.065
5132,-0.135,-0.075
5133,-0.145,-0.075
5134,-0.145,-0.085
5135,-0.135,-0.085
5136,-0.155,-0.085
5137,-0.135,-0.095
5138,-0.145,-0.095
5139,-0.105,-0.075
5140,-0.085,-0.055
5141,-0.075,-0.045
5142,-0.045,-0.065
5143,0.005,-0.055
5144,0.005,-0.085
5145,-0.055,-0.095
5146,-0.075,-0.115
5147,-0.085,-0.115
5148,-0.105,-0.115
5149,-0.125,-0.115
5150,-0.165,-0.115
5151,-0.165,-0.125
5152,-0.165,-0.125
5153,-0.165,-0.125
5154,-0.155,-0.115
5155,-0.145,-0.115
5156,-0.145,-0.115
5157,-0.125,-0.105
5158,-0.125,-0.105
5159,-0.115,-0.095
5160,-0.095,-0.015
5161,-0.015,0.165
5162,0.335,0.065
5163,0.945,-0.735
5164,1.285,-1.015
5165,0.315,-0.665
5166,-0.155,-0.275
5167,-0.105,-0.125
5168,-0.115,-0.075
5169,-0.115,-0.055
5170,-0.125,-0.045
5171,-0.125,-0.035
5172,-0.115,-0.035
5173,-0.125,-0.025
5174,-0.105,-0.045
5175,-0.115,-0.045
5176,-0.105,-0.045
5177,-0.105,-0.045
5178,-0.085,-0.055
5179,-0.075,-0.055
5180,-0.045,-0.055
5181,-0.035,-0.055
5182,-0.035,-0.055
5183,-0.005,-0.055
5184,0.015,-0.055
5185,0.025,-0.055
5186,0.055,-0.065
5187,0.095,-0.065
5188,0.145,-0.075
5189,0.205,-0.085
5190,0.235,-0.105
5191,0.265,-0.115
5192,0.285,-0.125
5193,0.295,-0.125
5194,0.295,-0.125
5195,0.275,-0.105
5196,0.235,-0.085
5197,0.125,-0.065
5198,0.055,-0.055
5199,-0.005,-0.055
5200,-0.085,-0.045
5201,-0.105,-0.045
5202,-0.125,-0.045
5203,-0.135,-0.055
5204,-0.135,-0.045
5205,-0.155,-0.045
5206,-0.155,-0.065
5207,-0.155,-0.065
5208,-0.165,-0.055
5209,-0.155,-0.055
5210,-0.155,-0.045
5211,-0.165,-0.045
5212,-0.105,-0.055
5213,-0.125,-0.055
5214,-0.105,-0.055
5215,-0.125,-0.055
5216,-0.135,-0.055
5217,-0.125,-0.065
5218,-0.125,-0.065
5219,-0.135,-0.065
5220,-0.115,-0.065
5221,-0.135,-0.065
5222,-0.135,-0.085
5223,-0.135,-0.075
5224,-0.165,-0.085
5225,-0.145,-0.085
5226,-0.145,-0.065
5227,-0.095,-0.045
5228,-0.075,-0.035
5229,-0.035,-0.035
5230,-0.005,-0.045
5231,-0.005,-0.065
5232,-0.015,-0.085
5233,-0.055,-0.085
5234,-0.075,-0.105
5235,-0.105,-0.095
5236,-0.105,-0.115
5237,-0.145,-0.125
5238,-0.175,-0.125
5239,-0.165,-0.125
5240,-0.185,-0.125
5241,-0.175,-0.125
5242,-0.195,-0.125
5243,-0.175,-0.105
5244,-0.195,-0.105
5245,-0.165,-0.105
5246,-0.175,-0.115
5247,-0.155,-0.095
5248,-0.145,-0.065
5249,-0.165,0.135
5250,0.305,0.015
5251,1.225,-0.735
5252,1.355,-0.875
5253,0.465,-0.745
5254,-0.245,-0.395
5255,-0.165,-0.175
5256,-0.115,-0.085
5257,-0.115,-0.035
5258,-0.125,-0.015
5259,-0.135,-0.005
5260,-0.135,-0.005
5261,-0.105,-0.005
5262,-0.115,-0.005
5263,-0.125,-0.015
5264,-0.125,-0.025
5265,-0.105,-0.015
5266,-0.085,-0.025
5267,-0.065,-0.015
5268,-0.055,-0.025
5269,-0.025,-0.025
5270,-0.015,-0.015
5271,0.005,-0.025
5272,0.025,-0.025
5273,0.055,-0.035
5274,0.085,-0.045
5275,0.145,-0.055
5276,0.195,-0.065
5277,0.235,-0.065
5278,0.275,-0.095
5279,0.335,-0.105
5280,0.335,-0.115
5281,0.355,-0.115
5282,0.345,-0.125
5283,0.305,-0.125
5284,0.245,-0.105
5285,0.165,-0.095
5286,0.065,-0.075
5287,-0.015,-0.065
5288,-0.065,-0.055
5289,-0.105,-0.055
5290,-0.145,-0.055
5291,-0.155,-0.055
5292,-0.135,-0.045
5293,-0.145,-0.045
5294,-0.155,-0.055
5295,-0.165,-0.035
5296,-0.155,-0.045
5297,-0.155,-0.035
5298,-0.145,-0.045
5299,-0.135,-0.035
5300,-0.115,-0.035
5301,-0.105,-0.035
5302,-0.115,-0.035
5303,-0.115,-0.035
5304,-0.135,-0.045
5305,-0.125,-0.035
5306,-0.125,-0.045
5307,-0.115,-0.035
5308,-0.105,-0.035
5309,-0.105,-0.045
5310,-0.135,-0.035
5311,-0.115,-0.035
5312,-0.105,-0.005
5313,-0.065,-0.005
5314,-0.055,-0.005
5315,0.015,-0.015
5316,0.005,-0.025
5317,-0.005,-0.035
5318,-0.035,-0.055
5319,-0.045,-0.065
5320,-0.105,-0.065
5321,-0.105,-0.085
5322,-0.155,-0.095
5323,-0.165,-0.095
5324,-0.155,-0.095
5325,-0.175,-0.095
5326,-0.175,-0.095
5327,-0.175,-0.095
5328,-0.175,-0.095
5329,-0.165,-0.095
5330,-0.155,-0.095
5331,-0.135,-0.095
5332,-0.125,-0.095
5333,-0.125,0.025
5334,-0.015,0.185
5335,0.355,0.045
5336,1.035,-0.755
5337,1.415,-1.025
5338,0.715,-0.875
5339,-0.155,-0.415
5340,-0.105,-0.165
5341,-0.095,-0.075
5342,-0.105,-0.035
5343,-0.115,-0.015
5344,-0.125,-0.005
5345,-0.115,-0.005
5346,-0.115,-0.005
5347,-0.095,-0.015
5348,-0.095,-0.005
5349,-0.115,-0.005
5350,-0.105,-0.005
5351,-0.085,-0.005
5352,-0.065,-0.005
5353,-0.065,-0.005
5354,-0.045,-0.005
5355,-0.005,-0.005
5356,0.025,0.005
5357,0.035,0.005
5358,0.065,-0.005
5359,0.075,-0.005
5360,0.125,-0.025
5361,0.175,-0.025
5362,0.225,-0.045
5363,0.265,-0.055
5364,0.305,-0.075
5365,0.345,-0.085
5366,0.355,-0.105
5367,0.335,-0.095
5368,0.285,-0.095
5369,0.215,-0.075
5370,0.155,-0.065
5371,0.065,-0.045
5372,0.015,-0.035
5373,-0.055,-0.025
5374,-0.105,-0.025
5375,-0.115,-0.015
5376,-0.155,-0.015
5377,-0.165,-0.025
5378,-0.165,-0.025
5379,-0.155,-0.015
5380,-0.135,-0.015
5381,-0.145,-0.015
5382,-0.155,-0.015
5383,-0.165,-0.015
5384,-0.155,-0.025
5385,-0.145,-0.015
5386,-0.145,-0.015
5387,-0.135,-0.005
5388,-0.125,-0.015
5389,-0.135,-0.015
5390,-0.135,-0.025
5391,-0.155,-0.025
5392,-0.155,-0.025
5393,-0.145,-0.025
5394,-0.145,-0.035
5395,-0.165,-0.035
5396,-0.125,-0.035
5397,-0.145,-0.035
5398,-0.155,-0.045
5399,-0.155,-0.045
5400,-0.135,-0.025
5401,-0.085,0.005
5402,-0.085,0.005
5403,-0.035,-0.005
5404,0.025,-0.005
5405,-0.015,-0.025
5406,-0.055,-0.035
5407,-0.065,-0.055
5408,-0.105,-0.065
5409,-0.115,-0.085
5410,-0.145,-0.095
5411,-0.155,-0.095
5412,-0.155,-0.095
5413,-0.145,-0.095
5414,-0.165,-0.105
5415,-0.145,-0.105
5416,-0.165,-0.095
5417,-0.155,-0.085
5418,-0.135,-0.105
5419,-0.115,-0.105
5420,-0.105,-0.095
5421,-0.095,0.065
5422,0.095,0.175
5423,0.495,-0.145
5424,1.145,-0.995
5425,1.335,-1.165
5426,0.505,-0.845
5427,-0.115,-0.375
5428,-0.085,-0.145
5429,-0.095,-0.075
5430,-0.095,-0.055
5431,-0.115,-0.035
5432,-0.145,-0.025
5433,-0.135,-0.015
5434,-0.125,-0.015
5435,-0.115,-0.015
5436,-0.115,-0.025
5437,-0.105,0.025
5438,-0.105,0.005
5439,-0.085,0.005
5440,-0.075,0.005
5441,-0.065,0.005
5442,-0.055,-0.005
5443,-0.035,-0.015
5444,0.015,-0.015
5445,0.025,-0.035
5446,0.035,-0.025
5447,0.065,-0.025
5448,0.075,-0.035
5449,0.145,-0.035
5450,0.185,-0.045
5451,0.225,-0.055
5452,0.285,-0.075
5453,0.295,-0.085
5454,0.335,-0.095
5455,0.325,-0.095
5456,0.255,-0.095
5457,0.215,-0.095
5458,0.125,-0.075
5459,0.055,-0.065
5460,-0.005,-0.055
5461,-0.065,-0.055
5462,-0.105,-0.055
5463,-0.145,-0.045
5464,-0.155,-0.045
5465,-0.165,-0.055
5466,-0.155,-0.055
5467,-0.165,-0.055
5468,-0.155,-0.055
5469,-0.155,-0.055
5470,-0.155,-0.055
5471,-0.155,-0.055
5472,-0.175,-0.055
5473,-0.155,-0.045
5474,-0.165,-0.075
5475,-0.145,-0.075
5476,-0.145,-0.065
5477,-0.145,-0.065
5478,-0.145,-0.065
5479,-0.145,-0.065
5480,-0.175,-0.075
5481,-0.175,-0.075
5482,-0.165,-0.075
5483,-0.155,-0.075
5484,-0.135,-0.085
5485,-0.155,-0.075
5486,-0.155,-0.085
5487,-0.145,-0.085
5488,-0.135,-0.045
5489,-0.115,-0.045
5490,-0.085,-0.045
5491,-0.025,-0.065
5492,-0.005,-0.065
5493,-0.055,-0.095
5494,-0.075,-0.105
5495,-0.085,-0.125
5496,-0.135,-0.125
5497,-0.145,-0.135
5498,-0.185,-0.145
5499,-0.195,-0.145
5500,-0.185,-0.145
5501,-0.215,-0.135
5502,-0.205,-0.155
5503,-0.195,-0.145
5504,-0.215,-0.145
5505,-0.185,-0.135
5506,-0.175,-0.135
5507,-0.175,-0.145
5508,-0.155,-0.135
5509,-0.145,0.105
5510,0.195,0.135
5511,0.635,-0.395
5512,1.285,-1.075
5513,1.185,-1.135
5514,0.105,-0.705
5515,-0.185,-0.325
5516,-0.145,-0.145
5517,-0.135,-0.095
5518,-0.135,-0.075
5519,-0.175,-0.065
5520,-0.185,-0.055
5521,-0.165,-0.045
5522,-0.175,-0.055
5523,-0.155,-0.055
5524,-0.155,-0.055
5525,-0.145,-0.055
5526,-0.135,-0.055
5527,-0.125,-0.055
5528,-0.115,-0.065
5529,-0.095,-0.055
5530,-0.085,-0.065
5531,-0.065,-0.055
5532,-0.045,-0.055
5533,-0.005,-0.055
5534,0.005,-0.065
5535,0.035,-0.075
5536,0.075,-0.085
5537,0.125,-0.095
5538,0.165,-0.105
5539,0.205,-0.125
5540,0.235,-0.145
5541,0.275,-0.145
5542,0.285,-0.145
5543,0.275,-0.155
5544,0.235,-0.155
5545,0.175,-0.135
5546,0.105,-0.125
5547,0.025,-0.115
5548,-0.065,-0.105
5549,-0.105,-0.095
5550,-0.155,-0.095
5551,-0.185,-0.095
5552,-0.205,-0.095
5553,-0.225,-0.105
5554,-0.225,-0.115
5555,-0.215,-0.115
5556,-0.205,-0.105
5557,-0.195,-0.105
5558,-0.205,-0.105
5559,-0.195,-0.105
5560,-0.185,-0.095
5561,-0.205,-0.105
5562,-0.175,-0.105
5563,-0.185,-0.105
5564,-0.165,-0.105
5565,-0.175,-0.095
5566,-0.175,-0.105
5567,-0.185,-0.105
5568,-0.215,-0.105
5569,-0.185,-0.115
5570,-0.175,-0.115
5571,-0.185,-0.115
5572,-0.175,-0.105
5573,-0.175,-0.105
5574,-0.165,-0.085
5575,-0.135,-0.075
5576,-0.105,-0.065
5577,-0.065,-0.085
5578,-0.045,-0.095
5579,-0.085,-0.115
5580,-0.075,-0.125
5581,-0.105,-0.125
5582,-0.135,-0.135
5583,-0.185,-0.145
5584,-0.205,-0.145
5585,-0.215,-0.145
5586,-0.215,-0.155
5587,-0.205,-0.155
5588,-0.205,-0.145
5589,-0.205,-0.145
5590,-0.205,-0.145
5591,-0.205,-0.135
5592,-0.205,-0.155
5593,-0.195,-0.145
5594,-0.175,-0.135
5595,-0.205,0.065
5596,0.105,0.095
5597,0.465,-0.215
5598,1.215,-0.855
5599,1.275,-0.955
5600,-0.115,-0.675
5601,-0.265,-0.365
5602,-0.205,-0.215
5603,-0.165,-0.145
5604,-0.145,-0.105
5605,-0.175,-0.095
5606,-0.175,-0.075
5607,-0.165,-0.075
5608,-0.175,-0.085
5609,-0.155,-0.075
5610,-0.145,-0.085
5611,-0.135,-0.085
5612,-0.115,-0.085
5613,-0.115,-0.075
5614,-0.105,-0.085
5615,-0.105,-0.085
5616,-0.115,-0.085
5617,-0.055,-0.095
5618,-0.035,-0.095
5619,0.005,-0.105
5620,0.025,-0.095
5621,0.065,-0.115
5622,0.105,-0.125
5623,0.145,-0.145
5624,0.175,-0.155
5625,0.225,-0.175
5626,0.255,-0.185
5627,0.275,-0.195
5628,0.295,-0.185
5629,0.275,-0.185
5630,0.225,-0.185
5631,0.155,-0.165
5632,0.055,-0.135
5633,-0.015,-0.125
5634,-0.085,-0.115
5635,-0.125,-0.105
5636,-0.155,-0.095
5637,-0.195,-0.095
5638,-0.195,-0.095
5639,-0.205,-0.105
5640,-0.235,-0.095
5641,-0.205,-0.085
5642,-0.195,-0.095
5643,-0.185,-0.095
5644,-0.165,-0.095
5645,-0.175,-0.095
5646,-0.175,-0.095
5647,-0.175,-0.095
5648,-0.195,-0.095
5649,-0.175,-0.095
5650,-0.175,-0.105
5651,-0.175,-0.095
5652,-0.165,-0.095
5653,-0.185,-0.105
5654,-0.175,-0.105
5655,-0.175,-0.105
5656,-0.185,-0.115
5657,-0.165,-0.105
5658,-0.155,-0.085
5659,-0.135,-0.065
5660,-0.095,-0.055
5661,-0.065,-0.055
5662,-0.045,-0.075
5663,-0.045,-0.085
5664,-0.105,-0.095
5665,-0.095,-0.115
5666,-0.105,-0.125
5667,-0.135,-0.125
5668,-0.155,-0.135
5669,-0.205,-0.135
5670,-0.205,-0.145
5671,-0.215,-0.135
5672,-0.225,-0.145
5673,-0.215,-0.145
5674,-0.205,-0.145
5675,-0.205,-0.145
5676,-0.185,-0.135
5677,-0.195,-0.125
5678,-0.175,-0.135
5679,-0.165,-0.095
5680,-0.195,0.135
5681,0.165,0.145
5682,0.715,-0.535
5683,1.365,-1.085
5684,1.135,-1.065
5685,-0.035,-0.555
5686,-0.145,-0.245
5687,-0.145,-0.125
5688,-0.165,-0.075
5689,-0.185,-0.065
5690,-0.195,-0.055
5691,-0.185,-0.045
5692,-0.155,-0.035
5693,-0.165,-0.035
5694,-0.155,-0.045
5695,-0.155,-0.035
5696,-0.155,-0.025
5697,-0.145,-0.025
5698,-0.125,-0.035
5699,-0.095,-0.025
5700,-0.065,-0.025
5701,-0.065,-0.015
5702,-0.055,-0.025
5703,-0.025,-0.025
5704,-0.025,-0.015
5705,0.025,-0.035
5706,0.065,-0.035
5707,0.105,-0.035
5708,0.175,-0.045
5709,0.195,-0.065
5710,0.235,-0.075
5711,0.255,-0.095
5712,0.275,-0.095
5713,0.295,-0.105
5714,0.285,-0.105
5715,0.225,-0.095
5716,0.155,-0.075
5717,0.075,-0.065
5718,-0.025,-0.065
5719,-0.085,-0.055
5720,-0.145,-0.055
5721,-0.155,-0.055
5722,-0.185,-0.055
5723,-0.205,-0.055
5724,-0.195,-0.045
5725,-0.205,-0.055
5726,-0.205,-0.065
5727,-0.215,-0.065
5728,-0.225,-0.055
5729,-0.205,-0.055
5730,-0.195,-0.055
5731,-0.185,-0.055
5732,-0.185,-0.055
5733,-0.195,-0.045
5734,-0.195,-0.045
5735,-0.195,-0.055
5736,-0.215,-0.055
5737,-0.205,-0.055
5738,-0.205,-0.065
5739,-0.215,-0.065
5740,-0.195,-0.065
5741,-0.205,-0.065
5742,-0.205,-0.065
5743,-0.215,-0.065
5744,-0.225,-0.065
5745,-0.225,-0.065
5746,-0.205,-0.065
5747,-0.185,-0.045
5748,-0.155,-0.025
5749,-0.145,-0.015
5750,-0.115,-0.035
5751,-0.075,-0.035
5752,-0.095,-0.055
5753,-0.125,-0.065
5754,-0.135,-0.095
5755,-0.145,-0.085
5756,-0.155,-0.085
5757,-0.205,-0.095
5758,-0.245,-0.095
5759,-0.245,-0.095
5760,-0.255,-0.095
5761,-0.255,-0.095
5762,-0.245,-0.095
5763,-0.225,-0.095
5764,-0.215,-0.085
5765,-0.215,-0.085
5766,-0.205,-0.085
5767,-0.205,-0.095
5768,-0.215,0.005
5769,-0.085,0.205
5770,0.325,-0.005
5771,1.025,-0.845
5772,1.295,-1.085
5773,0.445,-0.835
5774,-0.245,-0.385
5775,-0.195,-0.145
5776,-0.215,-0.075
5777,-0.185,-0.035
5778,-0.215,-0.025
5779,-0.215,-0.005
5780,-0.215,0.005
5781,-0.205,0.005
5782,-0.205,0.005
5783,-0.215,-0.005
5784,-0.215,0.005
5785,-0.205,0.005
5786,-0.175,0.005
5787,-0.165,0.005
5788,-0.115,0.005
5789,-0.115,0.005
5790,-0.125,0.005
5791,-0.115,-0.005
5792,-0.105,0.005
5793,-0.065,-0.005
5794,-0.025,-0.005
5795,0.025,-0.005
5796,0.075,-0.015
5797,0.105,-0.025
5798,0.115,-0.035
5799,0.175,-0.055
5800,0.185,-0.075
5801,0.215,-0.075
5802,0.235,-0.085
5803,0.215,-0.085
5804,0.155,-0.065
5805,0.085,-0.045
5806,-0.015,-0.045
5807,-0.075,-0.025
5808,-0.145,-0.025
5809,-0.175,-0.015
5810,-0.215,-0.035
5811,-0.215,-0.035
5812,-0.185,-0.025
5813,-0.195,-0.025
5814,-0.225,-0.035
5815,-0.215,-0.035
5816,-0.225,-0.045
5817,-0.225,-0.045
5818,-0.205,-0.045
5819,-0.195,-0.045
5820,-0.185,-0.035
5821,-0.195,-0.035
5822,-0.195,-0.025
5823,-0.215,-0.035
5824,-0.225,-0.035
5825,-0.185,-0.025
5826,-0.205,-0.035
5827,-0.195,-0.035
5828,-0.185,-0.035
5829,-0.205,-0.045
5830,-0.215,-0.055
5831,-0.215,-0.055
5832,-0.225,-0.065
5833,-0.215,-0.065
5834,-0.215,-0.075
5835,-0.205,-0.075
5836,-0.185,-0.055
5837,-0.205,-0.075
5838,-0.205,-0.075
5839,-0.205,-0.065
5840,-0.225,-0.065
5841,-0.185,-0.065
5842,-0.195,-0.065
5843,-0.165,-0.025
5844,-0.125,-0.005
5845,-0.115,-0.015
5846,-0.075,-0.015
5847,-0.045,-0.025
5848,-0.115,-0.045
5849,-0.105,-0.065
5850,-0.145,-0.075
5851,-0.155,-0.085
5852,-0.165,-0.075
5853,-0.205,-0.075
5854,-0.205,-0.085
5855,-0.215,-0.085
5856,-0.235,-0.075
5857,-0.225,-0.075
5858,-0.205,-0.075
5859,-0.205,-0.065
5860,-0.175,-0.065
5861,-0.175,-0.065
5862,-0.165,-0.075
5863,-0.145,-0.015
5864,-0.125,0.205
5865,0.255,0.155
5866,0.805,-0.565
5867,1.325,-0.965
5868,0.795,-0.895
5869,-0.175,-0.445
5870,-0.175,-0.175
5871,-0.165,-0.085
5872,-0.175,-0.035
5873,-0.175,-0.005
5874,-0.185,-0.005
5875,-0.195,0.005
5876,-0.165,0.015
5877,-0.175,0.005
5878,-0.185,0.015
5879,-0.165,0.005
5880,-0.175,0.005
5881,-0.155,0.015
5882,-0.155,0.005
5883,-0.125,-0.005
5884,-0.085,0.005
5885,-0.085,-0.005
5886,-0.075,-0.005
5887,-0.055,-0.005
5888,-0.055,-0.015
5889,-0.005,-0.025
5890,0.015,-0.025
5891,0.085,-0.045
5892,0.115,-0.055
5893,0.155,-0.055
5894,0.185,-0.085
5895,0.225,-0.095
5896,0.225,-0.095
5897,0.255,-0.105
5898,0.215,-0.095
5899,0.195,-0.085
5900,0.145,-0.065
5901,0.045,-0.045
5902,-0.025,-0.045
5903,-0.085,-0.025
5904,-0.145,-0.025
5905,-0.175,-0.025
5906,-0.195,-0.035
5907,-0.195,-0.035
5908,-0.205,-0.025
5909,-0.195,-0.025
5910,-0.195,-0.025
5911,-0.195,-0.025
5912,-0.205,-0.025
5913,-0.175,-0.025
5914,-0.185,-0.025
5915,-0.175,-0.025
5916,-0.155,-0.025
5917,-0.155,-0.025
5918,-0.155,-0.025
5919,-0.155,-0.025
5920,-0.155,-0.025
5921,-0.165,-0.035
5922,-0.175,-0.035
5923,-0.165,-0.045
5924,-0.165,-0.035
5925,-0.155,-0.045
5926,-0.185,-0.045
5927,-0.155,-0.055
5928,-0.175,-0.055
5929,-0.165,-0.055
5930,-0.155,-0.045
5931,-0.135,-0.005
5932,-0.115,-0.005
5933,-0.065,-0.005
5934,-0.035,-0.025
5935,-0.035,-0.025
5936,-0.065,-0.035
5937,-0.085,-0.055
5938,-0.105,-0.065
5939,-0.125,-0.075
5940,-0.155,-0.085
5941,-0.175,-0.075
5942,-0.195,-0.085
5943,-0.195,-0.095
5944,-0.215,-0.085
5945,-0.195,-0.085
5946,-0.195,-0.095
5947,-0.185,-0.085
5948,-0.135,-0.075
5949,-0.165,-0.075
5950,-0.145,-0.075
5951,-0.165,0.025
5952,-0.025,0.185
5953,0.325,0.105
5954,1.015,-0.615
5955,1.315,-0.865
5956,0.355,-0.755
5957,-0.265,-0.365
5958,-0.175,-0.165
5959,-0.135,-0.085
5960,-0.165,-0.045
5961,-0.145,-0.025
5962,-0.145,-0.025
5963,-0.125,-0.005
5964,-0.105,-0.005
5965,-0.125,-0.005
5966,-0.115,-0.015
5967,-0.095,-0.015
5968,-0.115,-0.005
5969,-0.085,-0.025
5970,-0.065,-0.025
5971,-0.055,-0.025
5972,-0.015,-0.025
5973,-0.015,-0.025
5974,-0.005,-0.025
5975,0.015,-0.035
5976,0.035,-0.045
5977,0.065,-0.045
5978,0.125,-0.065
5979,0.175,-0.065
5980,0.215,-0.075
5981,0.255,-0.095
5982,0.285,-0.115
5983,0.315,-0.125
5984,0.305,-0.125
5985,0.325,-0.125
5986,0.275,-0.125
5987,0.225,-0.105
5988,0.165,-0.085
5989,0.095,-0.065
5990,-0.005,-0.065
5991,-0.065,-0.045
5992,-0.115,-0.045
5993,-0.135,-0.035
5994,-0.145,-0.045
5995,-0.155,-0.045
5996,-0.155,-0.035
5997,-0.165,-0.035
5998,-0.165,-0.045
5999,-0.155,-0.035
6000,-0.175,-0.035
6001,-0.155,-0.035
6002,-0.135,-0.045
6003,-0.135,-0.045
6004,-0.115,-0.035
6005,-0.115,-0.035
6006,-0.115,-0.045
6007,-0.125,-0.045
6008,-0.125,-0.055
6009,-0.125,-0.055
6010,-0.125,-0.055
6011,-0.115,-0.065
6012,-0.105,-0.055
6013,-0.115,-0.065
6014,-0.115,-0.055
6015,-0.085,-0.025
6016,-0.075,-0.015
6017,-0.015,-0.005
6018,0.035,-0.025
6019,0.025,-0.035
6020,0.015,-0.055
6021,-0.005,-0.065
6022,-0.035,-0.085
6023,-0.065,-0.075
6024,-0.085,-0.095
6025,-0.125,-0.105
6026,-0.135,-0.105
6027,-0.145,-0.105
6028,-0.135,-0.115
6029,-0.135,-0.105
6030,-0.135,-0.105
6031,-0.125,-0.105
6032,-0.145,-0.115
6033,-0.125,-0.105
6034,-0.105,-0.105
6035,-0.095,-0.115
6036,-0.085,0.005
6037,0.015,0.185
6038,0.385,0.055
6039,1.045,-0.775
6040,1.395,-1.045
6041,0.625,-0.895
6042,-0.165,-0.425
6043,-0.095,-0.185
6044,-0.065,-0.105
6045,-0.065,-0.055
6046,-0.095,-0.035
6047,-0.105,-0.025
6048,-0.105,-0.015
6049,-0.095,-0.015
6050,-0.095,-0.015
6051,-0.065,-0.015
6052,-0.065,-0.015
6053,-0.055,-0.005
6054,-0.045,-0.015
6055,-0.045,-0.015
6056,-0.025,-0.025
6057,-0.035,-0.015
6058,-0.005,-0.025
6059,0.015,-0.025
6060,0.055,-0.025
6061,0.085,-0.025
6062,0.115,-0.035
6063,0.145,-0.035
6064,0.185,-0.045
6065,0.215,-0.065
6066,0.275,-0.075
6067,0.315,-0.085
6068,0.355,-0.095
6069,0.375,-0.095
6070,0.375,-0.105
6071,0.335,-0.105
6072,0.275,-0.085
6073,0.175,-0.075
6074,0.105,-0.065
6075,0.025,-0.045
6076,-0.015,-0.035
6077,-0.065,-0.045
6078,-0.085,-0.045
6079,-0.095,-0.045
6080,-0.125,-0.045
6081,-0.135,-0.055
6082,-0.145,-0.055
6083,-0.125,-0.055
6084,-0.105,-0.045
6085,-0.115,-0.055
6086,-0.125,-0.045
6087,-0.125,-0.045
6088,-0.135,-0.045
6089,-0.105,-0.045
6090,-0.105,-0.055
6091,-0.105,-0.055
6092,-0.085,-0.045
6093,-0.095,-0.055
6094,-0.105,-0.055
6095,-0.105,-0.065
6096,-0.145,-0.065
6097,-0.115,-0.065
6098,-0.105,-0.075
6099,-0.115,-0.075
6100,-0.075,-0.065
6101,-0.105,-0.065
6102,-0.115,-0.075
6103,-0.075,-0.035
6104,-0.075,-0.015
6105,-0.035,-0.015
6106,0.015,-0.025
6107,0.055,-0.035
6108,0.035,-0.055
6109,-0.005,-0.065
6110,-0.025,-0.085
6111,-0.055,-0.075
6112,-0.095,-0.095
6113,-0.115,-0.095
6114,-0.105,-0.105
6115,-0.125,-0.105
6116,-0.115,-0.105
6117,-0.115,-0.105
6118,-0.125,-0.105
6119,-0.095,-0.105
6120,-0.115,-0.105
6121,-0.095,-0.105
6122,-0.095,-0.105
6123,-0.055,-0.085
6124,-0.055,0.175
6125,0.285,0.175
6126,0.755,-0.465
6127,1.415,-1.085
6128,1.155,-1.055
6129,0.115,-0.605
6130,-0.075,-0.245
6131,-0.055,-0.105
6132,-0.035,-0.055
6133,-0.055,-0.025
6134,-0.075,-0.015
6135,-0.075,-0.005
6136,-0.095,-0.005
6137,-0.075,0.005
6138,-0.055,-0.005
6139,-0.055,0.005
6140,-0.025,0.005
6141,-0.025,-0.005
6142,-0.025,-0.005
6143,-0.015,-0.015
6144,-0.015,-0.005
6145,0.015,-0.015
6146,0.035,-0.005
6147,0.065,-0.005
6148,0.085,-0.005
6149,0.115,-0.015
6150,0.135,-0.025
6151,0.185,-0.035
6152,0.205,-0.045
6153,0.265,-0.055
6154,0.295,-0.075
6155,0.335,-0.095
6156,0.365,-0.095
6157,0.395,-0.095
6158,0.385,-0.105
6159,0.335,-0.095
6160,0.285,-0.075
6161,0.195,-0.065
6162,0.125,-0.065
6163,0.045,-0.045
6164,-0.005,-0.035
6165,-0.035,-0.035
6166,-0.075,-0.035
6167,-0.075,-0.045
6168,-0.095,-0.045
6169,-0.095,-0.055
6170,-0.095,-0.055
6171,-0.085,-0.045
6172,-0.075,-0.055
6173,-0.075,-0.055
6174,-0.085,-0.055
6175,-0.065,-0.055
6176,-0.085,-0.055
6177,-0.075,-0.045
6178,-0.065,-0.045
6179,-0.065,-0.045
6180,-0.065,-0.035
6181,-0.065,-0.045
6182,-0.075,-0.045
6183,-0.075,-0.045
6184,-0.105,-0.055
6185,-0.075,-0.055
6186,-0.075,-0.055
6187,-0.075,-0.055
6188,-0.065,-0.055
6189,-0.075,-0.065
6190,-0.085,-0.065
6191,-0.095,-0.065
6192,-0.065,-0.045
6193,-0.055,-0.025
6194,-0.025,-0.015
6195,0.025,-0.025
6196,0.065,-0.025
6197,0.055,-0.045
6198,0.005,-0.055
6199,0.005,-0.075
6200,-0.045,-0.065
6201,-0.055,-0.085
6202,-0.085,-0.085
6203,-0.105,-0.085
6204,-0.105,-0.085
6205,-0.105,-0.095
6206,-0.105,-0.095
6207,-0.095,-0.095
6208,-0.115,-0.095
6209,-0.105,-0.085
6210,-0.105,-0.085
6211,-0.085,-0.085
6212,-0.075,-0.075
6213,-0.065,0.085
6214,0.135,0.195
6215,0.545,-0.145
6216,1.205,-0.955
6217,1.315,-1.105
6218,0.395,-0.755
6219,-0.075,-0.295
6220,-0.055,-0.115
6221,-0.055,-0.065
6222,-0.075,-0.025
6223,-0.115,-0.015
6224,-0.095,-0.005
6225,-0.095,-0.015
6226,-0.095,-0.005
6227,-0.095,-0.005
6228,-0.065,-0.005
6229,-0.065,-0.005
6230,-0.055,-0.005
6231,-0.045,-0.005
6232,-0.065,-0.005
6233,-0.035,-0.005
6234,-0.005,-0.015
6235,0.005,-0.015
6236,0.025,-0.015
6237,0.045,-0.005
6238,0.065,-0.025
6239,0.105,-0.025
6240,0.125,-0.035
6241,0.185,-0.035
6242,0.235,-0.055
6243,0.265,-0.065
6244,0.325,-0.085
6245,0.325,-0.095
6246,0.345,-0.095
6247,0.335,-0.085
6248,0.245,-0.095
6249,0.235,-0.065
6250,0.195,-0.065
6251,0.115,-0.055
6252,0.065,-0.045
6253,0.015,-0.015
6254,-0.045,-0.025
6255,-0.075,-0.025
6256,-0.105,-0.035
6257,-0.125,-0.035
6258,-0.115,-0.045
6259,-0.125,-0.045
6260,-0.105,-0.045
6261,-0.085,-0.045
6262,-0.105,-0.045
6263,-0.105,-0.035
6264,-0.105,-0.045
6265,-0.095,-0.045
6266,-0.085,-0.045
6267,-0.095,-0.045
6268,-0.085,-0.045
6269,-0.065,-0.045
6270,-0.085,-0.045
6271,-0.075,-0.045
6272,-0.085,-0.045
6273,-0.095,-0.055
6274,-0.095,-0.055
6275,-0.095,-0.055
6276,-0.065,-0.045
6277,-0.055,-0.005
6278,-0.045,-0.005
6279,0.005,-0.005
6280,0.025,-0.025
6281,0.035,-0.035
6282,0.005,-0.045
6283,-0.025,-0.075
6284,-0.015,-0.075
6285,-0.055,-0.065
6286,-0.085,-0.085
6287,-0.125,-0.085
6288,-0.145,-0.085
6289,-0.125,-0.085
6290,-0.125,-0.085
6291,-0.125,-0.085
6292,-0.115,-0.075
6293,-0.125,-0.085
6294,-0.115,-0.085
6295,-0.135,-0.075
6296,-0.125,-0.085
6297,-0.085,-0.035
6298,-0.065,0.195
6299,0.315,0.105
6300,0.905,-0.635
6301,1.415,-1.025
6302,0.825,-0.915
6303,-0.095,-0.405
6304,-0.105,-0.155
6305,-0.085,-0.075
6306,-0.095,-0.025
6307,-0.105,-0.005
6308,-0.095,0.005
6309,-0.115,0.005
6310,-0.115,0.005
6311,-0.115,0.005
6312,-0.135,0.005
6313,-0.105,0.005
6314,-0.095,0.005
6315,-0.075,0.005
6316,-0.045,0.025
6317,-0.045,0.005
6318,-0.035,0.005
6319,-0.025,0.005
6320,-0.025,-0.005
6321,0.005,-0.005
6322,0.055,-0.005
6323,0.075,-0.015
6324,0.115,-0.015
6325,0.145,-0.025
6326,0.185,-0.055
6327,0.205,-0.055
6328,0.235,-0.075
6329,0.275,-0.085
6330,0.295,-0.095
6331,0.305,-0.095
6332,0.305,-0.085
6333,0.245,-0.065
6334,0.165,-0.055
6335,0.085,-0.035
6336,0.005,-0.025
6337,-0.065,-0.015
6338,-0.085,-0.015
6339,-0.115,-0.015
6340,-0.135,-0.015
6341,-0.145,-0.015
6342,-0.165,-0.015
6343,-0.165,-0.015
6344,-0.175,-0.025
6345,-0.175,-0.025
6346,-0.155,-0.025
6347,-0.155,-0.025
6348,-0.145,-0.015
6349,-0.135,-0.015
6350,-0.145,-0.015
6351,-0.135,-0.025
6352,-0.155,-0.025
6353,-0.165,-0.025
6354,-0.155,-0.025
6355,-0.145,-0.025
6356,-0.145,-0.025
6357,-0.135,-0.015
6358,-0.125,-0.005
6359,-0.105,0.005
6360,-0.065,0.005
6361,-0.035,-0.005
6362,-0.025,-0.015
6363,-0.025,-0.045
6364,-0.065,-0.055
6365,-0.065,-0.065
6366,-0.105,-0.065
6367,-0.105,-0.075
6368,-0.155,-0.085
6369,-0.185,-0.075
6370,-0.195,-0.085
6371,-0.195,-0.085
6372,-0.175,-0.085
6373,-0.175,-0.075
6374,-0.185,-0.075
6375,-0.175,-0.075
6376,-0.175,-0.075
6377,-0.165,-0.065
6378,-0.145,-0.075
6379,-0.155,0.055
6380,0.015,0.205
6381,0.405,-0.115
6382,1.215,-0.875
6383,1.235,-0.955
6384,0.005,-0.575
6385,-0.185,-0.245
6386,-0.165,-0.135
6387,-0.145,-0.085
6388,-0.145,-0.045
6389,-0.165,-0.005
6390,-0.175,-0.005
6391,-0.165,-0.005
6392,-0.145,0.005
6393,-0.145,0.015
6394,-0.145,0.005
6395,-0.145,0.005
6396,-0.125,0.005
6397,-0.105,0.005
6398,-0.115,-0.005
6399,-0.095,-0.015
6400,-0.075,-0.015
6401,-0.055,-0.035
6402,-0.025,-0.035
6403,0.015,-0.045
6404,0.065,-0.045
6405,0.075,-0.045
6406,0.095,-0.055
6407,0.155,-0.055
6408,0.175,-0.065
6409,0.225,-0.085
6410,0.255,-0.095
6411,0.265,-0.095
6412,0.285,-0.095
6413,0.235,-0.085
6414,0.205,-0.075
6415,0.135,-0.045
6416,0.025,-0.015
6417,-0.025,-0.005
6418,-0.085,-0.005
6419,-0.125,-0.005
6420,-0.155,-0.005
6421,-0.175,-0.005
6422,-0.185,-0.025
6423,-0.205,-0.025
6424,-0.215,-0.045
6425,-0.225,-0.035
6426,-0.205,-0.045
6427,-0.205,-0.045
6428,-0.185,-0.045
6429,-0.175,-0.045
6430,-0.175,-0.045
6431,-0.165,-0.045
6432,-0.175,-0.055
6433,-0.165,-0.035
6434,-0.165,-0.035
6435,-0.145,-0.025
6436,-0.135,-0.025
6437,-0.135,-0.005
6438,-0.115,0.005
6439,-0.105,0.015
6440,-0.065,0.015
6441,-0.025,-0.005
6442,-0.045,-0.025
6443,-0.065,-0.035
6444,-0.075,-0.045
6445,-0.115,-0.055
6446,-0.145,-0.065
6447,-0.155,-0.085
6448,-0.225,-0.095
6449,-0.235,-0.095
6450,-0.235,-0.105
6451,-0.235,-0.095
6452,-0.215,-0.095
6453,-0.215,-0.085
6454,-0.215,-0.095
6455,-0.205,-0.085
6456,-0.215,-0.085
6457,-0.185,-0.085
6458,-0.165,-0.085
6459,-0.225,0.135
6460,0.075,0.165
6461,0.565,-0.325
6462,1.345,-0.925
6463,0.925,-0.925
6464,-0.145,-0.525
6465,-0.185,-0.245
6466,-0.165,-0.125
6467,-0.145,-0.075
6468,-0.135,-0.035
6469,-0.155,-0.025
6470,-0.165,-0.025
6471,-0.155,-0.025
6472,-0.165,-0.025
6473,-0.155,-0.025
6474,-0.145,-0.025
6475,-0.105,-0.025
6476,-0.095,-0.015
6477,-0.095,-0.015
6478,-0.095,-0.025
6479,-0.085,-0.025
6480,-0.065,-0.025
6481,-0.055,-0.025
6482,-0.015,-0.035
6483,0.015,-0.045
6484,0.055,-0.045
6485,0.065,-0.045
6486,0.105,-0.065
6487,0.155,-0.065
6488,0.175,-0.085
6489,0.215,-0.095
6490,0.255,-0.115
6491,0.265,-0.115
6492,0.285,-0.115
6493,0.255,-0.115
6494,0.195,-0.105
6495,0.125,-0.095
6496,0.025,-0.075
6497,-0.045,-0.055
6498,-0.105,-0.055
6499,-0.145,-0.055
6500,-0.155,-0.045
6501,-0.175,-0.035
6502,-0.205,-0.045
6503,-0.195,-0.045
6504,-0.215,-0.045
6505,-0.205,-0.045
6506,-0.205,-0.055
6507,-0.185,-0.045
6508,-0.185,-0.045
6509,-0.175,-0.045
6510,-0.175,-0.045
6511,-0.175,-0.045
6512,-0.185,-0.045
6513,-0.175,-0.045
6514,-0.175,-0.055
6515,-0.175,-0.055
6516,-0.175,-0.055
6517,-0.165,-0.055
6518,-0.175,-0.065
6519,-0.175,-0.055
6520,-0.155,-0.025
6521,-0.135,-0.015
6522,-0.105,-0.005
6523,-0.065,-0.025
6524,-0.045,-0.045
6525,-0.055,-0.055
6526,-0.105,-0.065
6527,-0.125,-0.085
6528,-0.145,-0.085
6529,-0.155,-0.095
6530,-0.195,-0.105
6531,-0.215,-0.105
6532,-0.245,-0.105
6533,-0.225,-0.105
6534,-0.235,-0.115
6535,-0.235,-0.105
6536,-0.235,-0.105
6537,-0.235,-0.105
6538,-0.235,-0.105
6539,-0.205,-0.105
6540,-0.195,-0.105
6541,-0.185,-0.015
6542,-0.135,0.185
6543,0.215,0.065
6544,0.945,-0.785
6545,1.305,-1.065
6546,0.535,-0.895
6547,-0.175,-0.425
6548,-0.155,-0.175
6549,-0.155,-0.085
6550,-0.165,-0.045
6551,-0.175,-0.025
6552,-0.175,-0.015
6553,-0.165,-0.015
6554,-0.155,-0.025
6555,-0.135,-0.025
6556,-0.145,-0.015
6557,-0.125,-0.015
6558,-0.135,-0.015
6559,-0.105,-0.015
6560,-0.115,-0.025
6561,-0.095,-0.015
6562,-0.095,-0.025
6563,-0.065,-0.025
6564,-0.055,-0.015
6565,-0.035,-0.025
6566,-0.005,-0.035
6567,0.015,-0.045
6568,0.045,-0.045
6569,0.085,-0.065
6570,0.125,-0.075
6571,0.165,-0.085
6572,0.195,-0.095
6573,0.215,-0.115
6574,0.215,-0.125
6575,0.235,-0.115
6576,0.155,-0.095
6577,0.085,-0.085
6578,-0.005,-0.065
6579,-0.055,-0.065
6580,-0.075,-0.065
6581,-0.175,-0.035
6582,-0.225,-0.045
6583,-0.225,-0.055
6584,-0.265,-0.055
6585,-0.245,-0.055
6586,-0.245,-0.065
6587,-0.235,-0.065
6588,-0.225,-0.055
6589,-0.225,-0.065
6590,-0.225,-0.065
6591,-0.235,-0.055
6592,-0.235,-0.055
6593,-0.225,-0.055
6594,-0.215,-0.065
6595,-0.185,-0.065
6596,-0.235,-0.045
6597,-0.215,-0.045
6598,-0.245,-0.055
6599,-0.215,-0.075
6600,-0.235,-0.065
6601,-0.215,-0.065
6602,-0.245,-0.075
6603,-0.225,-0.065
6604,-0.215,-0.065
6605,-0.225,-0.085
6606,-0.205,-0.075
6607,-0.195,-0.035
6608,-0.195,-0.015
6609,-0.145,-0.035
6610,-0.075,-0.045
6611,-0.075,-0.065
6612,-0.075,-0.075
6613,-0.135,-0.095
6614,-0.155,-0.095
6615,-0.205,-0.095
6616,-0.235,-0.105
6617,-0.255,-0.105
6618,-0.245,-0.115
6619,-0.235,-0.115
6620,-0.225,-0.105
6621,-0.245,-0.105
6622,-0.215,-0.115
6623,-0.255,-0.095
6624,-0.235,-0.105
6625,-0.195,-0.125
6626,-0.185,-0.105
6627,-0.205,-0.085
6628,-0.185,0.165
6629,0.205,0.145
6630,0.695,-0.515
6631,1.305,-1.065
6632,0.835,-1.025
6633,-0.145,-0.545
6634,-0.185,-0.235
6635,-0.185,-0.125
6636,-0.185,-0.065
6637,-0.205,-0.035
6638,-0.205,-0.045
6639,-0.205,-0.025
6640,-0.205,-0.035
6641,-0.175,-0.035
6642,-0.175,-0.035
6643,-0.165,-0.035
6644,-0.135,-0.035
6645,-0.155,-0.015
6646,-0.135,-0.025
