'sample interval','ECG1','ECG2'
'0.0078125 sec','mV','mV'
0,-0.435,-0.425
1,-0.435,-0.415
2,-0.415,-0.405
3,-0.405,-0.405
4,-0.395,-0.395
5,-0.385,-0.385
6,-0.375,-0.375
7,-0.375,-0.385
8,-0.355,-0.365
9,-0.355,-0.365
10,-0.345,-0.355
11,-0.345,-0.345
12,-0.325,-0.345
13,-0.325,-0.335
14,-0.325,-0.335
15,-0.325,-0.325
16,-0.325,-0.315
17,-0.325,-0.325
18,-0.325,-0.315
19,-0.325,-0.305
20,-0.325,-0.295
21,-0.325,-0.295
22,-0.315,-0.295
23,-0.315,-0.285
24,-0.325,-0.285
25,-0.325,-0.275
26,-0.305,-0.275
27,-0.315,-0.265
28,-0.305,-0.255
29,-0.305,-0.255
30,-0.305,-0.245
31,-0.305,-0.245
32,-0.295,-0.245
33,-0.295,-0.235
34,-0.295,-0.235
35,-0.285,-0.225
36,-0.275,-0.215
37,-0.275,-0.215
38,-0.275,-0.215
39,-0.275,-0.205
40,-0.265,-0.195
41,-0.255,-0.195
42,-0.255,-0.185
43,-0.255,-0.175
44,-0.235,-0.165
45,-0.235,-0.155
46,-0.215,-0.145
47,-0.175,0.485
48,0.405,0.515
49,0.415,0.495
50,0.415,0.485
51,0.405,0.485
52,0.405,0.485
53,0.395,0.475
54,0.395,0.465
55,0.385,0.465
56,0.375,0.455
57,0.375,0.455
58,0.375,0.445
59,0.355,0.435
60,0.355,0.425
61,0.345,0.425
62,0.335,0.415
63,0.335,0.415
64,0.325,0.395
65,0.315,0.395
66,0.315,0.385
67,0.305,0.385
68,0.305,0.375
69,0.295,0.365
70,0.285,0.365
71,0.275,0.355
72,0.275,0.355
73,0.275,0.345
74,0.265,0.335
75,0.255,0.335
76,0.245,0.325
77,0.245,0.325
78,0.235,0.325
79,0.225,0.315
80,0.225,0.305
81,0.225,0.305
82,0.215,0.295
83,0.205,0.295
84,0.205,0.295
85,0.195,0.285
86,0.195,0.275
87,0.185,0.275
88,0.185,0.265
89,0.185,0.265
90,0.175,0.265
91,0.175,0.245
92,0.165,0.245
93,0.155,0.245
94,0.155,0.235
95,0.145,0.235
96,0.145,0.225
97,0.135,0.225
98,0.135,0.215
99,0.125,0.215
100,0.125,0.215
101,0.125,0.205
102,0.115,0.205
103,0.105,0.195
104,0.105,0.185
105,0.095,0.175
106,0.095,0.175
107,0.075,0.165
108,0.075,0.155
109,0.065,0.145
110,0.045,0.145
111,-0.065,-0.545
112,-0.615,-0.545
113,-0.605,-0.515
114,-0.595,-0.515
115,-0.595,-0.505
116,-0.585,-0.515
117,-0.585,-0.505
118,-0.585,-0.495
119,-0.575,-0.495
120,-0.565,-0.485
121,-0.555,-0.475
122,-0.555,-0.475
123,-0.555,-0.465
124,-0.545,-0.455
125,-0.535,-0.445
126,-0.525,-0.445
127,-0.525,-0.435
128,-0.515,-0.425
129,-0.515,-0.425
130,-0.495,-0.415
131,-0.495,-0.415
132,-0.495,-0.415
133,-0.485,-0.405
134,-0.475,-0.395
135,-0.475,-0.385
136,-0.465,-0.385
137,-0.455,-0.375
138,-0.455,-0.365
139,-0.445,-0.365
140,-0.435,-0.355
141,-0.435,-0.355
142,-0.425,-0.345
143,-0.425,-0.345
144,-0.415,-0.335
145,-0.415,-0.325
146,-0.405,-0.325
147,-0.405,-0.325
148,-0.395,-0.315
149,-0.385,-0.305
150,-0.385,-0.305
151,-0.385,-0.305
152,-0.365,-0.295
153,-0.365,-0.295
154,-0.355,-0.285
155,-0.355,-0.275
156,-0.345,-0.275
157,-0.345,-0.275
158,-0.335,-0.265
159,-0.335,-0.255
160,-0.325,-0.255
161,-0.325,-0.255
162,-0.315,-0.245
163,-0.305,-0.245
164,-0.305,-0.235
165,-0.295,-0.235
166,-0.295,-0.225
167,-0.285,-0.225
168,-0.275,-0.215
169,-0.265,-0.215
170,-0.265,-0.205
171,-0.265,-0.195
172,-0.245,-0.185
173,-0.235,-0.175
174,-0.215,-0.175
175,-0.075,0.505
176,0.475,0.505
177,0.445,0.485
178,0.435,0.475
179,0.425,0.475
180,0.425,0.465
181,0.415,0.455
182,0.405,0.455
183,0.395,0.445
184,0.395,0.445
185,0.385,0.425
186,0.385,0.425
187,0.375,0.415
188,0.365,0.415
189,0.365,0.405
190,0.355,0.395
191,0.345,0.395
192,0.345,0.385
193,0.335,0.375
194,0.325,0.375
195,0.315,0.365
196,0.315,0.355
197,0.315,0.355
198,0.305,0.345
199,0.295,0.345
200,0.295,0.335
201,0.285,0.325
202,0.285,0.325
203,0.275,0.315
204,0.265,0.315
205,0.265,0.305
206,0.265,0.295
207,0.255,0.295
208,0.245,0.295
209,0.235,0.285
210,0.235,0.285
211,0.225,0.275
212,0.225,0.265
213,0.215,0.265
214,0.215,0.265
215,0.205,0.255
216,0.205,0.245
217,0.195,0.245
218,0.185,0.235
219,0.175,0.235
220,0.175,0.235
221,0.175,0.225
222,0.165,0.225
223,0.155,0.215
224,0.155,0.215
225,0.145,0.205
226,0.135,0.205
227,0.135,0.195
228,0.125,0.195
229,0.115,0.195
230,0.115,0.185
231,0.105,0.185
232,0.105,0.175
233,0.095,0.175
234,0.085,0.165
235,0.085,0.155
236,0.075,0.145
237,0.065,0.135
238,0.045,0.135
239,-0.025,-0.535
240,-0.635,-0.555
241,-0.625,-0.535
242,-0.605,-0.535
243,-0.605,-0.515
244,-0.595,-0.515
245,-0.595,-0.515
246,-0.585,-0.495
247,-0.585,-0.505
248,-0.575,-0.485
249,-0.565,-0.485
250,-0.555,-0.475
251,-0.545,-0.465
252,-0.535,-0.465
253,-0.535,-0.455
254,-0.525,-0.445
255,-0.525,-0.435
256,-0.515,-0.435
257,-0.505,-0.425
258,-0.495,-0.425
259,-0.495,-0.405
260,-0.485,-0.405
261,-0.475,-0.405
262,-0.465,-0.395
263,-0.465,-0.385
264,-0.455,-0.375
265,-0.445,-0.375
266,-0.435,-0.365
267,-0.435,-0.365
268,-0.425,-0.355
269,-0.425,-0.345
270,-0.405,-0.335
271,-0.405,-0.335
272,-0.395,-0.335
273,-0.395,-0.325
274,-0.385,-0.315
275,-0.375,-0.315
276,-0.365,-0.305
277,-0.365,-0.305
278,-0.355,-0.295
279,-0.355,-0.285
280,-0.345,-0.285
281,-0.335,-0.275
282,-0.325,-0.275
283,-0.335,-0.265
284,-0.325,-0.265
285,-0.325,-0.265
286,-0.315,-0.245
287,-0.305,-0.245
288,-0.305,-0.245
289,-0.295,-0.245
290,-0.295,-0.225
291,-0.295,-0.225
292,-0.285,-0.215
293,-0.275,-0.215
294,-0.275,-0.215
295,-0.265,-0.195
296,-0.265,-0.195
297,-0.265,-0.195
298,-0.255,-0.185
299,-0.255,-0.185
300,-0.235,-0.165
301,-0.225,-0.155
302,-0.205,-0.135
303,-0.175,0.455
304,0.405,0.525
305,0.435,0.515
306,0.425,0.505
307,0.415,0.505
308,0.415,0.495
309,0.415,0.485
310,0.405,0.485
311,0.395,0.475
312,0.395,0.465
313,0.385,0.465
314,0.385,0.455
315,0.375,0.445
316,0.365,0.435
317,0.365,0.435
318,0.355,0.425
319,0.345,0.415
320,0.345,0.415
321,0.335,0.405
322,0.325,0.405
323,0.315,0.395
324,0.315,0.385
325,0.305,0.385
326,0.305,0.375
327,0.295,0.375
328,0.285,0.365
329,0.285,0.365
330,0.275,0.355
331,0.275,0.345
332,0.265,0.345
333,0.255,0.335
334,0.255,0.335
335,0.255,0.335
336,0.245,0.315
337,0.235,0.315
338,0.235,0.315
339,0.215,0.305
340,0.225,0.305
341,0.215,0.295
342,0.205,0.295
343,0.195,0.285
344,0.185,0.285
345,0.185,0.285
346,0.175,0.265
347,0.165,0.265
348,0.165,0.265
349,0.155,0.265
350,0.145,0.255
351,0.145,0.245
352,0.145,0.245
353,0.135,0.245
354,0.125,0.235
355,0.125,0.235
356,0.125,0.225
357,0.115,0.225
358,0.115,0.215
359,0.105,0.215
360,0.105,0.205
361,0.095,0.205
362,0.085,0.195
363,0.075,0.185
364,0.075,0.175
365,0.055,0.165
366,0.045,0.155
367,-0.145,-0.515
368,-0.625,-0.515
369,-0.605,-0.495
370,-0.605,-0.485
371,-0.595,-0.475
372,-0.585,-0.475
373,-0.585,-0.475
374,-0.585,-0.465
375,-0.575,-0.455
376,-0.565,-0.455
377,-0.575,-0.445
378,-0.555,-0.435
379,-0.555,-0.435
380,-0.545,-0.425
381,-0.545,-0.415
382,-0.525,-0.405
383,-0.525,-0.405
384,-0.515,-0.395
385,-0.515,-0.385
386,-0.505,-0.385
387,-0.495,-0.375
388,-0.495,-0.365
389,-0.485,-0.365
390,-0.485,-0.355
391,-0.475,-0.345
392,-0.465,-0.335
393,-0.455,-0.335
394,-0.455,-0.325
395,-0.455,-0.315
396,-0.445,-0.315
397,-0.435,-0.305
398,-0.425,-0.305
399,-0.425,-0.295
400,-0.415,-0.285
401,-0.415,-0.285
402,-0.405,-0.275
403,-0.405,-0.275
404,-0.395,-0.275
405,-0.395,-0.265
406,-0.385,-0.245
407,-0.385,-0.245
408,-0.375,-0.245
409,-0.365,-0.245
410,-0.355,-0.235
411,-0.365,-0.235
412,-0.345,-0.225
413,-0.345,-0.215
414,-0.335,-0.215
415,-0.335,-0.215
416,-0.325,-0.205
417,-0.325,-0.205
418,-0.315,-0.205
419,-0.315,-0.195
420,-0.305,-0.185
421,-0.295,-0.185
422,-0.285,-0.175
423,-0.285,-0.175
424,-0.275,-0.165
425,-0.275,-0.165
426,-0.265,-0.155
427,-0.255,-0.155
428,-0.245,-0.145
429,-0.235,-0.135
430,-0.215,-0.135
431,-0.175,0.505
432,0.445,0.545
433,0.445,0.515
434,0.435,0.515
435,0.425,0.505
436,0.415,0.505
437,0.405,0.495
438,0.405,0.495
439,0.395,0.485
440,0.395,0.475
441,0.375,0.475
442,0.365,0.465
443,0.365,0.455
444,0.355,0.455
445,0.355,0.445
446,0.335,0.435
447,0.325,0.435
448,0.325,0.425
449,0.315,0.425
450,0.315,0.415
451,0.295,0.405
452,0.295,0.395
453,0.285,0.395
454,0.285,0.395
455,0.265,0.375
456,0.265,0.375
457,0.265,0.375
458,0.255,0.365
459,0.245,0.365
460,0.245,0.355
461,0.235,0.345
462,0.225,0.345
463,0.215,0.345
464,0.215,0.335
465,0.205,0.325
466,0.195,0.325
467,0.195,0.325
468,0.185,0.315
469,0.185,0.315
470,0.175,0.305
471,0.165,0.295
472,0.165,0.295
473,0.165,0.285
474,0.155,0.285
475,0.155,0.275
476,0.145,0.275
477,0.145,0.275
478,0.135,0.265
479,0.135,0.265
480,0.135,0.255
481,0.125,0.255
482,0.125,0.245
483,0.115,0.245
484,0.115,0.245
485,0.105,0.225
486,0.105,0.235
487,0.095,0.225
488,0.095,0.215
489,0.085,0.215
490,0.085,0.205
491,0.085,0.205
492,0.075,0.185
493,0.055,0.175
494,0.045,0.155
495,0.025,-0.395
496,-0.565,-0.515
497,-0.615,-0.495
498,-0.605,-0.485
499,-0.605,-0.475
500,-0.595,-0.475
501,-0.585,-0.465
502,-0.585,-0.465
503,-0.585,-0.455
504,-0.575,-0.445
505,-0.575,-0.445
506,-0.555,-0.435
507,-0.555,-0.435
508,-0.555,-0.425
509,-0.545,-0.415
510,-0.535,-0.405
511,-0.535,-0.395
512,-0.525,-0.395
513,-0.515,-0.385
514,-0.505,-0.385
515,-0.515,-0.375
516,-0.495,-0.365
517,-0.495,-0.365
518,-0.485,-0.355
519,-0.485,-0.355
520,-0.475,-0.345
521,-0.465,-0.345
522,-0.455,-0.335
523,-0.455,-0.325
524,-0.445,-0.325
525,-0.445,-0.315
526,-0.435,-0.305
527,-0.435,-0.295
528,-0.425,-0.295
529,-0.415,-0.295
530,-0.405,-0.285
531,-0.405,-0.275
532,-0.395,-0.275
533,-0.395,-0.265
534,-0.385,-0.265
535,-0.385,-0.265
536,-0.375,-0.255
537,-0.365,-0.245
538,-0.355,-0.245
539,-0.355,-0.245
540,-0.355,-0.235
541,-0.345,-0.235
542,-0.335,-0.225
543,-0.335,-0.215
544,-0.325,-0.215
545,-0.315,-0.215
546,-0.325,-0.205
547,-0.325,-0.205
548,-0.305,-0.195
549,-0.295,-0.195
550,-0.285,-0.185
551,-0.285,-0.185
552,-0.275,-0.175
553,-0.275,-0.165
554,-0.265,-0.165
555,-0.265,-0.155
556,-0.245,-0.145
557,-0.235,-0.135
558,-0.215,-0.115
559,-0.095,0.545
560,0.455,0.545
561,0.445,0.525
562,0.425,0.515
563,0.425,0.515
564,0.425,0.505
565,0.415,0.495
566,0.405,0.495
567,0.395,0.485
568,0.395,0.485
569,0.385,0.465
570,0.385,0.465
571,0.375,0.455
572,0.365,0.455
573,0.355,0.445
574,0.355,0.435
575,0.345,0.435
576,0.335,0.425
577,0.335,0.425
578,0.325,0.415
579,0.315,0.405
580,0.315,0.405
581,0.305,0.395
582,0.305,0.395
583,0.285,0.385
584,0.285,0.375
585,0.285,0.375
586,0.275,0.365
587,0.265,0.365
588,0.265,0.355
589,0.255,0.345
590,0.255,0.355
591,0.245,0.335
592,0.235,0.335
593,0.235,0.335
594,0.225,0.335
595,0.225,0.325
596,0.225,0.315
597,0.215,0.305
598,0.205,0.305
599,0.195,0.305
600,0.195,0.295
601,0.185,0.295
602,0.185,0.285
603,0.175,0.285
604,0.165,0.285
605,0.165,0.275
606,0.165,0.275
607,0.155,0.265
608,0.145,0.255
609,0.145,0.265
610,0.135,0.255
611,0.125,0.245
612,0.125,0.245
613,0.125,0.235
614,0.115,0.235
615,0.095,0.225
616,0.095,0.225
617,0.095,0.225
618,0.085,0.205
619,0.075,0.205
620,0.075,0.195
621,0.055,0.175
622,0.035,0.175
623,-0.115,-0.505
624,-0.655,-0.495
625,-0.625,-0.475
626,-0.615,-0.475
627,-0.615,-0.465
628,-0.605,-0.465
629,-0.605,-0.455
630,-0.595,-0.455
631,-0.585,-0.445
632,-0.585,-0.435
633,-0.575,-0.435
634,-0.565,-0.425
635,-0.565,-0.415
636,-0.555,-0.405
637,-0.545,-0.405
638,-0.535,-0.395
639,-0.535,-0.385
640,-0.535,-0.385
641,-0.525,-0.375
642,-0.515,-0.365
643,-0.505,-0.365
644,-0.505,-0.355
645,-0.495,-0.345
646,-0.485,-0.335
647,-0.485,-0.325
648,-0.475,-0.335
649,-0.465,-0.325
650,-0.465,-0.315
651,-0.465,-0.305
652,-0.445,-0.305
653,-0.445,-0.305
654,-0.435,-0.285
655,-0.435,-0.285
656,-0.425,-0.275
657,-0.415,-0.275
658,-0.415,-0.275
659,-0.405,-0.265
660,-0.395,-0.255
661,-0.395,-0.245
662,-0.385,-0.245
663,-0.385,-0.245
664,-0.365,-0.235
665,-0.365,-0.235
666,-0.365,-0.225
667,-0.355,-0.225
668,-0.355,-0.215
669,-0.345,-0.215
670,-0.335,-0.215
671,-0.335,-0.205
672,-0.325,-0.195
673,-0.325,-0.185
674,-0.315,-0.185
675,-0.315,-0.185
676,-0.305,-0.175
677,-0.295,-0.175
678,-0.295,-0.165
679,-0.285,-0.155
680,-0.275,-0.155
681,-0.265,-0.155
682,-0.255,-0.145
683,-0.255,-0.135
684,-0.235,-0.115
685,-0.225,-0.105
686,-0.205,-0.075
687,0.095,0.575
688,0.435,0.555
689,0.425,0.545
690,0.415,0.535
691,0.415,0.535
692,0.405,0.525
693,0.405,0.525
694,0.395,0.515
695,0.385,0.505
696,0.385,0.495
697,0.375,0.485
698,0.365,0.485
699,0.355,0.475
700,0.355,0.475
701,0.355,0.465
702,0.345,0.465
703,0.335,0.445
704,0.335,0.445
705,0.315,0.435
706,0.315,0.435
707,0.305,0.415
708,0.305,0.425
709,0.295,0.415
710,0.295,0.405
711,0.285,0.405
712,0.285,0.395
713,0.275,0.385
714,0.265,0.385
715,0.255,0.375
716,0.255,0.365
717,0.255,0.365
718,0.245,0.365
719,0.245,0.355
720,0.235,0.345
721,0.235,0.345
722,0.235,0.335
723,0.225,0.335
724,0.215,0.335
725,0.215,0.325
726,0.215,0.315
727,0.195,0.315
728,0.205,0.305
729,0.195,0.305
730,0.185,0.295
731,0.185,0.295
732,0.175,0.285
733,0.165,0.285
734,0.165,0.285
735,0.155,0.275
736,0.155,0.275
737,0.155,0.265
738,0.145,0.255
739,0.135,0.255
740,0.135,0.255
741,0.125,0.245
742,0.125,0.235
743,0.105,0.225
744,0.115,0.225
745,0.105,0.225
746,0.095,0.215
747,0.085,0.205
748,0.075,0.195
749,0.065,0.175
750,0.045,0.175
751,-0.085,-0.475
752,-0.635,-0.495
753,-0.615,-0.475
754,-0.605,-0.475
755,-0.605,-0.465
756,-0.595,-0.465
757,-0.585,-0.465
758,-0.575,-0.455
759,-0.575,-0.445
760,-0.575,-0.435
761,-0.555,-0.425
762,-0.555,-0.435
763,-0.545,-0.425
764,-0.535,-0.415
765,-0.535,-0.405
766,-0.525,-0.395
767,-0.525,-0.395
768,-0.505,-0.395
769,-0.505,-0.385
770,-0.495,-0.375
771,-0.485,-0.365
772,-0.485,-0.365
773,-0.475,-0.355
774,-0.465,-0.355
775,-0.465,-0.345
776,-0.445,-0.335
777,-0.445,-0.335
778,-0.435,-0.325
779,-0.435,-0.325
780,-0.425,-0.315
781,-0.415,-0.315
782,-0.405,-0.305
783,-0.405,-0.305
784,-0.395,-0.295
785,-0.395,-0.295
786,-0.395,-0.285
787,-0.385,-0.275
788,-0.375,-0.275
789,-0.375,-0.275
790,-0.375,-0.265
791,-0.365,-0.265
792,-0.355,-0.255
793,-0.355,-0.245
794,-0.345,-0.245
795,-0.345,-0.245
796,-0.335,-0.245
797,-0.335,-0.235
798,-0.325,-0.225
799,-0.325,-0.225
800,-0.315,-0.225
801,-0.325,-0.215
802,-0.315,-0.205
803,-0.305,-0.205
804,-0.295,-0.205
805,-0.295,-0.195
806,-0.295,-0.195
807,-0.285,-0.185
808,-0.275,-0.185
809,-0.265,-0.175
810,-0.265,-0.175
811,-0.265,-0.165
812,-0.245,-0.155
813,-0.235,-0.135
814,-0.215,-0.125
815,-0.135,0.515
816,0.465,0.535
817,0.445,0.515
818,0.435,0.515
819,0.425,0.495
820,0.425,0.495
821,0.415,0.485
822,0.415,0.485
823,0.405,0.485
824,0.395,0.465
825,0.395,0.465
826,0.385,0.455
827,0.375,0.455
828,0.365,0.445
829,0.365,0.435
830,0.355,0.435
831,0.345,0.415
832,0.345,0.415
833,0.335,0.405
834,0.325,0.395
835,0.315,0.395
836,0.315,0.385
837,0.305,0.385
838,0.305,0.375
839,0.295,0.375
840,0.285,0.365
841,0.285,0.355
842,0.285,0.345
843,0.275,0.345
844,0.265,0.335
845,0.265,0.335
846,0.255,0.325
847,0.255,0.325
848,0.245,0.315
849,0.235,0.315
850,0.235,0.305
851,0.225,0.295
852,0.215,0.295
853,0.215,0.295
854,0.205,0.285
855,0.195,0.285
856,0.195,0.285
857,0.185,0.275
858,0.185,0.265
859,0.175,0.265
860,0.175,0.255
861,0.165,0.255
862,0.155,0.245
863,0.155,0.235
864,0.145,0.235
865,0.145,0.235
866,0.135,0.225
867,0.125,0.225
868,0.125,0.215
869,0.115,0.215
870,0.115,0.215
871,0.105,0.205
872,0.105,0.205
873,0.095,0.195
874,0.085,0.185
875,0.075,0.175
876,0.065,0.165
877,0.055,0.155
878,0.015,0.095
879,-0.295,-0.545
880,-0.595,-0.515
881,-0.595,-0.495
882,-0.595,-0.495
883,-0.585,-0.495
884,-0.585,-0.495
885,-0.575,-0.485
886,-0.565,-0.475
887,-0.565,-0.475
888,-0.555,-0.465
889,-0.545,-0.455
890,-0.545,-0.455
891,-0.535,-0.445
892,-0.535,-0.435
893,-0.525,-0.425
894,-0.515,-0.425
895,-0.515,-0.425
896,-0.505,-0.415
897,-0.495,-0.405
898,-0.495,-0.395
899,-0.495,-0.395
900,-0.475,-0.385
901,-0.475,-0.375
902,-0.465,-0.365
903,-0.465,-0.365
904,-0.455,-0.355
905,-0.445,-0.355
906,-0.445,-0.345
907,-0.445,-0.345
908,-0.435,-0.335
909,-0.425,-0.335
910,-0.415,-0.325
911,-0.415,-0.325
912,-0.405,-0.315
913,-0.405,-0.315
914,-0.395,-0.305
915,-0.395,-0.305
916,-0.385,-0.295
917,-0.385,-0.295
918,-0.375,-0.285
919,-0.375,-0.275
920,-0.365,-0.275
921,-0.355,-0.275
922,-0.355,-0.265
923,-0.355,-0.255
924,-0.345,-0.255
925,-0.335,-0.255
926,-0.335,-0.245
927,-0.335,-0.235
928,-0.325,-0.235
929,-0.325,-0.225
930,-0.315,-0.235
931,-0.315,-0.225
932,-0.305,-0.225
933,-0.295,-0.205
934,-0.295,-0.205
935,-0.285,-0.205
936,-0.275,-0.195
937,-0.265,-0.185
938,-0.265,-0.185
939,-0.255,-0.175
940,-0.245,-0.165
941,-0.225,-0.145
942,-0.215,-0.135
943,0.035,0.525
944,0.465,0.525
945,0.435,0.495
946,0.435,0.495
947,0.425,0.485
948,0.415,0.485
949,0.415,0.485
950,0.415,0.475
951,0.395,0.465
952,0.395,0.455
953,0.385,0.455
954,0.375,0.445
955,0.365,0.435
956,0.365,0.435
957,0.365,0.425
958,0.355,0.415
959,0.345,0.415
960,0.345,0.405
961,0.345,0.395
962,0.335,0.385
963,0.315,0.375
964,0.315,0.375
965,0.305,0.375
966,0.305,0.365
967,0.295,0.355
968,0.295,0.355
969,0.285,0.345
970,0.275,0.335
971,0.265,0.335
972,0.265,0.325
973,0.265,0.325
974,0.255,0.315
975,0.245,0.315
976,0.245,0.315
977,0.235,0.305
978,0.225,0.295
979,0.225,0.295
980,0.225,0.295
981,0.215,0.285
982,0.215,0.275
983,0.205,0.275
984,0.195,0.265
985,0.195,0.265
986,0.185,0.265
987,0.175,0.255
988,0.175,0.255
989,0.165,0.245
990,0.155,0.245
991,0.155,0.245
992,0.145,0.225
993,0.145,0.225
994,0.135,0.225
995,0.125,0.215
996,0.135,0.215
997,0.125,0.205
998,0.115,0.205
999,0.105,0.205
1000,0.105,0.195
1001,0.095,0.195
1002,0.095,0.175
1003,0.075,0.175
1004,0.065,0.165
1005,0.055,0.145
1006,0.035,0.135
1007,0.005,-0.425
1008,-0.535,-0.545
1009,-0.575,-0.515
1010,-0.575,-0.505
1011,-0.575,-0.495
1012,-0.565,-0.505
1013,-0.565,-0.495
1014,-0.565,-0.485
1015,-0.555,-0.475
1016,-0.545,-0.465
1017,-0.545,-0.475
1018,-0.545,-0.455
1019,-0.535,-0.455
1020,-0.525,-0.445
1021,-0.525,-0.445
1022,-0.525,-0.435
1023,-0.515,-0.425
1024,-0.505,-0.425
1025,-0.505,-0.405
1026,-0.505,-0.405
1027,-0.495,-0.395
1028,-0.485,-0.395
1029,-0.485,-0.385
1030,-0.485,-0.385
1031,-0.475,-0.375
1032,-0.465,-0.365
1033,-0.465,-0.355
1034,-0.455,-0.355
1035,-0.455,-0.355
1036,-0.445,-0.345
1037,-0.435,-0.335
1038,-0.435,-0.325
1039,-0.425,-0.325
1040,-0.415,-0.325
1041,-0.405,-0.315
1042,-0.405,-0.315
1043,-0.405,-0.305
1044,-0.395,-0.305
1045,-0.385,-0.295
1046,-0.385,-0.295
1047,-0.375,-0.285
1048,-0.365,-0.275
1049,-0.365,-0.275
1050,-0.355,-0.275
1051,-0.355,-0.265
1052,-0.345,-0.265
1053,-0.335,-0.255
1054,-0.335,-0.245
1055,-0.325,-0.245
1056,-0.325,-0.245
1057,-0.305,-0.235
1058,-0.305,-0.235
1059,-0.305,-0.225
1060,-0.295,-0.215
1061,-0.295,-0.215
1062,-0.285,-0.215
1063,-0.285,-0.205
1064,-0.275,-0.195
1065,-0.265,-0.185
1066,-0.255,-0.185
1067,-0.255,-0.175
1068,-0.245,-0.165
1069,-0.235,-0.145
1070,-0.205,-0.095
1071,0.175,0.515
1072,0.455,0.505
1073,0.435,0.485
1074,0.425,0.485
1075,0.415,0.475
1076,0.415,0.475
1077,0.405,0.465
1078,0.405,0.455
1079,0.395,0.455
1080,0.395,0.445
1081,0.385,0.445
1082,0.385,0.435
1083,0.375,0.425
1084,0.365,0.425
1085,0.355,0.415
1086,0.355,0.405
1087,0.345,0.395
1088,0.345,0.385
1089,0.335,0.385
1090,0.325,0.385
1091,0.315,0.375
1092,0.315,0.365
1093,0.305,0.365
1094,0.305,0.355
1095,0.295,0.355
1096,0.295,0.335
1097,0.285,0.335
1098,0.285,0.335
1099,0.275,0.325
1100,0.265,0.325
1101,0.265,0.315
1102,0.255,0.305
1103,0.255,0.305
1104,0.245,0.295
1105,0.235,0.295
1106,0.235,0.285
1107,0.225,0.285
1108,0.225,0.275
1109,0.215,0.275
1110,0.205,0.265
1111,0.205,0.265
1112,0.195,0.255
1113,0.195,0.245
1114,0.185,0.255
1115,0.175,0.245
1116,0.175,0.235
1117,0.165,0.225
1118,0.165,0.225
1119,0.155,0.225
1120,0.145,0.215
1121,0.145,0.215
1122,0.135,0.215
1123,0.135,0.195
1124,0.125,0.205
1125,0.125,0.195
1126,0.115,0.185
1127,0.105,0.185
1128,0.105,0.175
1129,0.095,0.165
1130,0.085,0.165
1131,0.075,0.155
1132,0.075,0.145
1133,0.065,0.125
1134,0.035,0.105
1135,-0.305,-0.565
1136,-0.635,-0.535
1137,-0.615,-0.525
1138,-0.605,-0.525
1139,-0.605,-0.515
1140,-0.595,-0.515
1141,-0.585,-0.505
1142,-0.585,-0.495
1143,-0.575,-0.495
1144,-0.565,-0.485
1145,-0.555,-0.485
1146,-0.555,-0.475
1147,-0.555,-0.465
1148,-0.545,-0.455
1149,-0.535,-0.455
1150,-0.525,-0.455
1151,-0.525,-0.445
1152,-0.515,-0.425
1153,-0.505,-0.425
1154,-0.505,-0.415
1155,-0.495,-0.415
1156,-0.495,-0.405
1157,-0.485,-0.395
1158,-0.485,-0.395
1159,-0.485,-0.385
1160,-0.465,-0.385
1161,-0.465,-0.375
1162,-0.455,-0.365
1163,-0.455,-0.365
1164,-0.445,-0.355
1165,-0.445,-0.355
1166,-0.435,-0.345
1167,-0.425,-0.335
1168,-0.415,-0.335
1169,-0.415,-0.335
1170,-0.405,-0.325
1171,-0.405,-0.325
1172,-0.395,-0.315
1173,-0.395,-0.305
1174,-0.385,-0.305
1175,-0.385,-0.305
1176,-0.375,-0.295
1177,-0.365,-0.285
1178,-0.365,-0.285
1179,-0.355,-0.275
1180,-0.345,-0.275
1181,-0.345,-0.275
1182,-0.335,-0.265
1183,-0.335,-0.255
1184,-0.325,-0.255
1185,-0.315,-0.255
1186,-0.315,-0.245
1187,-0.305,-0.235
1188,-0.305,-0.235
1189,-0.295,-0.225
1190,-0.295,-0.225
1191,-0.295,-0.215
1192,-0.275,-0.215
1193,-0.275,-0.205
1194,-0.265,-0.195
1195,-0.265,-0.185
1196,-0.245,-0.175
1197,-0.225,-0.165
1198,-0.215,-0.115
1199,0.225,0.525
1200,0.445,0.495
1201,0.435,0.485
1202,0.425,0.475
1203,0.405,0.475
1204,0.415,0.475
1205,0.395,0.465
1206,0.395,0.455
1207,0.395,0.445
1208,0.385,0.445
1209,0.385,0.445
1210,0.375,0.425
1211,0.365,0.425
1212,0.365,0.415
1213,0.355,0.405
1214,0.345,0.405
1215,0.335,0.395
1216,0.335,0.395
1217,0.335,0.385
1218,0.325,0.385
1219,0.315,0.375
1220,0.305,0.365
1221,0.305,0.365
1222,0.295,0.355
1223,0.285,0.345
1224,0.285,0.335
1225,0.275,0.335
1226,0.275,0.335
1227,0.265,0.325
1228,0.265,0.325
1229,0.255,0.315
1230,0.245,0.315
1231,0.245,0.305
1232,0.235,0.305
1233,0.235,0.305
1234,0.225,0.295
1235,0.215,0.285
1236,0.215,0.285
1237,0.205,0.285
1238,0.205,0.275
1239,0.195,0.265
1240,0.185,0.265
1241,0.185,0.265
1242,0.175,0.265
1243,0.175,0.255
1244,0.175,0.245
1245,0.165,0.245
1246,0.155,0.245
1247,0.145,0.235
1248,0.145,0.235
1249,0.135,0.225
1250,0.135,0.225
1251,0.125,0.225
1252,0.125,0.215
1253,0.115,0.215
1254,0.105,0.205
1255,0.095,0.205
1256,0.095,0.195
1257,0.085,0.195
1258,0.085,0.185
1259,0.075,0.175
1260,0.065,0.165
1261,0.055,0.145
1262,0.025,0.145
1263,-0.285,-0.535
1264,-0.635,-0.515
1265,-0.625,-0.505
1266,-0.615,-0.495
1267,-0.615,-0.495
1268,-0.605,-0.485
1269,-0.595,-0.485
1270,-0.595,-0.475
1271,-0.585,-0.465
1272,-0.585,-0.455
1273,-0.575,-0.455
1274,-0.565,-0.445
1275,-0.565,-0.445
1276,-0.555,-0.435
1277,-0.545,-0.425
1278,-0.545,-0.415
1279,-0.525,-0.405
1280,-0.525,-0.405
1281,-0.515,-0.395
1282,-0.515,-0.385
1283,-0.515,-0.385
1284,-0.495,-0.385
1285,-0.495,-0.375
1286,-0.485,-0.365
1287,-0.485,-0.355
1288,-0.465,-0.345
1289,-0.465,-0.345
1290,-0.455,-0.345
1291,-0.455,-0.335
1292,-0.445,-0.325
1293,-0.435,-0.315
1294,-0.435,-0.315
1295,-0.435,-0.305
1296,-0.425,-0.305
1297,-0.425,-0.305
1298,-0.415,-0.295
1299,-0.405,-0.285
1300,-0.405,-0.285
1301,-0.395,-0.275
1302,-0.385,-0.265
1303,-0.385,-0.265
1304,-0.375,-0.255
1305,-0.365,-0.255
1306,-0.355,-0.245
1307,-0.355,-0.245
1308,-0.355,-0.235
1309,-0.345,-0.235
1310,-0.335,-0.225
1311,-0.335,-0.225
1312,-0.325,-0.215
1313,-0.325,-0.215
1314,-0.325,-0.205
1315,-0.315,-0.205
1316,-0.305,-0.195
1317,-0.295,-0.195
1318,-0.295,-0.185
1319,-0.285,-0.185
1320,-0.275,-0.175
1321,-0.275,-0.175
1322,-0.255,-0.155
1323,-0.255,-0.155
1324,-0.245,-0.145
1325,-0.235,-0.125
1326,-0.205,-0.125
1327,-0.005,0.535
1328,0.475,0.535
1329,0.435,0.515
1330,0.435,0.515
1331,0.425,0.505
1332,0.425,0.505
1333,0.415,0.495
1334,0.405,0.495
1335,0.395,0.485
1336,0.395,0.475
1337,0.395,0.475
1338,0.385,0.465
1339,0.375,0.465
1340,0.365,0.455
1341,0.365,0.445
1342,0.355,0.445
1343,0.345,0.435
1344,0.345,0.425
1345,0.335,0.425
1346,0.335,0.415
1347,0.325,0.405
1348,0.315,0.395
1349,0.305,0.395
1350,0.305,0.395
1351,0.305,0.385
1352,0.295,0.375
1353,0.285,0.365
1354,0.275,0.365
1355,0.275,0.365
1356,0.275,0.355
1357,0.265,0.345
1358,0.255,0.345
1359,0.245,0.335
1360,0.245,0.335
1361,0.235,0.325
1362,0.235,0.325
1363,0.235,0.315
1364,0.225,0.315
1365,0.215,0.315
1366,0.215,0.305
1367,0.205,0.305
1368,0.205,0.295
1369,0.195,0.285
1370,0.185,0.285
1371,0.175,0.285
1372,0.175,0.275
1373,0.165,0.275
1374,0.155,0.265
1375,0.155,0.255
1376,0.145,0.265
1377,0.145,0.255
1378,0.145,0.255
1379,0.125,0.245
1380,0.125,0.235
1381,0.125,0.235
1382,0.115,0.225
1383,0.105,0.225
1384,0.105,0.215
1385,0.095,0.205
1386,0.085,0.205
1387,0.075,0.195
1388,0.075,0.185
1389,0.055,0.165
1390,0.035,0.075
1391,-0.445,-0.525
1392,-0.635,-0.495
1393,-0.605,-0.485
1394,-0.605,-0.475
1395,-0.605,-0.475
1396,-0.595,-0.475
1397,-0.585,-0.465
1398,-0.585,-0.455
1399,-0.575,-0.445
1400,-0.565,-0.445
1401,-0.565,-0.435
1402,-0.555,-0.425
1403,-0.555,-0.415
1404,-0.545,-0.415
1405,-0.535,-0.405
1406,-0.535,-0.405
1407,-0.525,-0.395
1408,-0.515,-0.385
1409,-0.515,-0.375
1410,-0.505,-0.375
1411,-0.505,-0.365
1412,-0.495,-0.355
1413,-0.485,-0.345
1414,-0.475,-0.345
1415,-0.475,-0.335
1416,-0.455,-0.335
1417,-0.455,-0.325
1418,-0.455,-0.315
1419,-0.445,-0.315
1420,-0.435,-0.315
1421,-0.425,-0.305
1422,-0.425,-0.305
1423,-0.425,-0.295
1424,-0.415,-0.285
1425,-0.405,-0.285
1426,-0.395,-0.275
1427,-0.395,-0.275
1428,-0.385,-0.265
1429,-0.385,-0.265
1430,-0.375,-0.255
1431,-0.375,-0.255
1432,-0.365,-0.255
1433,-0.355,-0.245
1434,-0.345,-0.235
1435,-0.345,-0.235
1436,-0.345,-0.225
1437,-0.335,-0.225
1438,-0.335,-0.215
1439,-0.325,-0.215
1440,-0.325,-0.205
1441,-0.315,-0.205
1442,-0.305,-0.195
1443,-0.305,-0.185
1444,-0.295,-0.185
1445,-0.295,-0.185
1446,-0.285,-0.175
1447,-0.285,-0.175
1448,-0.275,-0.165
1449,-0.275,-0.165
1450,-0.255,-0.155
1451,-0.255,-0.145
1452,-0.235,-0.135
1453,-0.235,-0.115
1454,-0.215,-0.115
1455,-0.025,0.545
1456,0.455,0.545
1457,0.435,0.525
1458,0.425,0.525
1459,0.415,0.525
1460,0.415,0.515
1461,0.415,0.515
1462,0.405,0.505
1463,0.395,0.495
1464,0.395,0.485
1465,0.385,0.485
1466,0.385,0.475
1467,0.375,0.465
1468,0.365,0.465
1469,0.355,0.455
1470,0.345,0.445
1471,0.345,0.445
1472,0.335,0.425
1473,0.325,0.425
1474,0.325,0.425
1475,0.315,0.415
1476,0.315,0.415
1477,0.305,0.395
1478,0.305,0.395
1479,0.295,0.385
1480,0.295,0.385
1481,0.285,0.385
1482,0.275,0.375
1483,0.265,0.365
1484,0.265,0.365
1485,0.255,0.355
1486,0.245,0.355
1487,0.245,0.345
1488,0.235,0.345
1489,0.225,0.335
1490,0.225,0.335
1491,0.215,0.325
1492,0.215,0.315
1493,0.205,0.315
1494,0.205,0.315
1495,0.195,0.305
1496,0.195,0.305
1497,0.185,0.295
1498,0.185,0.285
1499,0.165,0.285
1500,0.165,0.285
1501,0.165,0.275
1502,0.155,0.275
1503,0.145,0.265
1504,0.145,0.265
1505,0.135,0.255
1506,0.135,0.255
1507,0.125,0.245
1508,0.115,0.245
1509,0.115,0.235
1510,0.115,0.235
1511,0.095,0.235
1512,0.095,0.225
1513,0.085,0.215
1514,0.085,0.215
1515,0.075,0.205
1516,0.065,0.195
1517,0.055,0.175
1518,0.035,0.165
1519,-0.115,-0.485
1520,-0.615,-0.495
1521,-0.605,-0.485
1522,-0.595,-0.475
1523,-0.585,-0.475
1524,-0.585,-0.465
1525,-0.575,-0.465
1526,-0.565,-0.455
1527,-0.565,-0.445
1528,-0.555,-0.435
1529,-0.545,-0.435
1530,-0.545,-0.425
1531,-0.535,-0.425
1532,-0.525,-0.415
1533,-0.515,-0.405
1534,-0.515,-0.395
1535,-0.505,-0.395
1536,-0.495,-0.385
1537,-0.495,-0.375
1538,-0.485,-0.365
1539,-0.485,-0.365
1540,-0.475,-0.355
1541,-0.465,-0.345
1542,-0.455,-0.345
1543,-0.455,-0.335
1544,-0.455,-0.335
1545,-0.445,-0.325
1546,-0.435,-0.325
1547,-0.435,-0.325
1548,-0.425,-0.305
1549,-0.425,-0.295
1550,-0.425,-0.295
1551,-0.415,-0.295
1552,-0.405,-0.285
1553,-0.405,-0.285
1554,-0.395,-0.265
1555,-0.395,-0.265
1556,-0.385,-0.265
1557,-0.385,-0.255
1558,-0.385,-0.245
1559,-0.375,-0.245
1560,-0.365,-0.235
1561,-0.365,-0.235
1562,-0.355,-0.235
1563,-0.355,-0.225
1564,-0.345,-0.215
1565,-0.335,-0.205
1566,-0.325,-0.215
1567,-0.325,-0.205
1568,-0.325,-0.195
1569,-0.315,-0.185
1570,-0.305,-0.185
1571,-0.315,-0.185
1572,-0.295,-0.175
1573,-0.285,-0.175
1574,-0.285,-0.165
1575,-0.285,-0.155
1576,-0.275,-0.165
1577,-0.275,-0.155
1578,-0.265,-0.145
1579,-0.255,-0.135
1580,-0.245,-0.125
1581,-0.235,-0.115
1582,-0.215,-0.115
1583,-0.045,0.555
1584,0.425,0.565
1585,0.415,0.545
1586,0.415,0.545
1587,0.405,0.535
1588,0.395,0.535
1589,0.395,0.525
1590,0.395,0.525
1591,0.385,0.515
1592,0.375,0.505
1593,0.375,0.495
1594,0.365,0.495
1595,0.355,0.485
1596,0.355,0.475
1597,0.345,0.465
1598,0.345,0.465
1599,0.335,0.465
1600,0.335,0.455
1601,0.315,0.445
1602,0.315,0.445
1603,0.315,0.435
1604,0.305,0.435
1605,0.295,0.425
1606,0.295,0.415
1607,0.285,0.415
1608,0.285,0.405
1609,0.275,0.395
1610,0.275,0.395
1611,0.265,0.385
1612,0.255,0.385
1613,0.255,0.385
1614,0.245,0.375
1615,0.235,0.365
1616,0.235,0.365
1617,0.225,0.355
1618,0.225,0.345
1619,0.215,0.345
1620,0.215,0.335
1621,0.205,0.335
1622,0.195,0.335
1623,0.185,0.325
1624,0.185,0.325
1625,0.175,0.315
1626,0.175,0.315
1627,0.165,0.305
1628,0.165,0.305
1629,0.155,0.295
1630,0.155,0.295
1631,0.135,0.285
1632,0.145,0.285
1633,0.135,0.285
1634,0.125,0.275
1635,0.115,0.265
1636,0.125,0.265
1637,0.105,0.265
1638,0.105,0.255
1639,0.095,0.255
1640,0.095,0.245
1641,0.085,0.235
1642,0.075,0.235
1643,0.065,0.225
1644,0.065,0.215
1645,0.045,0.195
1646,0.025,0.145
1647,-0.385,-0.495
1648,-0.645,-0.465
1649,-0.625,-0.445
1650,-0.615,-0.455
1651,-0.615,-0.445
1652,-0.605,-0.445
1653,-0.605,-0.435
1654,-0.595,-0.425
1655,-0.595,-0.435
1656,-0.585,-0.415
1657,-0.575,-0.415
1658,-0.565,-0.395
1659,-0.565,-0.395
1660,-0.555,-0.395
1661,-0.545,-0.395
1662,-0.545,-0.375
1663,-0.535,-0.375
1664,-0.525,-0.365
1665,-0.525,-0.365
1666,-0.515,-0.355
1667,-0.515,-0.345
1668,-0.505,-0.335
1669,-0.495,-0.335
1670,-0.495,-0.325
1671,-0.485,-0.315
1672,-0.475,-0.315
1673,-0.475,-0.305
1674,-0.465,-0.295
1675,-0.455,-0.305
1676,-0.445,-0.295
1677,-0.445,-0.285
1678,-0.435,-0.275
1679,-0.435,-0.275
1680,-0.425,-0.275
1681,-0.425,-0.265
1682,-0.415,-0.255
1683,-0.415,-0.255
1684,-0.395,-0.245
1685,-0.395,-0.245
1686,-0.395,-0.235
1687,-0.385,-0.235
1688,-0.375,-0.225
1689,-0.375,-0.225
1690,-0.365,-0.225
1691,-0.365,-0.215
1692,-0.355,-0.215
1693,-0.355,-0.215
1694,-0.335,-0.205
1695,-0.335,-0.195
1696,-0.325,-0.195
1697,-0.325,-0.185
1698,-0.325,-0.185
1699,-0.315,-0.175
1700,-0.295,-0.175
1701,-0.305,-0.175
1702,-0.295,-0.165
1703,-0.295,-0.165
1704,-0.285,-0.155
1705,-0.265,-0.155
1706,-0.265,-0.145
1707,-0.255,-0.135
1708,-0.245,-0.135
1709,-0.235,-0.115
1710,-0.215,-0.105
1711,-0.195,0.445
1712,0.415,0.565
1713,0.425,0.545
1714,0.415,0.545
1715,0.415,0.535
1716,0.415,0.525
1717,0.405,0.515
1718,0.395,0.515
1719,0.395,0.505
1720,0.385,0.495
1721,0.385,0.495
1722,0.375,0.475
1723,0.365,0.475
1724,0.365,0.465
1725,0.355,0.465
1726,0.345,0.455
1727,0.335,0.445
1728,0.335,0.435
1729,0.325,0.435
1730,0.315,0.425
1731,0.305,0.415
1732,0.305,0.405
1733,0.305,0.405
1734,0.295,0.395
1735,0.285,0.385
1736,0.275,0.385
1737,0.275,0.375
1738,0.265,0.375
1739,0.265,0.365
1740,0.255,0.355
1741,0.255,0.355
1742,0.245,0.345
1743,0.235,0.345
1744,0.235,0.335
1745,0.225,0.325
1746,0.225,0.325
1747,0.215,0.325
1748,0.215,0.315
1749,0.205,0.315
1750,0.205,0.305
1751,0.195,0.295
1752,0.185,0.295
1753,0.185,0.295
1754,0.185,0.285
1755,0.175,0.285
1756,0.165,0.275
1757,0.155,0.265
1758,0.155,0.265
1759,0.145,0.255
1760,0.145,0.255
1761,0.135,0.245
1762,0.135,0.245
1763,0.125,0.235
1764,0.125,0.235
1765,0.115,0.235
1766,0.105,0.215
1767,0.095,0.215
1768,0.095,0.205
1769,0.085,0.205
1770,0.085,0.205
1771,0.075,0.185
1772,0.065,0.185
1773,0.055,0.165
1774,0.025,0.115
1775,-0.415,-0.535
1776,-0.645,-0.505
1777,-0.625,-0.495
1778,-0.615,-0.495
1779,-0.615,-0.485
1780,-0.605,-0.485
1781,-0.605,-0.485
1782,-0.595,-0.465
1783,-0.595,-0.465
1784,-0.585,-0.455
1785,-0.575,-0.445
1786,-0.575,-0.445
1787,-0.565,-0.435
1788,-0.565,-0.435
1789,-0.555,-0.425
1790,-0.545,-0.415
1791,-0.535,-0.415
1792,-0.535,-0.405
1793,-0.525,-0.395
1794,-0.515,-0.385
1795,-0.515,-0.385
1796,-0.505,-0.385
1797,-0.495,-0.375
1798,-0.485,-0.365
1799,-0.485,-0.355
1800,-0.475,-0.345
1801,-0.465,-0.345
1802,-0.465,-0.345
1803,-0.455,-0.335
1804,-0.455,-0.325
1805,-0.445,-0.325
1806,-0.435,-0.325
1807,-0.435,-0.315
1808,-0.425,-0.305
1809,-0.415,-0.295
1810,-0.415,-0.295
1811,-0.405,-0.295
1812,-0.395,-0.285
1813,-0.395,-0.275
1814,-0.385,-0.275
1815,-0.385,-0.265
1816,-0.375,-0.265
1817,-0.375,-0.255
1818,-0.365,-0.255
1819,-0.365,-0.245
1820,-0.345,-0.245
1821,-0.345,-0.235
1822,-0.335,-0.235
1823,-0.335,-0.235
1824,-0.325,-0.225
1825,-0.325,-0.215
1826,-0.315,-0.215
1827,-0.315,-0.215
1828,-0.295,-0.215
1829,-0.295,-0.205
1830,-0.285,-0.195
1831,-0.285,-0.195
1832,-0.275,-0.185
1833,-0.265,-0.185
1834,-0.265,-0.175
1835,-0.255,-0.165
1836,-0.245,-0.155
1837,-0.225,-0.135
1838,-0.195,-0.085
1839,0.225,0.545
1840,0.465,0.525
1841,0.435,0.515
1842,0.425,0.505
1843,0.425,0.495
1844,0.425,0.495
1845,0.415,0.485
1846,0.405,0.485
1847,0.405,0.485
1848,0.405,0.465
1849,0.385,0.465
1850,0.385,0.465
1851,0.375,0.445
1852,0.375,0.445
1853,0.365,0.435
1854,0.355,0.425
1855,0.345,0.425
1856,0.345,0.415
1857,0.335,0.405
1858,0.335,0.405
1859,0.315,0.395
1860,0.325,0.395
1861,0.315,0.385
1862,0.315,0.375
1863,0.305,0.365
1864,0.295,0.365
1865,0.285,0.355
1866,0.285,0.355
1867,0.275,0.345
1868,0.275,0.345
1869,0.275,0.345
1870,0.265,0.335
1871,0.255,0.325
1872,0.255,0.315
1873,0.245,0.315
1874,0.245,0.315
1875,0.235,0.305
1876,0.235,0.305
1877,0.225,0.295
1878,0.215,0.285
1879,0.205,0.285
1880,0.205,0.285
1881,0.205,0.275
1882,0.195,0.275
1883,0.185,0.265
1884,0.185,0.265
1885,0.175,0.255
1886,0.165,0.255
1887,0.165,0.245
1888,0.165,0.245
1889,0.155,0.235
1890,0.145,0.235
1891,0.135,0.235
1892,0.135,0.225
1893,0.135,0.215
1894,0.125,0.215
1895,0.115,0.205
1896,0.105,0.205
1897,0.105,0.195
1898,0.105,0.195
1899,0.085,0.185
1900,0.075,0.165
1901,0.065,0.155
1902,0.045,0.155
1903,-0.305,-0.535
1904,-0.645,-0.515
1905,-0.615,-0.515
1906,-0.605,-0.505
1907,-0.605,-0.505
1908,-0.595,-0.495
1909,-0.595,-0.485
1910,-0.585,-0.475
1911,-0.575,-0.475
1912,-0.575,-0.465
1913,-0.565,-0.465
1914,-0.555,-0.455
1915,-0.555,-0.445
1916,-0.535,-0.435
1917,-0.535,-0.435
1918,-0.525,-0.425
1919,-0.525,-0.425
1920,-0.515,-0.405
1921,-0.505,-0.395
1922,-0.495,-0.405
1923,-0.495,-0.395
1924,-0.485,-0.385
1925,-0.485,-0.375
1926,-0.475,-0.365
1927,-0.475,-0.375
1928,-0.455,-0.355
1929,-0.455,-0.355
1930,-0.445,-0.345
1931,-0.445,-0.345
1932,-0.435,-0.335
1933,-0.425,-0.335
1934,-0.415,-0.325
1935,-0.415,-0.315
1936,-0.405,-0.315
1937,-0.405,-0.305
1938,-0.395,-0.305
1939,-0.395,-0.305
1940,-0.385,-0.295
1941,-0.375,-0.285
1942,-0.375,-0.285
1943,-0.365,-0.275
1944,-0.355,-0.275
1945,-0.345,-0.265
1946,-0.345,-0.265
1947,-0.345,-0.255
1948,-0.325,-0.255
1949,-0.325,-0.255
1950,-0.325,-0.245
1951,-0.325,-0.235
1952,-0.315,-0.235
1953,-0.305,-0.235
1954,-0.295,-0.225
1955,-0.305,-0.215
1956,-0.295,-0.215
1957,-0.285,-0.215
1958,-0.275,-0.205
1959,-0.275,-0.205
1960,-0.265,-0.185
1961,-0.255,-0.185
1962,-0.255,-0.175
1963,-0.245,-0.175
1964,-0.235,-0.165
1965,-0.225,-0.145
1966,-0.195,-0.085
1967,0.285,0.545
1968,0.475,0.525
1969,0.445,0.505
1970,0.435,0.505
1971,0.435,0.495
1972,0.425,0.495
1973,0.425,0.485
1974,0.415,0.475
1975,0.405,0.475
1976,0.405,0.465
1977,0.395,0.455
1978,0.395,0.445
1979,0.385,0.445
1980,0.385,0.435
1981,0.365,0.435
1982,0.365,0.425
1983,0.365,0.425
1984,0.355,0.415
1985,0.345,0.405
1986,0.335,0.395
1987,0.335,0.385
1988,0.325,0.385
1989,0.315,0.375
1990,0.315,0.375
1991,0.305,0.365
1992,0.295,0.365
1993,0.295,0.355
1994,0.295,0.345
1995,0.275,0.345
1996,0.285,0.335
1997,0.275,0.335
1998,0.265,0.335
1999,0.255,0.315
2000,0.255,0.315
2001,0.245,0.315
2002,0.245,0.305
2003,0.235,0.305
2004,0.235,0.295
2005,0.225,0.285
2006,0.225,0.285
2007,0.205,0.285
2008,0.215,0.275
2009,0.205,0.265
2010,0.195,0.265
2011,0.195,0.265
2012,0.185,0.255
2013,0.175,0.255
2014,0.175,0.245
2015,0.165,0.235
2016,0.155,0.235
2017,0.145,0.235
2018,0.145,0.235
2019,0.145,0.225
2020,0.135,0.215
2021,0.135,0.215
2022,0.125,0.205
2023,0.115,0.205
2024,0.115,0.195
2025,0.105,0.185
2026,0.105,0.185
2027,0.085,0.175
2028,0.085,0.175
2029,0.075,0.145
2030,0.045,0.145
2031,-0.155,-0.525
2032,-0.605,-0.525
2033,-0.585,-0.515
2034,-0.585,-0.515
2035,-0.575,-0.505
2036,-0.565,-0.505
2037,-0.565,-0.495
2038,-0.565,-0.485
2039,-0.555,-0.485
2040,-0.545,-0.485
2041,-0.535,-0.475
2042,-0.535,-0.465
2043,-0.525,-0.455
2044,-0.515,-0.445
2045,-0.515,-0.445
2046,-0.505,-0.435
2047,-0.495,-0.425
2048,-0.485,-0.425
2049,-0.485,-0.415
2050,-0.485,-0.405
2051,-0.475,-0.405
2052,-0.465,-0.395
2053,-0.465,-0.395
2054,-0.455,-0.375
2055,-0.455,-0.375
2056,-0.435,-0.365
2057,-0.435,-0.365
2058,-0.425,-0.355
2059,-0.425,-0.345
2060,-0.415,-0.345
2061,-0.415,-0.335
2062,-0.405,-0.335
2063,-0.405,-0.335
2064,-0.395,-0.325
2065,-0.385,-0.315
2066,-0.385,-0.305
2067,-0.385,-0.305
2068,-0.365,-0.305
2069,-0.365,-0.295
2070,-0.355,-0.295
2071,-0.355,-0.285
2072,-0.345,-0.285
2073,-0.345,-0.285
2074,-0.335,-0.275
2075,-0.335,-0.265
2076,-0.325,-0.255
2077,-0.325,-0.255
2078,-0.305,-0.255
2079,-0.305,-0.255
2080,-0.295,-0.245
2081,-0.285,-0.235
2082,-0.285,-0.235
2083,-0.285,-0.235
2084,-0.275,-0.225
2085,-0.275,-0.225
2086,-0.265,-0.215
2087,-0.255,-0.215
2088,-0.245,-0.205
2089,-0.235,-0.195
2090,-0.225,-0.185
2091,-0.235,-0.185
2092,-0.215,-0.175
2093,-0.205,-0.155
2094,-0.185,0.135
2095,0.415,0.525
2096,0.465,0.505
2097,0.455,0.485
2098,0.445,0.485
2099,0.435,0.485
2100,0.435,0.465
2101,0.425,0.465
2102,0.425,0.465
2103,0.415,0.455
2104,0.405,0.445
2105,0.405,0.435
2106,0.395,0.435
2107,0.385,0.425
2108,0.385,0.425
2109,0.375,0.415
2110,0.365,0.405
2111,0.355,0.405
2112,0.355,0.395
2113,0.345,0.395
2114,0.345,0.385
2115,0.335,0.365
2116,0.335,0.365
2117,0.325,0.365
2118,0.315,0.355
2119,0.315,0.345
2120,0.315,0.335
2121,0.295,0.335
2122,0.295,0.335
2123,0.285,0.325
2124,0.285,0.325
2125,0.285,0.315
2126,0.275,0.305
2127,0.265,0.305
2128,0.265,0.295
2129,0.255,0.295
2130,0.265,0.295
2131,0.245,0.285
2132,0.245,0.275
2133,0.235,0.275
2134,0.225,0.275
2135,0.225,0.265
2136,0.225,0.255
2137,0.215,0.255
2138,0.205,0.255
2139,0.195,0.255
2140,0.195,0.235
2141,0.185,0.235
2142,0.185,0.235
2143,0.175,0.225
2144,0.175,0.225
2145,0.165,0.215
2146,0.155,0.215
2147,0.155,0.205
2148,0.145,0.205
2149,0.145,0.195
2150,0.135,0.195
2151,0.135,0.185
2152,0.125,0.185
2153,0.115,0.175
2154,0.115,0.175
2155,0.105,0.165
2156,0.095,0.155
2157,0.075,0.135
2158,0.045,0.025
2159,-0.535,-0.555
2160,-0.615,-0.525
2161,-0.595,-0.515
2162,-0.585,-0.515
2163,-0.585,-0.505
2164,-0.585,-0.505
2165,-0.585,-0.505
2166,-0.565,-0.495
2167,-0.565,-0.485
2168,-0.555,-0.475
2169,-0.555,-0.465
2170,-0.535,-0.455
2171,-0.535,-0.455
2172,-0.525,-0.455
2173,-0.525,-0.435
2174,-0.515,-0.435
2175,-0.515,-0.425
2176,-0.495,-0.415
2177,-0.495,-0.415
2178,-0.485,-0.405
2179,-0.475,-0.395
2180,-0.465,-0.395
2181,-0.465,-0.385
2182,-0.455,-0.385
2183,-0.455,-0.375
2184,-0.445,-0.365
2185,-0.435,-0.355
2186,-0.435,-0.355
2187,-0.425,-0.355
2188,-0.415,-0.345
2189,-0.415,-0.335
2190,-0.405,-0.335
2191,-0.405,-0.315
2192,-0.395,-0.325
2193,-0.385,-0.315
2194,-0.375,-0.305
2195,-0.375,-0.295
2196,-0.365,-0.295
2197,-0.355,-0.295
2198,-0.355,-0.295
2199,-0.345,-0.285
2200,-0.345,-0.275
2201,-0.335,-0.265
2202,-0.325,-0.265
2203,-0.315,-0.255
2204,-0.315,-0.255
2205,-0.305,-0.245
2206,-0.295,-0.245
2207,-0.295,-0.235
2208,-0.285,-0.235
2209,-0.285,-0.235
2210,-0.275,-0.215
2211,-0.275,-0.215
2212,-0.255,-0.215
2213,-0.255,-0.215
2214,-0.245,-0.195
2215,-0.245,-0.195
2216,-0.245,-0.195
2217,-0.235,-0.185
2218,-0.225,-0.175
2219,-0.215,-0.165
2220,-0.205,-0.155
2221,-0.195,-0.145
2222,-0.165,-0.145
2223,0.145,0.535
2224,0.485,0.525
2225,0.465,0.515
2226,0.455,0.515
2227,0.445,0.505
2228,0.445,0.495
2229,0.435,0.495
2230,0.435,0.495
2231,0.425,0.485
2232,0.425,0.475
2233,0.415,0.475
2234,0.415,0.455
2235,0.395,0.455
2236,0.395,0.445
2237,0.385,0.435
2238,0.375,0.435
2239,0.375,0.425
2240,0.375,0.415
2241,0.375,0.415
2242,0.355,0.405
2243,0.355,0.405
2244,0.355,0.395
2245,0.345,0.395
2246,0.345,0.385
2247,0.335,0.375
2248,0.335,0.375
2249,0.315,0.375
2250,0.315,0.355
2251,0.305,0.355
2252,0.315,0.355
2253,0.305,0.345
2254,0.295,0.345
2255,0.295,0.335
2256,0.295,0.325
2257,0.285,0.325
2258,0.285,0.315
2259,0.265,0.315
2260,0.265,0.315
2261,0.265,0.305
2262,0.255,0.295
2263,0.245,0.295
2264,0.245,0.295
2265,0.245,0.295
2266,0.235,0.275
2267,0.225,0.275
2268,0.225,0.265
2269,0.215,0.275
2270,0.215,0.265
2271,0.205,0.255
2272,0.205,0.255
2273,0.205,0.255
2274,0.185,0.255
2275,0.175,0.245
2276,0.185,0.235
2277,0.175,0.235
2278,0.175,0.225
2279,0.155,0.225
2280,0.155,0.215
2281,0.145,0.205
2282,0.145,0.205
2283,0.135,0.195
2284,0.125,0.185
2285,0.105,0.165
2286,0.075,-0.015
2287,-0.515,-0.535
2288,-0.575,-0.505
2289,-0.565,-0.485
2290,-0.555,-0.485
2291,-0.555,-0.485
2292,-0.545,-0.475
2293,-0.535,-0.475
2294,-0.535,-0.465
2295,-0.535,-0.455
2296,-0.515,-0.445
2297,-0.515,-0.445
2298,-0.505,-0.435
2299,-0.505,-0.425
2300,-0.485,-0.415
2301,-0.485,-0.415
2302,-0.475,-0.405
2303,-0.465,-0.405
2304,-0.455,-0.395
2305,-0.455,-0.385
2306,-0.445,-0.385
2307,-0.445,-0.375
2308,-0.425,-0.375
2309,-0.425,-0.365
2310,-0.415,-0.355
2311,-0.415,-0.345
2312,-0.405,-0.345
2313,-0.395,-0.345
2314,-0.395,-0.335
2315,-0.385,-0.335
2316,-0.385,-0.315
2317,-0.375,-0.315
2318,-0.365,-0.315
2319,-0.365,-0.305
2320,-0.355,-0.305
2321,-0.345,-0.285
2322,-0.345,-0.285
2323,-0.335,-0.295
2324,-0.325,-0.285
2325,-0.325,-0.275
2326,-0.325,-0.265
2327,-0.305,-0.255
2328,-0.305,-0.265
2329,-0.295,-0.255
2330,-0.285,-0.245
2331,-0.285,-0.245
2332,-0.275,-0.235
2333,-0.275,-0.235
2334,-0.265,-0.225
2335,-0.255,-0.225
2336,-0.245,-0.215
2337,-0.245,-0.205
2338,-0.235,-0.205
2339,-0.235,-0.205
2340,-0.225,-0.195
2341,-0.225,-0.195
2342,-0.215,-0.185
2343,-0.215,-0.185
2344,-0.205,-0.175
2345,-0.195,-0.175
2346,-0.185,-0.165
2347,-0.175,-0.155
2348,-0.165,-0.145
2349,-0.135,-0.125
2350,-0.115,0.135
2351,0.485,0.565
2352,0.535,0.535
2353,0.525,0.525
2354,0.515,0.515
2355,0.505,0.505
2356,0.505,0.505
2357,0.495,0.495
2358,0.485,0.495
2359,0.485,0.485
2360,0.485,0.475
2361,0.475,0.475
2362,0.475,0.465
2363,0.465,0.455
2364,0.455,0.445
2365,0.455,0.445
2366,0.445,0.435
2367,0.435,0.435
2368,0.435,0.425
2369,0.425,0.415
2370,0.425,0.405
2371,0.415,0.405
2372,0.415,0.395
2373,0.405,0.385
2374,0.395,0.385
2375,0.385,0.375
2376,0.385,0.375
2377,0.375,0.365
2378,0.375,0.365
2379,0.365,0.355
2380,0.375,0.345
2381,0.365,0.345
2382,0.355,0.345
2383,0.345,0.335
2384,0.345,0.325
2385,0.335,0.315
2386,0.335,0.315
2387,0.325,0.315
2388,0.315,0.305
2389,0.315,0.295
2390,0.315,0.295
2391,0.305,0.295
2392,0.295,0.285
2393,0.295,0.275
2394,0.295,0.275
2395,0.285,0.265
2396,0.275,0.265
2397,0.275,0.255
2398,0.265,0.255
2399,0.265,0.255
2400,0.265,0.245
2401,0.245,0.235
2402,0.245,0.235
2403,0.245,0.225
2404,0.245,0.235
2405,0.235,0.215
2406,0.225,0.215
2407,0.215,0.205
2408,0.215,0.205
2409,0.205,0.195
2410,0.205,0.185
2411,0.185,0.175
2412,0.185,0.165
2413,0.165,0.155
2414,0.145,0.115
2415,-0.425,-0.545
2416,-0.535,-0.515
2417,-0.505,-0.515
2418,-0.505,-0.505
2419,-0.495,-0.505
2420,-0.485,-0.495
2421,-0.485,-0.485
2422,-0.465,-0.485
2423,-0.465,-0.485
2424,-0.455,-0.475
2425,-0.455,-0.455
2426,-0.445,-0.455
2427,-0.435,-0.445
2428,-0.425,-0.445
2429,-0.415,-0.435
2430,-0.415,-0.435
2431,-0.405,-0.425
2432,-0.395,-0.415
2433,-0.385,-0.405
2434,-0.385,-0.405
2435,-0.375,-0.405
2436,-0.365,-0.395
2437,-0.365,-0.385
2438,-0.355,-0.375
2439,-0.355,-0.375
2440,-0.335,-0.365
2441,-0.335,-0.365
2442,-0.325,-0.355
2443,-0.325,-0.355
2444,-0.305,-0.355
2445,-0.305,-0.345
2446,-0.305,-0.335
2447,-0.305,-0.335
2448,-0.285,-0.335
2449,-0.275,-0.325
2450,-0.275,-0.315
2451,-0.265,-0.315
2452,-0.255,-0.315
2453,-0.255,-0.305
2454,-0.245,-0.305
2455,-0.245,-0.295
2456,-0.225,-0.295
2457,-0.225,-0.285
2458,-0.225,-0.285
2459,-0.215,-0.285
2460,-0.205,-0.275
2461,-0.205,-0.275
2462,-0.195,-0.265
2463,-0.195,-0.265
2464,-0.175,-0.265
2465,-0.175,-0.255
2466,-0.165,-0.245
2467,-0.165,-0.245
2468,-0.155,-0.235
2469,-0.145,-0.235
2470,-0.135,-0.225
2471,-0.135,-0.225
2472,-0.125,-0.215
2473,-0.125,-0.205
2474,-0.115,-0.215
2475,-0.105,-0.205
2476,-0.095,-0.185
2477,-0.075,-0.175
2478,-0.045,-0.025
2479,0.515,0.515
2480,0.595,0.485
2481,0.575,0.475
2482,0.575,0.465
2483,0.565,0.465
2484,0.565,0.455
2485,0.565,0.445
2486,0.555,0.445
2487,0.545,0.445
2488,0.545,0.425
2489,0.545,0.415
2490,0.535,0.415
2491,0.525,0.405
2492,0.525,0.395
2493,0.505,0.395
2494,0.505,0.385
2495,0.495,0.375
2496,0.495,0.365
2497,0.485,0.365
2498,0.475,0.355
2499,0.465,0.345
2500,0.465,0.345
2501,0.465,0.335
2502,0.455,0.325
2503,0.445,0.325
2504,0.445,0.315
2505,0.435,0.305
2506,0.435,0.305
2507,0.425,0.295
2508,0.425,0.295
2509,0.415,0.285
2510,0.405,0.285
2511,0.405,0.265
2512,0.405,0.265
2513,0.395,0.265
2514,0.385,0.255
2515,0.375,0.255
2516,0.375,0.245
2517,0.375,0.235
2518,0.365,0.235
2519,0.355,0.235
2520,0.355,0.225
2521,0.355,0.215
2522,0.345,0.215
2523,0.335,0.205
2524,0.335,0.205
2525,0.325,0.205
2526,0.315,0.195
2527,0.315,0.185
2528,0.315,0.185
2529,0.305,0.185
2530,0.305,0.175
2531,0.295,0.165
2532,0.295,0.165
2533,0.285,0.155
2534,0.275,0.155
2535,0.265,0.145
2536,0.265,0.145
2537,0.265,0.135
2538,0.255,0.125
2539,0.245,0.125
2540,0.235,0.105
2541,0.215,0.095
2542,0.195,-0.135
2543,-0.415,-0.615
2544,-0.455,-0.575
2545,-0.435,-0.565
2546,-0.425,-0.565
2547,-0.415,-0.565
2548,-0.405,-0.565
2549,-0.405,-0.555
2550,-0.395,-0.545
2551,-0.385,-0.545
2552,-0.375,-0.535
2553,-0.365,-0.525
2554,-0.355,-0.515
2555,-0.345,-0.515
2556,-0.335,-0.515
2557,-0.325,-0.505
2558,-0.315,-0.495
2559,-0.305,-0.485
2560,-0.295,-0.485
2561,-0.285,-0.485
2562,-0.275,-0.475
2563,-0.265,-0.465
2564,-0.255,-0.465
2565,-0.255,-0.455
2566,-0.235,-0.455
2567,-0.225,-0.445
2568,-0.215,-0.445
2569,-0.205,-0.435
2570,-0.195,-0.425
2571,-0.185,-0.425
2572,-0.175,-0.425
2573,-0.165,-0.415
2574,-0.155,-0.405
2575,-0.155,-0.405
2576,-0.145,-0.395
2577,-0.135,-0.395
2578,-0.125,-0.385
2579,-0.115,-0.385
2580,-0.105,-0.385
2581,-0.095,-0.375
2582,-0.085,-0.365
2583,-0.085,-0.365
2584,-0.075,-0.365
2585,-0.065,-0.355
2586,-0.065,-0.355
2587,-0.075,-0.345
2588,-0.065,-0.345
2589,-0.055,-0.345
2590,-0.055,-0.335
2591,-0.055,-0.335
2592,-0.045,-0.335
2593,-0.035,-0.325
2594,-0.035,-0.325
2595,-0.035,-0.315
2596,-0.025,-0.315
2597,-0.015,-0.315
2598,-0.005,-0.305
2599,-0.005,-0.295
2600,0.005,-0.305
2601,0.015,-0.295
2602,0.015,-0.285
2603,0.015,-0.285
2604,0.035,-0.265
2605,0.045,-0.255
2606,0.055,0.165
2607,0.555,0.425
2608,0.555,0.405
2609,0.545,0.395
2610,0.545,0.385
2611,0.545,0.375
2612,0.545,0.365
2613,0.535,0.365
2614,0.535,0.355
2615,0.525,0.345
2616,0.535,0.335
2617,0.525,0.325
2618,0.525,0.325
2619,0.515,0.315
2620,0.515,0.305
2621,0.515,0.295
2622,0.515,0.295
2623,0.505,0.285
2624,0.505,0.275
2625,0.505,0.265
2626,0.495,0.255
2627,0.495,0.245
2628,0.495,0.245
2629,0.485,0.235
2630,0.485,0.225
2631,0.475,0.215
2632,0.485,0.205
2633,0.485,0.205
2634,0.485,0.205
2635,0.475,0.195
2636,0.475,0.185
2637,0.475,0.175
2638,0.465,0.175
2639,0.465,0.165
2640,0.465,0.155
2641,0.455,0.155
2642,0.455,0.145
2643,0.455,0.135
2644,0.455,0.135
2645,0.445,0.125
2646,0.445,0.115
2647,0.445,0.115
2648,0.435,0.105
2649,0.435,0.105
2650,0.435,0.095
2651,0.425,0.085
2652,0.425,0.075
2653,0.425,0.075
2654,0.425,0.075
2655,0.405,0.065
2656,0.425,0.065
2657,0.415,0.055
2658,0.415,0.045
2659,0.405,0.045
2660,0.405,0.025
2661,0.405,0.025
2662,0.395,0.015
2663,0.395,0.015
2664,0.395,0.005
2665,0.395,0.005
2666,0.385,-0.005
2667,0.375,-0.015
2668,0.375,-0.025
2669,0.355,-0.045
2670,0.335,-0.215
2671,-0.125,-0.735
2672,-0.165,-0.715
2673,-0.145,-0.705
2674,-0.145,-0.695
2675,-0.145,-0.695
2676,-0.135,-0.685
2677,-0.125,-0.695
2678,-0.125,-0.685
2679,-0.115,-0.675
2680,-0.105,-0.665
2681,-0.105,-0.655
2682,-0.095,-0.655
2683,-0.095,-0.655
2684,-0.075,-0.645
2685,-0.075,-0.635
2686,-0.065,-0.625
2687,-0.065,-0.625
2688,-0.055,-0.615
2689,-0.045,-0.615
2690,-0.045,-0.605
2691,-0.045,-0.595
2692,-0.035,-0.595
2693,-0.025,-0.595
2694,-0.015,-0.585
2695,-0.015,-0.575
2696,-0.005,-0.565
2697,-0.005,-0.575
2698,0.005,-0.565
2699,0.005,-0.565
2700,0.015,-0.555
2701,0.025,-0.545
2702,0.025,-0.545
2703,0.025,-0.535
2704,0.035,-0.535
2705,0.045,-0.525
2706,0.045,-0.525
2707,0.055,-0.515
2708,0.055,-0.515
2709,0.065,-0.515
2710,0.065,-0.505
2711,0.065,-0.505
2712,0.085,-0.495
2713,0.085,-0.485
2714,0.085,-0.495
2715,0.095,-0.485
2716,0.105,-0.485
2717,0.105,-0.475
2718,0.115,-0.465
2719,0.105,-0.455
2720,0.125,-0.465
2721,0.125,-0.455
2722,0.125,-0.445
2723,0.125,-0.445
2724,0.135,-0.435
2725,0.145,-0.435
2726,0.145,-0.425
2727,0.145,-0.415
2728,0.155,-0.415
2729,0.165,-0.405
2730,0.165,-0.405
2731,0.175,-0.395
2732,0.185,-0.385
2733,0.195,-0.365
2734,0.235,-0.245
2735,0.645,0.325
2736,0.715,0.295
2737,0.705,0.285
2738,0.705,0.285
2739,0.695,0.275
2740,0.705,0.275
2741,0.695,0.265
2742,0.685,0.265
2743,0.675,0.265
2744,0.675,0.245
2745,0.665,0.245
2746,0.665,0.245
2747,0.655,0.245
2748,0.645,0.235
2749,0.635,0.225
2750,0.635,0.225
2751,0.625,0.215
2752,0.615,0.215
2753,0.605,0.205
2754,0.595,0.205
2755,0.595,0.195
2756,0.585,0.195
2757,0.575,0.195
2758,0.565,0.195
2759,0.555,0.185
2760,0.555,0.175
2761,0.545,0.175
2762,0.535,0.175
2763,0.525,0.175
2764,0.515,0.165
2765,0.515,0.155
2766,0.505,0.155
2767,0.495,0.155
2768,0.485,0.155
2769,0.475,0.145
2770,0.475,0.145
2771,0.465,0.135
2772,0.455,0.135
2773,0.455,0.125
2774,0.435,0.125
2775,0.435,0.125
2776,0.425,0.125
2777,0.415,0.115
2778,0.405,0.115
2779,0.395,0.115
2780,0.395,0.125
2781,0.385,0.115
2782,0.385,0.115
2783,0.375,0.115
2784,0.365,0.115
2785,0.355,0.115
2786,0.355,0.115
2787,0.345,0.115
2788,0.335,0.105
2789,0.325,0.105
2790,0.315,0.105
2791,0.315,0.105
2792,0.315,0.105
2793,0.305,0.095
2794,0.295,0.095
2795,0.275,0.085
2796,0.265,0.075
2797,0.245,0.055
2798,0.225,-0.335
2799,-0.295,-0.595
2800,-0.295,-0.575
2801,-0.285,-0.575
2802,-0.285,-0.565
2803,-0.285,-0.565
2804,-0.275,-0.555
2805,-0.275,-0.545
2806,-0.275,-0.525
2807,-0.275,-0.525
2808,-0.265,-0.515
2809,-0.255,-0.505
2810,-0.255,-0.495
2811,-0.265,-0.485
2812,-0.255,-0.475
2813,-0.255,-0.475
2814,-0.245,-0.465
2815,-0.255,-0.455
2816,-0.245,-0.445
2817,-0.245,-0.435
2818,-0.235,-0.425
2819,-0.245,-0.415
2820,-0.235,-0.415
2821,-0.235,-0.395
2822,-0.235,-0.395
2823,-0.235,-0.385
2824,-0.225,-0.375
2825,-0.215,-0.365
2826,-0.215,-0.345
2827,-0.215,-0.345
2828,-0.215,-0.345
2829,-0.215,-0.335
2830,-0.205,-0.325
2831,-0.205,-0.315
2832,-0.205,-0.315
2833,-0.205,-0.305
2834,-0.195,-0.295
2835,-0.195,-0.295
2836,-0.195,-0.285
2837,-0.195,-0.275
2838,-0.195,-0.265
2839,-0.195,-0.265
2840,-0.185,-0.265
2841,-0.185,-0.245
2842,-0.185,-0.245
2843,-0.185,-0.235
2844,-0.175,-0.225
2845,-0.175,-0.225
2846,-0.185,-0.215
2847,-0.185,-0.215
2848,-0.175,-0.205
2849,-0.185,-0.195
2850,-0.175,-0.195
2851,-0.185,-0.185
2852,-0.175,-0.175
2853,-0.185,-0.165
2854,-0.175,-0.155
2855,-0.185,-0.165
2856,-0.175,-0.155
2857,-0.175,-0.145
2858,-0.175,-0.135
2859,-0.185,-0.125
2860,-0.175,-0.115
2861,-0.165,-0.095
2862,-0.165,0.145
2863,0.345,0.595
2864,0.365,0.575
2865,0.345,0.565
2866,0.335,0.555
2867,0.325,0.555
2868,0.315,0.555
2869,0.295,0.555
2870,0.285,0.545
2871,0.265,0.545
2872,0.245,0.535
2873,0.225,0.545
2874,0.175,0.555
2875,0.065,0.560
2876,-1.525,1.810
2877,-1.805,1.760
2878,-1.755,1.750
2879,-1.775,1.750
2880,-1.785,1.750
2881,-1.785,1.750
2882,-1.795,1.750
2883,-1.805,1.740
2884,-1.805,1.740
2885,-1.815,1.750
2886,-1.805,1.740
2887,-1.805,1.735
2888,-1.805,1.735
2889,-1.805,1.735
2890,-1.805,1.735
2891,-1.805,1.720
2892,-1.805,1.710
2893,-1.805,1.710
2894,-1.815,1.700
2895,-1.815,1.685
2896,-1.805,1.675
2897,-1.815,1.655
2898,-1.815,1.655
2899,-1.815,1.630
2900,-1.805,1.590
2901,-1.815,1.580
2902,-1.805,1.560
2903,-1.805,1.555
2904,-1.795,1.545
2905,-1.805,1.535
2906,-1.805,1.515
2907,-1.805,1.460
2908,-1.795,1.500
2909,-1.795,1.480
2910,-1.795,1.430
2911,-1.795,1.425
2912,-1.785,1.405
2913,-1.795,1.365
2914,-1.775,1.395
2915,-1.785,1.360
2916,-1.775,1.350
2917,-1.765,1.320
2918,-1.765,1.310
2919,-1.755,1.315
2920,-1.755,1.285
2921,-1.755,1.285
2922,-1.745,1.295
2923,-1.745,1.280
2924,-1.735,1.260
2925,-1.725,1.240
2926,-1.715,1.220
2927,-1.715,1.175
2928,-1.715,1.155
2929,-1.695,1.175
2930,-1.695,1.145
2931,-1.695,1.110
2932,-1.685,1.080
2933,-1.675,1.070
2934,-1.675,1.060
2935,-1.675,0.985
2936,-1.665,1.055
2937,-1.675,1.105
2938,-1.665,1.255
2939,-1.635,1.350
2940,-1.575,1.200
2941,-1.525,0.390
2942,-1.605,0.420
2943,-1.625,0.735
2944,-1.615,0.825
2945,-1.615,0.865
2946,-1.605,0.845
2947,-1.605,0.870
2948,-1.605,0.770
2949,-1.595,0.840
2950,-1.595,0.800
2951,-1.595,0.805
2952,-1.575,0.785
2953,-1.595,0.795
2954,-1.575,0.785
2955,-1.575,0.780
2956,-1.555,0.800
2957,-1.545,0.760
2958,-1.545,0.750
2959,-1.545,0.755
2960,-1.525,0.735
2961,-1.515,0.735
2962,-1.515,0.745
2963,-1.495,0.770
2964,-1.495,0.760
2965,-1.475,0.760
2966,-1.465,0.750
2967,-1.465,0.775
2968,-1.465,0.755
2969,-1.445,0.745
2970,-1.445,0.725
2971,-1.435,0.730
2972,-1.415,0.680
2973,-1.405,0.650
2974,-1.385,0.660
2975,-1.405,0.585
2976,-1.365,0.575
2977,-1.385,0.535
2978,-1.385,0.505
2979,-1.355,0.530
2980,-1.375,0.540
2981,-1.385,0.450
2982,-1.325,0.450
2983,-1.355,0.445
2984,-1.325,0.415
2985,-1.315,0.455
2986,-1.305,0.415
2987,-1.305,0.440
2988,-1.295,0.400
2989,-1.195,0.430
2990,-1.285,0.420
2991,-1.215,0.375
2992,-1.205,0.435
2993,-1.205,0.395
2994,-1.155,0.375
2995,-1.255,0.380
2996,-1.185,0.320
2997,-1.145,0.320
2998,-1.135,0.340
2999,-1.135,0.335
3000,-1.075,0.345
3001,-1.095,0.335
3002,-1.035,0.295
3003,-0.995,0.360
3004,-1.015,0.320
3005,-0.985,0.320
3006,-0.965,0.310
3007,-0.885,0.295
3008,-0.915,0.255
3009,-1.035,0.255
3010,-1.015,0.265
3011,-0.925,0.160
3012,-0.985,0.190
3013,-0.965,0.160
3014,-0.885,0.260
3015,-1.005,0.435
3016,-0.725,0.655
3017,-0.225,0.615
3018,-0.045,-0.125
3019,-0.455,-0.420
3020,-0.785,-0.100
3021,-0.825,0.040
3022,-0.805,0.140
3023,-0.895,0.085
3024,-0.795,0.105
3025,-0.785,0.095
3026,-0.825,0.075
3027,-0.745,0.105
3028,-0.855,0.105
3029,-0.795,0.075
3030,-0.715,0.095
3031,-0.775,0.065
3032,-0.755,0.065
3033,-0.625,0.075
3034,-0.815,0.065
3035,-0.655,0.075
3036,-0.705,0.085
3037,-0.655,0.075
3038,-0.705,0.065
3039,-0.645,0.075
3040,-0.625,0.095
3041,-0.625,0.075
3042,-0.435,0.105
3043,-0.635,0.085
3044,-0.545,0.085
3045,-0.505,0.095
3046,-0.525,0.065
3047,-0.435,0.085
3048,-0.545,0.045
3049,-0.465,0.095
3050,-0.465,0.105
3051,-0.485,0.005
3052,-0.395,0.005
3053,-0.395,-0.005
3054,-0.425,-0.035
3055,-0.405,-0.045
3056,-0.415,-0.065
3057,-0.435,-0.075
3058,-0.345,-0.075
3059,-0.375,-0.065
3060,-0.445,-0.095
3061,-0.235,-0.085
3062,-0.445,-0.065
3063,-0.435,-0.095
3064,-0.235,-0.095
3065,-0.425,-0.085
3066,-0.335,-0.105
3067,-0.335,-0.095
3068,-0.305,-0.175
3069,-0.245,-0.115
3070,-0.325,-0.125
3071,-0.275,-0.155
3072,-0.265,-0.135
3073,-0.335,-0.155
3074,-0.245,-0.155
3075,-0.215,-0.125
3076,-0.255,-0.145
3077,-0.125,-0.125
3078,-0.175,-0.145
3079,-0.145,-0.145
3080,-0.095,-0.165
3081,-0.135,-0.155
3082,-0.195,-0.165
3083,-0.125,-0.195
3084,-0.195,-0.205
3085,-0.215,-0.205
3086,-0.165,-0.245
3087,-0.195,-0.245
3088,-0.215,-0.255
3089,-0.135,-0.265
3090,-0.205,-0.235
3091,-0.185,-0.075
3092,-0.015,0.205
3093,0.305,0.155
3094,0.585,-0.325
3095,0.185,-0.915
3096,-0.015,-0.635
3097,-0.115,-0.305
3098,-0.095,-0.375
3099,-0.125,-0.365
3100,-0.115,-0.325
3101,-0.095,-0.325
3102,-0.115,-0.315
3103,-0.005,-0.285
3104,-0.085,-0.305
3105,0.075,-0.265
3106,-0.225,-0.285
3107,-0.045,-0.295
3108,-0.075,-0.275
3109,-0.065,-0.285
3110,-0.055,-0.285
3111,-0.045,-0.275
3112,-0.035,-0.285
3113,-0.025,-0.265
3114,-0.015,-0.255
3115,0.015,-0.295
3116,0.085,-0.205
3117,0.025,-0.255
3118,0.055,-0.235
3119,-0.125,-0.125
3120,-0.005,-0.265
3121,-0.005,-0.225
3122,0.015,-0.225
3123,0.055,-0.275
3124,0.055,-0.265
3125,0.055,-0.255
3126,0.065,-0.255
3127,0.065,-0.265
3128,0.105,-0.285
3129,0.105,-0.275
3130,0.105,-0.345
3131,0.065,-0.325
3132,0.025,-0.345
3133,0.065,-0.315
3134,-0.055,-0.325
3135,0.025,-0.355
3136,0.035,-0.335
3137,0.065,-0.335
3138,0.065,-0.335
3139,0.085,-0.335
3140,0.105,-0.325
3141,0.105,-0.385
3142,0.165,-0.315
3143,0.075,-0.335
3144,0.055,-0.305
3145,0.065,-0.405
3146,0.155,-0.335
3147,0.105,-0.355
3148,0.055,-0.355
3149,0.095,-0.335
3150,0.135,-0.335
3151,0.165,-0.305
3152,0.205,-0.315
3153,0.255,-0.325
3154,0.165,-0.345
3155,0.295,-0.315
3156,0.145,-0.315
3157,0.115,-0.385
3158,0.175,-0.355
3159,0.035,-0.375
3160,0.095,-0.385
3161,0.145,-0.365
3162,0.095,-0.385
3163,0.145,-0.375
3164,-0.005,-0.305
3165,0.055,-0.155
3166,0.515,0.085
3167,0.685,-0.105
3168,0.835,-0.735
3169,0.355,-0.915
3170,0.135,-0.565
3171,0.115,-0.455
3172,0.135,-0.405
3173,0.015,-0.385
3174,0.095,-0.385
3175,0.045,-0.365
3176,0.025,-0.345
3177,0.075,-0.335
3178,0.165,-0.375
3179,0.015,-0.365
3180,-0.005,-0.315
3181,0.025,-0.345
3182,0.065,-0.345
3183,0.055,-0.325
3184,0.065,-0.335
3185,0.075,-0.325
3186,0.125,-0.315
3187,0.225,-0.305
3188,0.065,-0.255
3189,0.085,-0.285
3190,0.075,-0.295
3191,0.185,-0.215
3192,0.015,-0.235
3193,0.105,-0.235
3194,0.125,-0.245
3195,0.155,-0.225
3196,0.185,-0.225
3197,0.145,-0.235
3198,0.145,-0.235
3199,0.165,-0.255
3200,0.305,-0.255
3201,0.195,-0.275
3202,0.385,-0.275
3203,-0.015,-0.235
3204,0.065,-0.295
3205,0.145,-0.305
3206,0.155,-0.305
3207,0.155,-0.305
3208,0.175,-0.305
3209,0.155,-0.315
3210,0.145,-0.315
3211,0.175,-0.315
3212,0.205,-0.335
3213,0.205,-0.295
3214,0.275,-0.315
3215,0.125,-0.255
3216,0.085,-0.295
3217,0.165,-0.285
3218,0.185,-0.295
3219,0.205,-0.295
3220,0.215,-0.295
3221,0.235,-0.285
3222,0.155,-0.275
3223,0.285,-0.255
3224,0.165,-0.245
3225,0.275,-0.295
3226,0.255,-0.255
3227,0.245,-0.265
3228,0.235,-0.285
3229,0.315,-0.275
3230,0.235,-0.315
3231,0.205,-0.265
3232,0.135,-0.325
3233,0.285,-0.295
3234,0.065,-0.305
3235,0.165,-0.315
3236,0.185,-0.315
3237,0.065,-0.275
3238,0.105,-0.105
3239,0.365,0.065
3240,0.795,0.125
3241,0.975,-0.365
3242,0.625,-0.885
3243,0.225,-0.635
3244,0.205,-0.365
3245,0.105,-0.315
3246,0.155,-0.315
3247,0.135,-0.285
3248,0.095,-0.295
3249,0.235,-0.255
3250,0.075,-0.245
3251,0.105,-0.275
3252,0.145,-0.305
3253,0.105,-0.245
3254,0.085,-0.265
3255,0.275,-0.245
3256,0.075,-0.295
3257,0.125,-0.225
3258,0.125,-0.215
3259,0.085,-0.215
3260,0.145,-0.175
3261,0.095,-0.215
3262,0.195,-0.215
3263,0.205,-0.205
3264,0.145,-0.185
3265,0.215,-0.155
3266,0.255,-0.145
3267,0.135,-0.175
3268,0.215,-0.155
3269,0.315,-0.075
3270,0.155,-0.115
3271,0.215,-0.145
3272,0.205,-0.145
3273,0.195,-0.155
3274,0.265,-0.145
3275,0.205,-0.165
3276,0.295,-0.205
3277,0.245,-0.195
3278,0.195,-0.215
3279,0.145,-0.285
3280,0.195,-0.225
3281,0.145,-0.225
3282,0.235,-0.205
3283,0.145,-0.205
3284,0.205,-0.165
3285,0.265,-0.265
3286,0.255,-0.255
3287,0.195,-0.215
3288,0.235,-0.225
3289,0.145,-0.215
3290,0.185,-0.205
3291,0.175,-0.215
3292,0.235,-0.205
3293,0.165,-0.225
3294,0.315,-0.185
3295,0.175,-0.185
3296,0.225,-0.175
3297,0.305,-0.185
3298,0.275,-0.155
3299,0.345,-0.165
3300,0.265,-0.185
3301,0.285,-0.195
3302,0.215,-0.165
3303,0.185,-0.215
3304,0.235,-0.215
3305,0.205,-0.225
3306,0.175,-0.215
3307,0.205,-0.235
3308,0.225,-0.215
3309,0.185,-0.215
3310,0.105,-0.185
3311,0.065,-0.025
3312,0.245,0.125
3313,0.605,0.195
3314,1.025,-0.275
3315,0.585,-0.865
3316,0.275,-0.575
3317,0.205,-0.315
3318,0.195,-0.245
3319,0.125,-0.215
3320,0.075,-0.205
3321,0.155,-0.225
3322,0.115,-0.175
3323,0.065,-0.185
3324,0.085,-0.185
3325,0.125,-0.205
3326,0.105,-0.165
3327,0.065,-0.165
3328,0.135,-0.175
3329,0.135,-0.175
3330,0.145,-0.125
3331,0.065,-0.145
3332,0.085,-0.145
3333,0.195,-0.135
3334,0.075,-0.105
3335,0.105,-0.145
3336,0.255,-0.095
3337,0.115,-0.055
3338,0.085,-0.075
3339,0.225,-0.095
3340,0.085,-0.075
3341,0.145,-0.085
3342,0.225,-0.055
3343,0.165,-0.055
3344,0.185,-0.065
3345,0.255,-0.085
3346,0.195,-0.065
3347,0.265,-0.065
3348,0.225,-0.095
3349,0.165,-0.095
3350,0.295,-0.115
3351,0.175,-0.145
3352,0.245,-0.135
3353,0.235,-0.115
3354,0.175,-0.175
3355,0.195,-0.135
3356,0.155,-0.175
3357,0.345,-0.085
3358,0.155,-0.125
3359,0.285,-0.175
3360,0.145,-0.135
3361,0.175,-0.125
3362,0.175,-0.135
3363,0.225,-0.105
3364,0.195,-0.145
3365,0.265,-0.115
3366,0.215,-0.105
3367,0.315,-0.105
3368,0.115,-0.105
3369,0.155,-0.105
3370,0.355,-0.085
3371,0.255,-0.065
3372,0.225,-0.085
3373,0.325,-0.115
3374,0.345,-0.065
3375,0.215,-0.095
3376,0.205,-0.165
3377,0.195,-0.165
3378,0.205,-0.165
3379,0.095,-0.135
3380,0.155,-0.155
3381,0.175,-0.155
3382,0.115,-0.145
3383,0.165,-0.055
3384,0.115,0.165
3385,0.495,0.205
3386,0.845,0.035
3387,0.795,-0.635
3388,0.305,-0.645
3389,0.175,-0.315
3390,0.175,-0.165
3391,0.145,-0.175
3392,0.135,-0.155
3393,0.055,-0.115
3394,0.055,-0.125
3395,0.145,-0.125
3396,0.105,-0.135
3397,0.085,-0.105
3398,0.155,-0.065
3399,0.015,-0.105
3400,0.025,-0.095
3401,0.115,-0.075
3402,0.065,-0.115
3403,0.245,-0.045
3404,0.005,-0.085
3405,0.095,-0.065
3406,0.125,-0.075
3407,0.055,-0.065
3408,0.085,-0.055
3409,0.095,-0.045
3410,0.155,-0.025
3411,0.105,-0.025
3412,0.205,-0.015
3413,0.075,-0.025
3414,0.065,0.015
3415,0.135,-0.055
3416,0.165,-0.005
3417,0.125,-0.075
3418,0.105,-0.005
3419,0.255,0.015
3420,0.125,-0.025
3421,0.145,-0.025
3422,0.145,-0.045
3423,0.155,-0.065
3424,0.135,-0.055
3425,0.095,-0.045
3426,0.135,-0.065
3427,0.165,-0.115
3428,0.105,-0.055
3429,0.135,-0.065
3430,0.165,-0.055
3431,0.145,-0.055
3432,0.095,-0.075
3433,0.145,-0.035
3434,0.135,-0.035
3435,0.125,-0.055
3436,0.155,-0.055
3437,0.075,-0.065
3438,0.145,-0.095
3439,0.105,-0.045
3440,0.105,-0.055
3441,0.205,-0.015
3442,0.145,-0.015
3443,0.165,-0.015
3444,0.185,-0.015
3445,0.225,-0.035
3446,0.265,-0.025
3447,0.155,-0.035
3448,0.245,-0.015
3449,0.085,-0.085
3450,0.135,-0.045
3451,0.085,-0.055
3452,0.085,-0.085
3453,0.105,-0.065
3454,0.015,-0.065
3455,0.055,-0.055
3456,0.005,0.095
3457,0.045,0.285
3458,0.495,0.255
3459,0.905,-0.185
3460,0.525,-0.705
3461,0.235,-0.395
3462,0.135,-0.165
3463,0.115,-0.065
3464,-0.055,-0.065
3465,-0.025,-0.065
3466,0.015,-0.035
3467,-0.045,-0.065
3468,-0.035,-0.055
3469,0.045,-0.025
3470,-0.035,-0.025
3471,0.045,-0.025
3472,-0.015,-0.035
3473,-0.045,-0.035
3474,0.025,-0.005
3475,-0.065,-0.005
3476,0.035,-0.005
3477,-0.015,0.015
3478,-0.015,-0.005
3479,-0.005,0.005
3480,0.005,0.025
3481,0.035,0.025
3482,0.055,0.055
3483,-0.005,0.055
3484,0.035,0.055
3485,0.015,0.085
3486,0.015,0.125
3487,0.075,0.075
3488,0.115,0.035
3489,0.015,0.045
3490,0.075,0.045
3491,0.065,0.065
3492,0.055,0.055
3493,0.065,0.035
3494,0.065,0.035
3495,0.095,0.025
3496,0.075,0.025
3497,0.045,0.025
3498,0.045,-0.005
3499,0.035,-0.005
3500,0.035,-0.015
3501,0.065,0.015
3502,0.045,0.005
3503,0.005,-0.005
3504,-0.005,0.005
3505,0.055,-0.005
3506,0.085,0.065
3507,0.045,0.035
3508,0.095,0.005
3509,0.065,0.005
3510,0.035,0.025
3511,0.065,-0.005
3512,-0.075,-0.005
3513,0.095,0.085
3514,0.045,0.065
3515,0.095,0.105
3516,0.135,-0.005
3517,0.155,0.025
3518,0.125,0.015
3519,0.185,0.035
3520,0.165,0.045
3521,0.025,0.015
3522,0.075,0.005
3523,0.025,-0.005
3524,0.045,0.005
3525,-0.035,-0.015
3526,-0.035,-0.005
3527,0.015,0.005
3528,-0.075,0.105
3529,-0.025,0.315
3530,0.335,0.315
3531,0.745,0.025
3532,0.615,-0.595
3533,0.195,-0.455
3534,0.035,-0.135
3535,0.015,-0.015
3536,-0.085,-0.015
3537,-0.045,-0.015
3538,-0.055,0.025
3539,-0.105,-0.005
3540,-0.075,0.005
3541,-0.065,0.015
3542,-0.065,0.025
3543,-0.045,0.005
3544,0.035,0.045
3545,-0.045,0.015
3546,0.025,0.015
3547,-0.105,0.085
3548,-0.125,0.055
3549,-0.055,0.055
3550,-0.065,0.045
3551,-0.065,0.055
3552,-0.045,0.065
3553,-0.045,0.075
3554,-0.035,0.085
3555,-0.035,0.085
3556,-0.035,0.085
3557,-0.015,0.095
3558,-0.025,0.095
3559,0.005,0.115
3560,0.025,0.105
3561,-0.015,0.095
3562,-0.005,0.095
3563,-0.005,0.095
3564,0.025,0.095
3565,0.005,0.085
3566,0.015,0.075
3567,0.005,0.065
3568,-0.005,0.055
3569,-0.015,0.055
3570,-0.005,0.045
3571,-0.015,0.045
3572,-0.015,0.045
3573,-0.025,0.055
3574,-0.015,0.065
3575,-0.025,0.045
3576,-0.045,0.055
3577,-0.035,0.045
3578,-0.045,0.055
3579,-0.045,0.065
3580,-0.035,0.065
3581,-0.045,0.065
3582,-0.035,0.065
3583,-0.025,0.085
3584,-0.005,0.085
3585,-0.015,0.095
3586,-0.005,0.095
3587,0.005,0.095
3588,0.025,0.085
3589,0.045,0.085
3590,0.025,0.075
3591,0.015,0.075
3592,-0.005,0.055
3593,-0.055,0.055
3594,-0.085,0.055
3595,-0.125,0.015
3596,-0.045,0.065
3597,-0.105,0.025
3598,-0.095,0.045
3599,-0.105,0.045
3600,-0.115,0.185
3601,-0.045,0.435
3602,0.365,0.405
3603,0.695,0.005
3604,0.345,-0.605
3605,0.025,-0.385
3606,-0.095,-0.075
3607,-0.115,0.025
3608,-0.125,0.035
3609,-0.145,0.035
3610,-0.155,0.035
3611,-0.155,0.045
3612,-0.155,0.055
3613,-0.155,0.055
3614,-0.145,0.065
3615,-0.155,0.065
3616,-0.135,0.075
3617,-0.125,0.085
3618,-0.115,0.085
3619,-0.125,0.095
3620,-0.135,0.075
3621,-0.155,0.075
3622,-0.125,0.095
3623,-0.125,0.095
3624,-0.105,0.105
3625,-0.105,0.115
3626,-0.085,0.115
3627,-0.075,0.135
3628,-0.045,0.145
3629,-0.055,0.125
3630,-0.035,0.145
3631,-0.035,0.125
3632,-0.015,0.105
3633,-0.015,0.105
3634,-0.005,0.105
3635,-0.005,0.115
3636,-0.005,0.095
3637,-0.015,0.075
3638,-0.015,0.055
3639,-0.015,0.045
3640,-0.025,0.045
3641,-0.055,0.035
3642,-0.055,0.025
3643,-0.055,0.025
3644,-0.035,0.025
3645,-0.025,0.035
3646,-0.035,0.045
3647,-0.035,0.045
3648,-0.025,0.045
3649,-0.005,0.035
3650,-0.005,0.045
3651,-0.005,0.045
3652,-0.015,0.045
3653,0.005,0.055
3654,0.005,0.055
3655,0.025,0.065
3656,0.035,0.065
3657,0.045,0.075
3658,0.065,0.055
3659,0.085,0.055
3660,0.085,0.045
3661,0.065,0.055
3662,0.055,0.055
3663,0.015,0.025
3664,-0.025,0.025
3665,-0.055,0.015
3666,-0.055,0.015
3667,-0.055,0.005
3668,-0.065,0.005
3669,-0.085,0.015
3670,-0.125,0.105
3671,-0.035,0.325
3672,0.435,0.335
3673,0.835,0.005
3674,0.375,-0.425
3675,0.205,-0.565
3676,0.025,-0.235
3677,-0.035,-0.065
3678,-0.075,-0.005
3679,-0.095,0.005
3680,-0.105,0.015
3681,-0.095,0.025
3682,-0.105,0.025
3683,-0.105,0.025
3684,-0.095,0.025
3685,-0.095,0.035
3686,-0.095,0.035
3687,-0.095,0.045
3688,-0.105,0.035
3689,-0.085,0.055
3690,-0.085,0.045
3691,-0.095,0.045
3692,-0.075,0.065
3693,-0.065,0.075
3694,-0.075,0.075
3695,-0.065,0.085
3696,-0.055,0.105
3697,-0.045,0.115
3698,-0.025,0.135
3699,-0.025,0.145
3700,-0.005,0.135
3701,0.005,0.145
3702,0.015,0.135
3703,0.015,0.135
3704,0.015,0.125
3705,0.025,0.115
3706,0.015,0.105
3707,-0.005,0.085
3708,-0.015,0.065
3709,-0.015,0.045
3710,-0.045,0.045
3711,-0.035,0.015
3712,-0.045,0.015
3713,-0.045,0.015
3714,-0.045,0.015
3715,-0.045,0.025
3716,-0.035,0.015
3717,-0.045,0.015
3718,-0.035,0.015
3719,-0.045,0.025
3720,-0.035,0.005
3721,-0.055,0.005
3722,-0.035,0.015
3723,-0.045,0.005
3724,-0.035,0.025
3725,-0.015,0.025
3726,-0.035,0.015
3727,-0.015,0.035
3728,0.015,0.045
3729,0.015,0.045
3730,0.035,0.035
3731,0.055,0.015
3732,0.045,0.015
3733,0.045,0.015
3734,0.025,0.015
3735,-0.025,-0.005
3736,-0.055,-0.025
3737,-0.075,-0.025
3738,-0.075,-0.035
3739,-0.075,-0.035
3740,-0.095,-0.035
3741,-0.135,-0.015
3742,-0.135,0.145
3743,0.125,0.325
3744,0.525,0.365
3745,0.775,-0.095
3746,0.255,-0.625
3747,0.005,-0.315
3748,-0.055,-0.105
3749,-0.075,-0.085
3750,-0.105,-0.055
3751,-0.135,-0.045
3752,-0.125,-0.035
3753,-0.135,-0.025
3754,-0.135,-0.025
3755,-0.135,-0.015
3756,-0.135,-0.015
3757,-0.135,-0.005
3758,-0.135,-0.005
3759,-0.135,0.005
3760,-0.115,0.015
3761,-0.105,0.015
3762,-0.115,0.015
3763,-0.125,0.005
3764,-0.125,0.015
3765,-0.115,0.035
3766,-0.105,0.045
3767,-0.095,0.055
3768,-0.085,0.065
3769,-0.055,0.105
3770,-0.015,0.075
3771,-0.025,0.105
3772,-0.035,0.115
3773,-0.015,0.075
3774,-0.055,0.095
3775,-0.035,0.105
3776,-0.015,0.095
3777,-0.025,0.075
3778,-0.025,0.055
3779,-0.035,0.035
3780,-0.055,0.015
3781,-0.055,0.015
3782,-0.065,0.005
3783,-0.065,-0.005
3784,-0.075,-0.015
3785,-0.065,-0.005
3786,-0.065,0.005
3787,-0.055,0.005
3788,-0.055,-0.025
3789,-0.085,0.015
3790,-0.045,-0.015
3791,-0.135,-0.015
3792,-0.105,-0.005
3793,-0.095,-0.015
3794,-0.075,-0.005
3795,-0.065,-0.005
3796,-0.065,0.005
3797,-0.065,0.005
3798,-0.055,0.005
3799,-0.045,0.025
3800,-0.015,0.035
3801,0.005,0.045
3802,0.005,0.025
3803,0.035,0.025
3804,0.025,0.015
3805,0.015,0.005
3806,-0.025,0.005
3807,-0.055,-0.015
3808,-0.085,-0.025
3809,-0.095,-0.025
3810,-0.105,-0.035
3811,-0.105,-0.025
3812,-0.105,-0.035
3813,-0.145,0.005
3814,-0.145,0.165
3815,0.125,0.275
3816,0.625,0.245
3817,0.605,-0.225
3818,0.115,-0.585
3819,-0.065,-0.275
3820,-0.105,-0.105
3821,-0.125,-0.045
3822,-0.165,-0.045
3823,-0.175,-0.035
3824,-0.165,-0.035
3825,-0.165,-0.035
3826,-0.165,-0.025
3827,-0.175,-0.025
3828,-0.165,-0.025
3829,-0.165,-0.015
3830,-0.175,-0.015
3831,-0.165,-0.005
3832,-0.155,-0.005
3833,-0.145,0.005
3834,-0.145,0.005
3835,-0.145,0.015
3836,-0.145,0.025
3837,-0.125,0.015
3838,-0.145,0.015
3839,-0.115,0.025
3840,-0.115,0.045
3841,-0.095,0.065
3842,-0.025,0.045
3843,-0.065,0.085
3844,-0.105,0.085
3845,-0.065,0.065
3846,-0.065,0.075
3847,-0.035,0.055
3848,-0.035,0.055
3849,-0.025,0.055
3850,-0.045,0.045
3851,-0.075,0.035
3852,-0.075,0.005
3853,-0.085,-0.005
3854,-0.085,-0.005
3855,-0.085,-0.005
3856,-0.075,0.005
3857,-0.055,-0.025
3858,-0.105,-0.025
3859,-0.095,-0.005
3860,-0.105,0.005
3861,-0.095,0.005
3862,-0.095,-0.005
3863,-0.085,-0.015
3864,-0.085,-0.005
3865,-0.085,-0.005
3866,-0.075,-0.005
3867,-0.075,-0.005
3868,-0.065,0.005
3869,-0.045,0.015
3870,-0.025,0.015
3871,-0.005,0.045
3872,-0.015,0.025
3873,-0.025,0.025
3874,0.005,0.025
3875,0.005,0.015
3876,0.005,0.025
3877,-0.015,0.005
3878,-0.055,-0.015
3879,-0.095,-0.015
3880,-0.105,-0.025
3881,-0.105,-0.025
3882,-0.115,-0.035
3883,-0.115,-0.035
3884,-0.155,0.005
3885,-0.155,0.165
3886,0.105,0.285
3887,0.545,0.225
3888,0.835,-0.145
3889,0.295,-0.595
3890,-0.035,-0.385
3891,-0.145,-0.145
3892,-0.135,-0.065
3893,-0.165,-0.045
3894,-0.155,-0.035
3895,-0.185,-0.015
3896,-0.195,-0.015
3897,-0.175,-0.015
3898,-0.175,-0.005
3899,-0.165,-0.005
3900,-0.155,-0.005
3901,-0.165,0.005
3902,-0.165,0.005
3903,-0.155,0.005
3904,-0.155,0.005
3905,-0.145,0.015
3906,-0.115,0.015
3907,-0.145,0.025
3908,-0.105,0.025
3909,-0.135,0.035
3910,-0.135,0.045
3911,-0.115,0.055
3912,-0.095,0.065
3913,-0.085,0.065
3914,-0.055,0.065
3915,-0.045,0.075
3916,-0.045,0.065
3917,-0.035,0.065
3918,-0.025,0.065
3919,-0.035,0.045
3920,-0.025,0.055
3921,-0.035,0.045
3922,-0.045,0.045
3923,-0.065,0.025
3924,-0.035,0.015
3925,-0.105,0.005
3926,-0.105,0.015
3927,-0.075,-0.005
3928,-0.105,0.005
3929,-0.095,-0.005
3930,-0.085,-0.005
3931,-0.095,-0.005
3932,-0.085,0.005
3933,-0.075,0.005
3934,-0.075,0.005
3935,-0.075,0.005
3936,-0.065,0.005
3937,-0.055,0.015
3938,-0.075,0.005
3939,-0.065,0.015
3940,-0.055,0.015
3941,-0.075,0.025
3942,-0.045,0.035
3943,-0.025,0.045
3944,-0.005,0.045
3945,0.005,0.025
3946,0.035,0.025
3947,0.025,0.025
3948,0.015,0.025
3949,0.005,0.025
3950,-0.035,0.005
3951,-0.065,-0.005
3952,-0.075,-0.025
3953,-0.115,-0.025
3954,-0.115,-0.025
3955,-0.095,-0.025
3956,-0.145,-0.015
3957,-0.185,0.075
3958,-0.085,0.265
3959,0.355,0.275
3960,0.785,0.075
3961,0.595,-0.455
3962,0.045,-0.475
3963,-0.095,-0.205
3964,-0.125,-0.075
3965,-0.145,-0.035
3966,-0.155,-0.025
3967,-0.165,-0.015
3968,-0.165,-0.015
3969,-0.165,-0.015
3970,-0.175,-0.005
3971,-0.175,-0.005
3972,-0.155,-0.005
3973,-0.165,0.005
3974,-0.165,0.005
3975,-0.165,0.005
3976,-0.155,0.005
3977,-0.145,0.005
3978,-0.145,0.015
3979,-0.145,0.025
3980,-0.135,0.025
3981,-0.125,0.035
3982,-0.095,0.045
3983,-0.105,0.055
3984,-0.095,0.075
3985,-0.105,0.085
3986,-0.085,0.075
3987,-0.055,0.085
3988,-0.035,0.075
3989,-0.035,0.075
3990,-0.025,0.075
3991,-0.015,0.065
3992,-0.015,0.065
3993,-0.025,0.045
3994,-0.035,0.045
3995,-0.055,0.025
3996,-0.065,0.025
3997,-0.075,0.005
3998,-0.095,-0.005
3999,-0.085,-0.015
4000,-0.095,-0.015
4001,-0.095,-0.015
4002,-0.085,-0.005
4003,-0.095,-0.015
4004,-0.085,-0.015
4005,-0.085,-0.005
4006,-0.085,-0.005
4007,-0.085,-0.005
4008,-0.085,-0.005
4009,-0.095,-0.005
4010,-0.085,-0.005
4011,-0.095,-0.005
4012,-0.075,-0.005
4013,-0.075,0.005
4014,-0.065,0.015
4015,-0.045,0.025
4016,-0.025,0.025
4017,-0.015,0.035
4018,0.005,0.025
4019,0.015,0.015
4020,0.025,0.005
4021,0.005,0.015
4022,0.005,0.005
4023,-0.045,-0.005
4024,-0.085,-0.025
4025,-0.115,-0.035
4026,-0.115,-0.035
4027,-0.125,-0.035
4028,-0.115,-0.035
4029,-0.125,-0.035
4030,-0.175,0.035
4031,-0.115,0.215
4032,0.255,0.265
4033,0.655,0.185
4034,0.795,-0.265
4035,0.165,-0.515
4036,-0.085,-0.285
4037,-0.085,-0.095
4038,-0.175,-0.055
4039,-0.175,-0.045
4040,-0.175,-0.055
4041,-0.175,-0.035
4042,-0.165,-0.035
4043,-0.175,-0.035
4044,-0.165,-0.025
4045,-0.165,-0.025
4046,-0.165,-0.015
4047,-0.165,-0.015
4048,-0.155,-0.005
4049,-0.145,-0.005
4050,-0.145,-0.005
4051,-0.145,0.005
4052,-0.135,0.005
4053,-0.135,0.015
4054,-0.135,0.025
4055,-0.125,0.025
4056,-0.105,0.035
4057,-0.085,0.055
4058,-0.095,0.065
4059,-0.075,0.075
4060,-0.065,0.075
4061,-0.045,0.085
4062,-0.035,0.085
4063,-0.015,0.085
4064,-0.005,0.075
4065,-0.005,0.055
4066,-0.015,0.045
4067,-0.035,0.035
4068,-0.045,0.025
4069,-0.075,0.005
4070,-0.085,-0.005
4071,-0.105,-0.025
4072,-0.095,-0.025
4073,-0.095,-0.035
4074,-0.105,-0.035
4075,-0.095,-0.025
4076,-0.115,-0.025
4077,-0.115,-0.025
4078,-0.105,-0.025
4079,-0.105,-0.035
4080,-0.105,-0.025
4081,-0.105,-0.025
4082,-0.085,-0.025
4083,-0.095,-0.025
4084,-0.095,-0.025
4085,-0.095,-0.025
4086,-0.095,-0.015
4087,-0.095,-0.025
4088,-0.075,-0.015
4089,-0.045,0.005
4090,-0.065,0.015
4091,-0.045,0.015
4092,-0.025,0.015
4093,-0.005,0.005
4094,-0.005,-0.005
4095,-0.005,-0.005
4096,-0.005,-0.005
4097,-0.005,-0.005
4098,-0.055,-0.025
4099,-0.095,-0.045
4100,-0.105,-0.045
4101,-0.115,-0.055
4102,-0.095,-0.055
4103,-0.115,-0.035
4104,-0.135,-0.045
4105,-0.195,0.065
4106,-0.055,0.255
4107,0.375,0.245
4108,0.795,-0.015
4109,0.445,-0.535
4110,-0.005,-0.455
4111,-0.105,-0.185
4112,-0.135,-0.095
4113,-0.165,-0.065
4114,-0.165,-0.045
4115,-0.175,-0.045
4116,-0.175,-0.035
4117,-0.175,-0.035
4118,-0.165,-0.025
4119,-0.175,-0.015
4120,-0.165,-0.025
4121,-0.175,-0.005
4122,-0.185,-0.015
4123,-0.165,-0.005
4124,-0.165,-0.005
4125,-0.165,-0.005
4126,-0.165,0.005
4127,-0.155,0.005
4128,-0.145,0.015
4129,-0.135,0.015
4130,-0.115,0.035
4131,-0.125,0.055
4132,-0.105,0.055
4133,-0.095,0.075
4134,-0.095,0.085
4135,-0.065,0.085
4136,-0.045,0.095
4137,-0.035,0.085
4138,-0.025,0.085
4139,-0.025,0.075
4140,-0.025,0.075
4141,-0.045,0.055
4142,-0.055,0.045
4143,-0.075,0.035
4144,-0.085,0.015
4145,-0.105,-0.005
4146,-0.105,-0.005
4147,-0.115,-0.005
4148,-0.105,-0.015
4149,-0.115,-0.015
4150,-0.115,-0.005
4151,-0.115,-0.015
4152,-0.095,-0.005
4153,-0.125,-0.015
4154,-0.105,-0.005
4155,-0.115,0.005
4156,-0.125,-0.005
4157,-0.115,-0.005
4158,-0.105,-0.005
4159,-0.105,0.005
4160,-0.105,-0.005
4161,-0.095,-0.005
4162,-0.105,0.005
4163,-0.105,0.005
4164,-0.095,0.005
4165,-0.075,0.005
4166,-0.075,0.015
4167,-0.045,0.025
4168,-0.025,0.035
4169,-0.005,0.045
4170,-0.025,0.025
4171,-0.015,0.025
4172,-0.025,0.015
4173,-0.015,0.025
4174,-0.045,0.005
4175,-0.085,-0.015
4176,-0.105,-0.015
4177,-0.115,-0.015
4178,-0.115,-0.025
4179,-0.135,-0.025
4180,-0.135,-0.025
4181,-0.175,0.045
4182,-0.135,0.245
4183,0.215,0.315
4184,0.675,0.205
4185,0.765,-0.295
4186,0.125,-0.525
4187,-0.115,-0.245
4188,-0.155,-0.085
4189,-0.175,-0.035
4190,-0.195,-0.015
4191,-0.195,-0.025
4192,-0.195,-0.015
4193,-0.185,-0.005
4194,-0.185,-0.005
4195,-0.185,0.005
4196,-0.185,0.005
4197,-0.185,0.015
4198,-0.185,0.015
4199,-0.185,0.015
4200,-0.165,0.015
4201,-0.145,0.025
4202,-0.165,0.035
4203,-0.165,0.035
4204,-0.175,0.055
4205,-0.155,0.065
4206,-0.155,0.055
4207,-0.135,0.075
4208,-0.115,0.085
4209,-0.105,0.095
4210,-0.085,0.115
4211,-0.065,0.115
4212,-0.045,0.115
4213,-0.035,0.125
4214,-0.025,0.125
4215,-0.015,0.115
4216,-0.015,0.105
4217,-0.025,0.085
4218,-0.035,0.085
4219,-0.055,0.055
4220,-0.065,0.035
4221,-0.075,0.015
4222,-0.115,0.015
4223,-0.125,0.005
4224,-0.125,0.005
4225,-0.115,0.005
4226,-0.115,-0.005
4227,-0.105,0.015
4228,-0.115,-0.005
4229,-0.115,0.005
4230,-0.105,0.005
4231,-0.115,-0.005
4232,-0.105,0.005
4233,-0.105,0.005
4234,-0.085,0.015
4235,-0.095,0.015
4236,-0.075,0.015
4237,-0.105,0.015
4238,-0.125,0.015
4239,-0.115,0.015
4240,-0.105,0.005
4241,-0.105,0.005
4242,-0.095,0.005
4243,-0.095,0.005
4244,-0.075,0.025
4245,-0.065,0.035
4246,-0.055,0.045
4247,-0.045,0.045
4248,-0.015,0.025
4249,0.005,0.025
4250,0.015,0.025
4251,-0.025,0.025
4252,-0.045,0.035
4253,-0.075,0.005
4254,-0.085,0.005
4255,-0.115,-0.005
4256,-0.125,-0.005
4257,-0.125,-0.015
4258,-0.125,-0.015
4259,-0.125,-0.015
4260,-0.165,0.055
4261,-0.135,0.255
4262,0.205,0.345
4263,0.635,0.275
4264,0.675,-0.305
4265,0.095,-0.495
4266,-0.035,-0.185
4267,-0.155,-0.065
4268,-0.185,-0.025
4269,-0.195,-0.015
4270,-0.195,-0.015
4271,-0.195,-0.005
4272,-0.195,-0.005
4273,-0.195,-0.005
4274,-0.175,0.005
4275,-0.185,0.005
4276,-0.175,0.015
4277,-0.175,0.015
4278,-0.175,0.025
4279,-0.175,0.025
4280,-0.155,0.025
4281,-0.145,0.045
4282,-0.185,0.045
4283,-0.165,0.045
4284,-0.175,0.055
4285,-0.155,0.065
4286,-0.145,0.085
4287,-0.125,0.095
4288,-0.115,0.105
4289,-0.095,0.115
4290,-0.075,0.135
4291,-0.055,0.125
4292,-0.055,0.125
4293,-0.035,0.125
4294,-0.015,0.125
4295,-0.005,0.105
4296,-0.015,0.115
4297,-0.055,0.095
4298,-0.075,0.065
4299,-0.085,0.055
4300,-0.085,0.045
4301,-0.115,0.025
4302,-0.115,0.015
4303,-0.125,0.005
4304,-0.115,0.005
4305,-0.115,-0.005
4306,-0.125,0.005
4307,-0.115,0.015
4308,-0.115,0.005
4309,-0.125,0.005
4310,-0.115,0.005
4311,-0.125,0.005
4312,-0.125,0.015
4313,-0.105,-0.005
4314,-0.085,0.015
4315,-0.135,0.025
4316,-0.125,0.015
4317,-0.115,0.015
4318,-0.115,0.015
4319,-0.115,0.005
4320,-0.105,0.015
4321,-0.115,0.015
4322,-0.105,0.015
4323,-0.105,0.015
4324,-0.085,0.025
4325,-0.065,0.035
4326,-0.045,0.035
4327,-0.045,0.045
4328,-0.025,0.035
4329,-0.005,0.035
4330,-0.005,0.035
4331,-0.015,0.045
4332,-0.035,0.025
4333,-0.075,0.015
4334,-0.105,-0.005
4335,-0.115,-0.005
4336,-0.125,-0.005
4337,-0.125,-0.005
4338,-0.125,-0.005
4339,-0.135,0.005
4340,-0.165,0.155
4341,0.045,0.395
4342,0.555,0.405
4343,0.745,-0.165
4344,0.125,-0.575
4345,-0.055,-0.275
4346,-0.105,-0.075
4347,-0.135,-0.035
4348,-0.155,-0.005
4349,-0.165,0.005
4350,-0.155,0.015
4351,-0.155,0.015
4352,-0.155,0.015
4353,-0.155,0.035
4354,-0.145,0.035
4355,-0.155,0.035
4356,-0.145,0.035
4357,-0.145,0.045
4358,-0.145,0.055
4359,-0.145,0.055
4360,-0.135,0.065
4361,-0.125,0.075
4362,-0.125,0.075
4363,-0.135,0.095
4364,-0.125,0.105
4365,-0.115,0.125
4366,-0.085,0.145
4367,-0.075,0.165
4368,-0.055,0.175
4369,-0.035,0.175
4370,-0.015,0.185
4371,-0.005,0.195
4372,0.015,0.195
4373,0.005,0.185
4374,0.015,0.165
4375,-0.005,0.145
4376,-0.015,0.115
4377,-0.025,0.095
4378,-0.035,0.065
4379,-0.065,0.035
4380,-0.075,0.015
4381,-0.075,0.015
4382,-0.085,0.005
4383,-0.095,0.015
4384,-0.075,0.015
4385,-0.085,0.015
4386,-0.085,0.015
4387,-0.085,0.005
4388,-0.085,0.015
4389,-0.085,0.015
4390,-0.085,0.015
4391,-0.085,0.015
4392,-0.075,0.025
4393,-0.075,0.015
4394,-0.075,0.005
4395,-0.075,0.015
4396,-0.065,0.015
4397,-0.065,0.025
4398,-0.065,0.025
4399,-0.075,0.005
4400,-0.075,0.005
4401,-0.055,0.025
4402,-0.045,0.025
4403,-0.025,0.045
4404,-0.015,0.045
4405,0.005,0.055
4406,0.005,0.035
4407,0.025,0.045
4408,0.025,0.035
4409,0.015,0.025
4410,0.005,0.025
4411,-0.045,0.005
4412,-0.075,-0.005
4413,-0.095,-0.015
4414,-0.115,-0.015
4415,-0.115,-0.025
4416,-0.125,-0.025
4417,-0.125,-0.005
4418,-0.145,0.125
4419,-0.015,0.285
4420,0.405,0.275
4421,0.775,-0.005
4422,0.485,-0.555
4423,-0.015,-0.495
4424,-0.095,-0.195
4425,-0.135,-0.075
4426,-0.165,-0.045
4427,-0.195,-0.025
4428,-0.185,-0.015
4429,-0.195,-0.025
4430,-0.185,-0.005
4431,-0.195,-0.015
4432,-0.185,0.005
4433,-0.185,0.005
4434,-0.185,0.005
4435,-0.195,0.015
4436,-0.175,0.015
4437,-0.175,0.015
4438,-0.175,0.025
4439,-0.175,0.035
4440,-0.165,0.035
4441,-0.165,0.045
4442,-0.155,0.055
4443,-0.145,0.065
4444,-0.145,0.065
4445,-0.115,0.085
4446,-0.105,0.105
4447,-0.095,0.105
4448,-0.075,0.105
4449,-0.055,0.125
4450,-0.045,0.115
4451,-0.035,0.115
4452,-0.025,0.115
4453,-0.045,0.105
4454,-0.045,0.095
4455,-0.055,0.085
4456,-0.065,0.075
4457,-0.095,0.055
4458,-0.095,0.045
4459,-0.105,0.035
4460,-0.115,0.015
4461,-0.125,0.005
4462,-0.125,0.015
4463,-0.135,0.015
4464,-0.125,0.015
4465,-0.135,0.005
4466,-0.135,0.005
4467,-0.125,0.015
4468,-0.135,0.015
4469,-0.135,0.015
4470,-0.115,0.035
4471,-0.115,0.035
4472,-0.115,0.035
4473,-0.115,0.025
4474,-0.115,0.025
4475,-0.125,0.015
4476,-0.115,0.015
4477,-0.125,0.025
4478,-0.125,0.015
4479,-0.135,0.025
4480,-0.105,0.035
4481,-0.085,0.045
4482,-0.065,0.065
4483,-0.045,0.065
4484,-0.045,0.055
4485,-0.035,0.045
4486,-0.015,0.045
4487,-0.035,0.045
4488,-0.025,0.055
4489,-0.065,0.025
4490,-0.105,0.015
4491,-0.135,-0.005
4492,-0.145,-0.005
4493,-0.155,-0.015
4494,-0.145,-0.005
4495,-0.155,0.005
4496,-0.195,0.045
4497,-0.165,0.235
4498,0.155,0.345
4499,0.545,0.225
4500,0.665,-0.275
4501,0.085,-0.595
4502,-0.085,-0.275
4503,-0.145,-0.075
4504,-0.175,-0.025
4505,-0.205,0.005
4506,-0.215,0.005
4507,-0.215,0.005
4508,-0.205,0.005
4509,-0.205,0.015
4510,-0.215,0.025
4511,-0.215,0.025
4512,-0.205,0.035
4513,-0.195,0.035
4514,-0.185,0.045
4515,-0.185,0.055
4516,-0.175,0.055
4517,-0.175,0.075
4518,-0.175,0.055
4519,-0.175,0.075
4520,-0.155,0.085
4521,-0.145,0.095
4522,-0.135,0.115
4523,-0.125,0.125
4524,-0.105,0.145
4525,-0.085,0.155
4526,-0.075,0.155
4527,-0.065,0.155
4528,-0.045,0.155
4529,-0.035,0.155
4530,-0.025,0.145
4531,-0.035,0.145
4532,-0.035,0.125
4533,-0.065,0.105
4534,-0.065,0.095
4535,-0.085,0.065
4536,-0.095,0.045
4537,-0.095,0.035
4538,-0.105,0.025
4539,-0.115,0.035
4540,-0.115,0.015
4541,-0.115,0.025
4542,-0.105,0.025
4543,-0.105,0.035
4544,-0.095,0.035
4545,-0.095,0.015
4546,-0.095,0.025
4547,-0.085,0.035
4548,-0.085,0.035
4549,-0.095,0.035
4550,-0.085,0.035
4551,-0.075,0.025
4552,-0.075,0.015
4553,-0.085,0.025
4554,-0.065,0.035
4555,-0.055,0.035
4556,-0.045,0.045
4557,-0.035,0.055
4558,-0.025,0.065
4559,-0.015,0.065
4560,-0.005,0.025
4561,0.015,0.045
4562,0.015,0.025
4563,0.005,0.035
4564,0.005,0.045
4565,-0.025,0.005
4566,-0.045,0.005
4567,-0.075,-0.005
4568,-0.085,-0.015
4569,-0.085,-0.005
4570,-0.095,-0.025
4571,-0.105,-0.015
4572,-0.115,0.085
4573,-0.075,0.265
4574,0.185,0.305
4575,0.475,0.075
4576,0.455,-0.455
4577,0.075,-0.585
4578,-0.065,-0.265
4579,-0.115,-0.075
4580,-0.125,-0.025
4581,-0.155,-0.025
4582,-0.165,-0.015
4583,-0.175,-0.005
4584,-0.175,-0.005
4585,-0.175,-0.005
4586,-0.165,0.005
4587,-0.175,0.005
4588,-0.165,0.005
4589,-0.165,0.025
4590,-0.165,0.015
4591,-0.175,0.025
4592,-0.155,0.025
4593,-0.155,0.035
4594,-0.145,0.045
4595,-0.145,0.045
4596,-0.135,0.055
4597,-0.125,0.055
4598,-0.125,0.075
4599,-0.115,0.075
4600,-0.095,0.095
4601,-0.085,0.095
4602,-0.075,0.095
4603,-0.045,0.115
4604,-0.045,0.105
4605,-0.045,0.105
4606,-0.045,0.105
4607,-0.045,0.075
4608,-0.045,0.075
4609,-0.055,0.065
4610,-0.075,0.055
4611,-0.085,0.035
4612,-0.095,0.015
4613,-0.095,0.015
4614,-0.105,0.005
4615,-0.115,-0.005
4616,-0.115,-0.005
4617,-0.115,-0.005
4618,-0.095,-0.005
4619,-0.105,0.005
4620,-0.095,0.005
4621,-0.105,0.015
4622,-0.095,0.005
4623,-0.105,0.005
4624,-0.085,0.005
4625,-0.095,0.005
4626,-0.085,0.015
4627,-0.095,-0.005
4628,-0.095,-0.005
4629,-0.095,-0.005
4630,-0.085,0.005
4631,-0.075,0.025
4632,-0.065,0.015
4633,-0.045,0.035
4634,-0.035,0.035
4635,-0.025,0.035
4636,-0.015,0.015
4637,0.005,0.015
4638,-0.005,0.005
4639,0.005,0.025
4640,-0.015,0.005
4641,-0.055,-0.015
4642,-0.095,-0.025
4643,-0.115,-0.025
4644,-0.115,-0.035
4645,-0.115,-0.025
4646,-0.125,-0.025
4647,-0.155,0.035
4648,-0.105,0.215
4649,0.225,0.305
4650,0.645,0.155
4651,0.785,-0.315
4652,0.155,-0.595
4653,-0.085,-0.345
4654,-0.145,-0.135
4655,-0.155,-0.055
4656,-0.165,-0.035
4657,-0.175,-0.025
4658,-0.175,-0.015
4659,-0.175,-0.015
4660,-0.175,-0.015
4661,-0.175,-0.005
4662,-0.175,-0.005
4663,-0.175,0.005
4664,-0.165,0.005
4665,-0.165,0.005
4666,-0.155,0.015
4667,-0.155,0.025
4668,-0.145,0.025
4669,-0.145,0.025
4670,-0.135,0.035
4671,-0.135,0.045
4672,-0.125,0.055
4673,-0.115,0.075
4674,-0.105,0.075
4675,-0.095,0.075
4676,-0.075,0.095
4677,-0.055,0.105
4678,-0.045,0.105
4679,-0.045,0.105
4680,-0.025,0.095
4681,-0.025,0.085
4682,-0.015,0.075
4683,-0.015,0.075
4684,-0.025,0.075
4685,-0.025,0.055
4686,-0.055,0.035
4687,-0.085,0.005
4688,-0.095,-0.005
4689,-0.115,-0.015
4690,-0.145,-0.015
4691,-0.125,-0.025
4692,-0.105,-0.015
4693,-0.085,0.005
4694,-0.095,0.005
4695,-0.095,-0.005
4696,-0.085,0.005
4697,-0.075,-0.005
4698,-0.095,-0.005
4699,-0.105,-0.005
4700,-0.095,-0.005
4701,-0.095,-0.005
4702,-0.075,0.015
4703,-0.085,-0.005
4704,-0.085,0.005
4705,-0.075,0.005
4706,-0.055,0.015
4707,-0.045,0.035
4708,-0.025,0.045
4709,-0.015,0.035
4710,-0.015,0.035
4711,0.015,0.025
4712,0.015,0.015
4713,-0.005,0.005
4714,0.005,0.025
4715,-0.025,0.005
4716,-0.075,-0.015
4717,-0.105,-0.025
4718,-0.105,-0.025
4719,-0.115,-0.025
4720,-0.105,-0.025
4721,-0.125,-0.045
4722,-0.145,0.025
4723,-0.125,0.215
4724,0.205,0.335
4725,0.635,0.205
4726,0.795,-0.325
4727,0.145,-0.615
4728,-0.075,-0.305
4729,-0.135,-0.105
4730,-0.135,-0.055
4731,-0.165,-0.035
4732,-0.165,-0.025
4733,-0.165,-0.015
4734,-0.185,-0.005
4735,-0.145,-0.005
4736,-0.165,0.005
4737,-0.165,0.005
4738,-0.155,0.005
4739,-0.185,0.005
4740,-0.175,0.015
4741,-0.175,0.015
4742,-0.175,0.025
4743,-0.115,0.025
4744,-0.095,0.045
4745,-0.095,0.055
4746,-0.115,0.055
4747,-0.125,0.065
4748,-0.095,0.065
4749,-0.085,0.075
4750,-0.055,0.095
4751,-0.055,0.095
4752,-0.035,0.115
4753,-0.015,0.105
4754,0.005,0.105
4755,-0.005,0.105
4756,-0.005,0.095
4757,0.005,0.105
4758,-0.005,0.095
4759,-0.005,0.075
4760,0.005,0.035
4761,-0.035,0.005
4762,-0.055,0.005
4763,-0.065,-0.005
4764,-0.075,-0.005
4765,-0.075,-0.025
4766,-0.105,-0.015
4767,-0.095,-0.015
4768,-0.085,-0.025
4769,-0.085,-0.005
4770,-0.075,-0.015
4771,-0.085,-0.005
4772,-0.085,-0.005
4773,-0.075,-0.005
4774,-0.095,-0.005
4775,-0.095,-0.015
4776,-0.115,-0.015
4777,-0.115,-0.015
4778,-0.095,-0.005
4779,-0.085,-0.005
4780,-0.085,-0.005
4781,-0.085,0.005
4782,-0.075,0.005
4783,-0.065,0.025
4784,-0.035,0.035
4785,-0.045,0.025
4786,-0.005,0.035
4787,0.035,0.045
4788,-0.025,0.005
4789,-0.015,-0.045
4790,-0.025,0.015
4791,-0.035,0.035
4792,-0.065,-0.005
4793,-0.095,-0.015
4794,-0.105,-0.025
4795,-0.125,-0.045
4796,-0.115,-0.035
4797,-0.125,-0.025
4798,-0.145,-0.055
4799,-0.035,0.065
4800,-0.125,0.305
4801,0.295,0.295
4802,0.795,0.075
4803,0.655,-0.475
4804,0.015,-0.505
4805,-0.085,-0.225
4806,-0.135,-0.105
4807,-0.165,-0.045
4808,-0.165,-0.035
4809,-0.205,-0.035
4810,-0.225,-0.035
4811,-0.215,-0.015
4812,-0.185,-0.005
4813,-0.175,-0.025
4814,-0.215,-0.005
4815,-0.215,-0.015
4816,-0.165,-0.015
4817,-0.185,0.005
4818,-0.215,-0.005
4819,-0.205,-0.015
4820,-0.075,-0.005
4821,-0.185,0.065
4822,-0.205,0.065
4823,-0.145,0.045
4824,-0.175,0.045
4825,-0.145,0.045
4826,-0.135,0.065
4827,-0.125,0.085
4828,-0.095,0.105
4829,-0.045,0.105
4830,-0.035,0.115
4831,0.055,0.105
4832,0.075,0.105
4833,-0.135,0.165
4834,-0.115,0.145
4835,-0.055,0.085
4836,-0.055,0.045
4837,-0.065,0.015
4838,-0.085,0.005
4839,-0.075,0.005
4840,-0.085,-0.025
4841,-0.065,-0.035
4842,-0.005,-0.035
4843,0.035,-0.045
4844,-0.185,0.015
4845,-0.215,-0.005
4846,-0.085,-0.045
4847,-0.105,-0.065
4848,-0.095,-0.045
4849,-0.095,-0.035
4850,-0.085,-0.025
4851,-0.075,-0.025
4852,-0.075,-0.025
4853,-0.025,-0.025
4854,0.005,-0.005
4855,0.025,-0.015
4856,-0.085,-0.005
4857,-0.175,-0.035
4858,-0.155,-0.045
4859,-0.115,-0.055
4860,-0.125,-0.045
4861,-0.065,-0.025
4862,-0.045,-0.015
4863,-0.035,-0.005
4864,0.005,-0.005
4865,0.075,-0.015
4866,0.025,-0.055
4867,0.265,0.005
4868,-0.245,0.105
4869,-0.025,-0.015
4870,-0.125,-0.015
4871,-0.135,-0.115
4872,-0.095,-0.115
4873,-0.115,-0.075
4874,-0.105,-0.085
4875,-0.115,-0.065
4876,-0.155,-0.005
4877,-0.145,0.185
4878,0.175,0.375
4879,0.635,0.315
4880,0.805,-0.245
4881,0.145,-0.655
4882,-0.055,-0.345
4883,-0.125,-0.135
4884,-0.145,-0.085
4885,-0.185,-0.065
4886,-0.195,-0.045
4887,-0.195,-0.055
4888,-0.195,-0.045
4889,-0.205,-0.045
4890,-0.195,-0.035
4891,-0.205,-0.035
4892,-0.205,-0.025
4893,-0.215,-0.025
4894,-0.205,-0.015
4895,-0.215,-0.025
4896,-0.215,-0.005
4897,-0.215,-0.005
4898,-0.215,-0.015
4899,-0.215,0.005
4900,-0.215,0.005
4901,-0.205,0.025
4902,-0.205,0.025
4903,-0.195,0.055
4904,-0.165,0.065
4905,-0.135,0.065
4906,-0.135,0.075
4907,-0.145,0.085
4908,-0.115,0.085
4909,-0.115,0.075
4910,-0.105,0.075
4911,-0.095,0.075
4912,-0.085,0.055
4913,-0.105,0.045
4914,-0.105,0.015
4915,-0.125,-0.005
4916,-0.125,-0.015
4917,-0.125,-0.025
4918,-0.165,-0.055
4919,-0.175,-0.065
4920,-0.165,-0.065
4921,-0.165,-0.065
4922,-0.165,-0.055
4923,-0.155,-0.055
4924,-0.155,-0.065
4925,-0.145,-0.055
4926,-0.155,-0.055
4927,-0.145,-0.055
4928,-0.135,-0.045
4929,-0.135,-0.045
4930,-0.135,-0.055
4931,-0.135,-0.055
4932,-0.145,-0.055
4933,-0.135,-0.065
4934,-0.145,-0.055
4935,-0.135,-0.065
4936,-0.125,-0.065
4937,-0.125,-0.065
4938,-0.125,-0.045
4939,-0.115,-0.045
4940,-0.095,-0.045
4941,-0.075,-0.035
4942,-0.055,-0.015
4943,-0.045,-0.045
4944,-0.045,-0.045
4945,-0.055,-0.055
4946,-0.035,-0.035
4947,-0.085,-0.055
4948,-0.105,-0.065
4949,-0.135,-0.075
4950,-0.155,-0.075
4951,-0.165,-0.085
4952,-0.155,-0.085
4953,-0.165,-0.075
4954,-0.205,-0.035
4955,-0.205,0.155
4956,0.105,0.255
4957,0.515,0.155
4958,0.585,-0.345
4959,0.035,-0.685
4960,-0.125,-0.385
4961,-0.155,-0.165
4962,-0.185,-0.105
4963,-0.215,-0.075
4964,-0.215,-0.065
4965,-0.205,-0.065
4966,-0.205,-0.065
4967,-0.215,-0.075
4968,-0.215,-0.055
4969,-0.215,-0.065
4970,-0.205,-0.045
4971,-0.195,-0.045
4972,-0.185,-0.035
4973,-0.185,-0.025
4974,-0.175,-0.015
4975,-0.185,-0.025
4976,-0.175,-0.025
4977,-0.175,-0.015
4978,-0.155,0.005
4979,-0.155,0.015
4980,-0.145,0.025
4981,-0.135,0.025
4982,-0.135,0.035
4983,-0.115,0.055
4984,-0.095,0.065
4985,-0.085,0.065
4986,-0.075,0.065
4987,-0.065,0.065
4988,-0.055,0.055
4989,-0.065,0.055
4990,-0.065,0.045
4991,-0.075,0.025
4992,-0.085,0.015
4993,-0.085,-0.005
4994,-0.105,-0.015
4995,-0.115,-0.035
4996,-0.125,-0.045
4997,-0.125,-0.045
4998,-0.135,-0.045
4999,-0.135,-0.055
5000,-0.125,-0.035
5001,-0.125,-0.045
5002,-0.115,-0.045
5003,-0.125,-0.035
5004,-0.125,-0.035
5005,-0.125,-0.035
5006,-0.125,-0.035
5007,-0.125,-0.035
5008,-0.115,-0.045
5009,-0.135,-0.045
5010,-0.125,-0.045
5011,-0.125,-0.045
5012,-0.125,-0.045
5013,-0.125,-0.045
5014,-0.115,-0.035
5015,-0.115,-0.025
5016,-0.105,-0.015
5017,-0.075,-0.005
5018,-0.065,-0.005
5019,-0.055,-0.005
5020,-0.035,-0.015
5021,-0.015,-0.015
5022,-0.035,-0.025
5023,-0.035,-0.015
5024,-0.055,-0.045
5025,-0.095,-0.045
5026,-0.115,-0.035
5027,-0.135,-0.055
5028,-0.145,-0.075
5029,-0.145,-0.055
5030,-0.155,-0.055
5031,-0.185,-0.025
5032,-0.175,0.155
5033,0.085,0.285
5034,0.505,0.225
5035,0.735,-0.225
5036,0.165,-0.665
5037,-0.075,-0.415
5038,-0.125,-0.175
5039,-0.155,-0.085
5040,-0.185,-0.075
5041,-0.215,-0.055
5042,-0.195,-0.045
5043,-0.205,-0.045
5044,-0.195,-0.035
5045,-0.195,-0.025
5046,-0.205,-0.025
5047,-0.205,-0.025
5048,-0.195,-0.015
5049,-0.195,-0.015
5050,-0.185,-0.015
5051,-0.185,-0.005
5052,-0.175,0.015
5053,-0.175,0.025
5054,-0.165,0.005
5055,-0.165,0.015
5056,-0.155,0.025
5057,-0.135,0.045
5058,-0.135,0.065
5059,-0.125,0.075
5060,-0.115,0.085
5061,-0.095,0.095
5062,-0.095,0.105
5063,-0.085,0.105
5064,-0.075,0.105
5065,-0.065,0.105
5066,-0.055,0.105
5067,-0.045,0.095
5068,-0.055,0.075
5069,-0.065,0.055
5070,-0.075,0.025
5071,-0.105,0.005
5072,-0.095,0.005
5073,-0.105,-0.025
5074,-0.115,-0.025
5075,-0.115,-0.015
5076,-0.115,-0.025
5077,-0.115,-0.025
5078,-0.115,-0.015
5079,-0.115,-0.015
5080,-0.105,-0.015
5081,-0.105,-0.015
5082,-0.095,-0.005
5083,-0.105,-0.005
5084,-0.105,-0.015
5085,-0.105,-0.015
5086,-0.105,-0.015
5087,-0.105,-0.015
5088,-0.105,-0.015
5089,-0.105,-0.015
5090,-0.105,-0.015
5091,-0.105,-0.015
5092,-0.095,-0.005
5093,-0.075,0.005
5094,-0.065,0.015
5095,-0.055,0.025
5096,-0.045,0.035
5097,-0.025,0.015
5098,-0.005,0.015
5099,-0.015,-0.015
5100,-0.015,0.005
5101,-0.045,-0.005
5102,-0.085,-0.025
5103,-0.115,-0.035
5104,-0.115,-0.035
5105,-0.145,-0.045
5106,-0.135,-0.035
5107,-0.145,-0.045
5108,-0.165,-0.015
5109,-0.175,0.145
5110,0.025,0.325
5111,0.445,0.265
5112,0.715,-0.205
5113,0.185,-0.685
5114,-0.055,-0.405
5115,-0.125,-0.145
5116,-0.145,-0.065
5117,-0.165,-0.035
5118,-0.195,-0.035
5119,-0.195,-0.025
5120,-0.195,-0.015
5121,-0.195,-0.015
5122,-0.195,-0.015
5123,-0.195,-0.015
5124,-0.185,-0.005
5125,-0.195,0.005
5126,-0.185,0.015
5127,-0.185,0.005
5128,-0.175,0.015
5129,-0.175,0.035
5130,-0.155,0.035
5131,-0.165,0.025
5132,-0.145,0.045
5133,-0.145,0.055
5134,-0.145,0.055
5135,-0.135,0.075
5136,-0.115,0.095
5137,-0.115,0.095
5138,-0.095,0.105
5139,-0.095,0.115
5140,-0.085,0.115
5141,-0.075,0.115
5142,-0.075,0.115
5143,-0.075,0.105
5144,-0.065,0.105
5145,-0.065,0.095
5146,-0.065,0.085
5147,-0.075,0.065
5148,-0.075,0.045
5149,-0.085,0.035
5150,-0.095,0.025
5151,-0.105,0.015
5152,-0.105,0.015
5153,-0.095,0.005
5154,-0.105,0.005
5155,-0.105,0.015
5156,-0.105,0.005
5157,-0.105,0.015
5158,-0.095,0.015
5159,-0.095,0.015
5160,-0.095,0.015
5161,-0.095,0.015
5162,-0.085,0.015
5163,-0.095,0.005
5164,-0.095,0.005
5165,-0.095,0.015
5166,-0.095,0.005
5167,-0.115,0.005
5168,-0.085,0.015
5169,-0.075,0.015
5170,-0.065,0.045
5171,-0.045,0.055
5172,-0.035,0.035
5173,-0.025,0.025
5174,0.005,0.025
5175,0.005,0.015
5176,-0.015,0.025
5177,-0.025,0.015
5178,-0.065,-0.005
5179,-0.105,-0.015
5180,-0.135,-0.025
5181,-0.135,-0.035
5182,-0.135,-0.025
5183,-0.135,-0.035
5184,-0.145,-0.025
5185,-0.165,0.095
5186,-0.065,0.325
5187,0.345,0.295
5188,0.685,-0.025
5189,0.345,-0.625
5190,-0.005,-0.505
5191,-0.095,-0.185
5192,-0.125,-0.065
5193,-0.165,-0.035
5194,-0.185,-0.035
5195,-0.195,-0.015
5196,-0.185,-0.005
5197,-0.195,-0.005
5198,-0.185,-0.015
5199,-0.185,-0.005
5200,-0.175,-0.005
5201,-0.175,0.005
5202,-0.165,0.015
5203,-0.165,0.015
5204,-0.175,0.015
5205,-0.165,0.025
5206,-0.145,0.025
5207,-0.155,0.025
5208,-0.145,0.045
5209,-0.135,0.045
5210,-0.125,0.075
5211,-0.135,0.085
5212,-0.105,0.055
5213,-0.085,0.065
5214,-0.085,0.085
5215,-0.065,0.095
5216,-0.065,0.085
5217,-0.055,0.085
5218,-0.045,0.095
5219,-0.045,0.085
5220,-0.035,0.085
5221,-0.045,0.075
5222,-0.055,0.065
5223,-0.055,0.045
5224,-0.065,0.025
5225,-0.085,0.015
5226,-0.095,0.015
5227,-0.085,0.015
5228,-0.095,0.005
5229,-0.095,0.015
5230,-0.095,0.015
5231,-0.095,0.015
5232,-0.085,0.015
5233,-0.075,0.015
5234,-0.075,0.015
5235,-0.085,0.015
5236,-0.085,0.015
5237,-0.085,0.025
5238,-0.085,0.005
5239,-0.085,0.005
5240,-0.075,0.005
5241,-0.095,0.005
5242,-0.095,0.005
5243,-0.085,0.015
5244,-0.075,0.025
5245,-0.055,0.035
5246,-0.045,0.045
5247,-0.025,0.045
5248,-0.015,0.025
5249,-0.005,0.055
5250,0.005,0.015
5251,-0.015,0.025
5252,-0.015,0.015
5253,-0.055,-0.005
5254,-0.105,-0.015
5255,-0.135,-0.035
5256,-0.135,-0.035
5257,-0.135,-0.025
5258,-0.125,-0.035
5259,-0.155,-0.005
5260,-0.165,0.125
5261,-0.025,0.335
5262,0.415,0.335
5263,0.755,-0.015
5264,0.345,-0.625
5265,-0.015,-0.455
5266,-0.095,-0.155
5267,-0.125,-0.055
5268,-0.165,-0.045
5269,-0.175,-0.035
5270,-0.185,-0.025
5271,-0.185,-0.025
5272,-0.185,-0.005
5273,-0.175,-0.015
5274,-0.175,-0.005
5275,-0.175,-0.005
5276,-0.165,-0.005
5277,-0.175,0.005
5278,-0.165,0.005
5279,-0.155,0.015
5280,-0.145,0.015
5281,-0.145,0.025
5282,-0.145,0.035
5283,-0.145,0.035
5284,-0.135,0.045
5285,-0.135,0.045
5286,-0.135,0.065
5287,-0.115,0.095
5288,-0.115,0.105
5289,-0.075,0.085
5290,-0.075,0.095
5291,-0.065,0.095
5292,-0.055,0.075
5293,-0.045,0.085
5294,-0.045,0.085
5295,-0.055,0.075
5296,-0.045,0.065
5297,-0.055,0.075
5298,-0.045,0.045
5299,-0.075,0.025
5300,-0.085,0.005
5301,-0.095,0.005
5302,-0.105,0.005
5303,-0.105,0.005
5304,-0.095,0.005
5305,-0.095,-0.005
5306,-0.105,0.005
5307,-0.105,0.005
5308,-0.115,-0.005
5309,-0.115,0.025
5310,-0.105,0.005
5311,-0.105,0.005
5312,-0.105,-0.005
5313,-0.085,-0.015
5314,-0.095,0.005
5315,-0.115,-0.025
5316,-0.105,-0.025
5317,-0.075,-0.005
5318,-0.065,0.005
5319,-0.075,0.015
5320,-0.045,0.025
5321,-0.035,0.035
5322,-0.015,0.025
5323,-0.015,0.015
5324,0.005,0.015
5325,-0.025,0.015
5326,-0.045,0.045
5327,-0.065,0.015
5328,-0.085,-0.055
5329,-0.095,-0.045
5330,-0.115,-0.045
5331,-0.125,-0.045
5332,-0.125,-0.035
5333,-0.135,-0.045
5334,-0.175,-0.005
5335,-0.175,0.155
5336,0.095,0.275
5337,0.505,0.155
5338,0.715,-0.285
5339,0.125,-0.675
5340,-0.075,-0.415
5341,-0.125,-0.165
5342,-0.145,-0.075
5343,-0.185,-0.045
5344,-0.195,-0.045
5345,-0.175,-0.035
5346,-0.185,-0.035
5347,-0.185,-0.025
5348,-0.185,-0.025
5349,-0.185,-0.025
5350,-0.185,-0.015
5351,-0.175,-0.005
5352,-0.175,0.005
5353,-0.175,-0.005
5354,-0.165,-0.005
5355,-0.155,-0.005
5356,-0.155,0.005
5357,-0.165,0.025
5358,-0.135,0.015
5359,-0.135,0.025
5360,-0.135,0.035
5361,-0.125,0.035
5362,-0.115,0.055
5363,-0.115,0.065
5364,-0.095,0.065
5365,-0.105,0.065
5366,-0.085,0.065
5367,-0.065,0.065
5368,-0.065,0.065
5369,-0.075,0.055
5370,-0.075,0.055
5371,-0.075,0.045
5372,-0.075,0.045
5373,-0.075,0.045
5374,-0.085,0.035
5375,-0.105,0.015
5376,-0.105,0.005
5377,-0.105,0.005
5378,-0.095,0.005
5379,-0.095,0.025
5380,-0.105,0.005
5381,-0.105,0.025
5382,-0.115,-0.005
5383,-0.105,0.005
5384,-0.085,0.015
5385,-0.085,0.005
5386,-0.085,0.015
5387,-0.095,-0.005
5388,-0.085,-0.005
5389,-0.085,0.015
5390,-0.075,0.025
5391,-0.065,0.025
5392,-0.065,0.025
5393,-0.035,0.035
5394,-0.025,0.045
5395,0.005,0.055
5396,0.005,0.035
5397,0.015,0.025
5398,0.005,0.025
5399,0.005,0.025
5400,-0.035,0.005
5401,-0.075,-0.005
5402,-0.095,-0.005
5403,-0.115,-0.015
5404,-0.115,-0.025
5405,-0.115,-0.025
5406,-0.125,-0.015
5407,-0.145,0.025
5408,-0.135,0.175
5409,0.125,0.305
5410,0.495,0.155
5411,0.665,-0.305
5412,0.095,-0.655
5413,-0.085,-0.395
5414,-0.115,-0.125
5415,-0.115,-0.035
5416,-0.135,-0.025
5417,-0.135,0.005
5418,-0.135,0.015
5419,-0.135,-0.005
5420,-0.105,0.005
5421,-0.095,0.015
5422,-0.105,0.015
5423,-0.115,0.015
5424,-0.095,0.005
5425,-0.095,0.015
5426,-0.085,0.025
5427,-0.105,0.035
5428,-0.085,0.045
5429,-0.095,0.035
5430,-0.085,0.045
5431,-0.085,0.055
5432,-0.085,0.055
5433,-0.085,0.075
5434,-0.075,0.065
5435,-0.075,0.075
5436,-0.065,0.095
5437,-0.075,0.105
5438,-0.065,0.105
5439,-0.065,0.095
5440,-0.045,0.085
5441,-0.035,0.075
5442,-0.045,0.085
5443,-0.045,0.075
5444,-0.055,0.075
5445,-0.055,0.065
5446,-0.075,0.065
5447,-0.095,0.055
5448,-0.115,0.045
5449,-0.105,0.045
5450,-0.125,0.045
5451,-0.115,0.035
5452,-0.125,0.045
5453,-0.115,0.045
5454,-0.135,0.045
5455,-0.125,0.045
5456,-0.105,0.045
5457,-0.095,0.045
5458,-0.115,0.045
5459,-0.115,0.055
5460,-0.105,0.045
5461,-0.105,0.045
5462,-0.105,0.045
5463,-0.105,0.045
5464,-0.095,0.055
5465,-0.095,0.055
5466,-0.085,0.055
5467,-0.045,0.075
5468,-0.035,0.075
5469,-0.035,0.075
5470,-0.015,0.065
5471,-0.015,0.055
5472,-0.025,0.055
5473,-0.015,0.065
5474,-0.055,0.045
5475,-0.095,0.035
5476,-0.115,0.025
5477,-0.145,0.015
5478,-0.165,0.015
5479,-0.135,0.025
5480,-0.135,0.025
5481,-0.165,0.095
5482,-0.115,0.265
5483,0.235,0.295
5484,0.585,0.135
5485,0.535,-0.315
5486,0.035,-0.495
5487,-0.095,-0.265
5488,-0.135,-0.075
5489,-0.155,-0.015
5490,-0.175,0.015
5491,-0.185,0.015
5492,-0.185,0.025
5493,-0.185,0.025
5494,-0.195,0.035
5495,-0.185,0.035
5496,-0.175,0.035
5497,-0.175,0.045
5498,-0.175,0.055
5499,-0.165,0.055
5500,-0.165,0.055
5501,-0.155,0.055
5502,-0.175,0.065
5503,-0.145,0.075
5504,-0.135,0.085
5505,-0.125,0.085
5506,-0.125,0.095
5507,-0.115,0.105
5508,-0.115,0.105
5509,-0.095,0.115
5510,-0.085,0.115
5511,-0.085,0.125
5512,-0.055,0.125
5513,-0.055,0.125
5514,-0.055,0.125
5515,-0.045,0.125
5516,-0.045,0.115
5517,-0.045,0.105
5518,-0.045,0.105
5519,-0.055,0.095
5520,-0.065,0.075
5521,-0.075,0.065
5522,-0.085,0.065
5523,-0.095,0.055
5524,-0.095,0.045
5525,-0.095,0.045
5526,-0.105,0.045
5527,-0.095,0.055
5528,-0.095,0.045
5529,-0.095,0.045
5530,-0.085,0.045
5531,-0.095,0.045
5532,-0.095,0.045
5533,-0.095,0.045
5534,-0.095,0.055
5535,-0.095,0.045
5536,-0.095,0.045
5537,-0.095,0.045
5538,-0.095,0.045
5539,-0.075,0.055
5540,-0.065,0.065
5541,-0.055,0.065
5542,-0.035,0.065
5543,-0.025,0.065
5544,-0.015,0.055
5545,0.005,0.055
5546,-0.015,0.055
5547,-0.025,0.045
5548,-0.055,0.035
5549,-0.085,0.025
5550,-0.105,0.015
5551,-0.125,0.015
5552,-0.125,0.015
5553,-0.135,0.015
5554,-0.135,0.025
5555,-0.175,0.065
5556,-0.165,0.145
5557,0.145,0.175
5558,0.535,0.045
5559,0.555,-0.235
5560,0.035,-0.355
5561,-0.115,-0.235
5562,-0.135,-0.095
5563,-0.155,-0.035
5564,-0.175,-0.015
5565,-0.175,0.005
5566,-0.185,0.005
5567,-0.185,0.015
5568,-0.165,0.015
5569,-0.165,0.025
5570,-0.155,0.035
5571,-0.165,0.035
5572,-0.165,0.035
5573,-0.155,0.045
5574,-0.175,0.035
5575,-0.155,0.035
5576,-0.155,0.045
5577,-0.155,0.055
5578,-0.135,0.065
5579,-0.135,0.075
5580,-0.125,0.075
5581,-0.125,0.085
5582,-0.115,0.095
5583,-0.095,0.095
5584,-0.085,0.105
5585,-0.075,0.115
5586,-0.055,0.105
5587,-0.065,0.105
5588,-0.055,0.105
5589,-0.055,0.105
5590,-0.055,0.095
5591,-0.055,0.085
5592,-0.055,0.085
5593,-0.065,0.065
5594,-0.075,0.065
5595,-0.095,0.045
5596,-0.105,0.035
5597,-0.105,0.025
5598,-0.105,0.025
5599,-0.105,0.025
5600,-0.105,0.025
5601,-0.105,0.025
5602,-0.085,0.015
5603,-0.095,0.025
5604,-0.095,0.015
5605,-0.085,0.035
5606,-0.095,0.035
5607,-0.095,0.025
5608,-0.095,0.025
5609,-0.085,0.025
5610,-0.075,0.025
5611,-0.095,0.015
5612,-0.075,0.025
5613,-0.065,0.035
5614,-0.065,0.045
5615,-0.045,0.055
5616,-0.025,0.055
5617,-0.005,0.045
5618,-0.005,0.045
5619,0.005,0.025
5620,-0.015,0.025
5621,-0.015,0.035
5622,-0.025,0.015
5623,-0.065,-0.005
5624,-0.095,-0.005
5625,-0.105,-0.015
5626,-0.115,-0.015
5627,-0.105,-0.015
5628,-0.105,-0.015
5629,-0.135,0.005
5630,-0.145,0.145
5631,-0.005,0.285
5632,0.315,0.255
5633,0.645,-0.035
5634,0.265,-0.595
5635,-0.035,-0.465
5636,-0.105,-0.185
5637,-0.115,-0.055
5638,-0.145,-0.025
5639,-0.165,-0.015
5640,-0.165,-0.015
5641,-0.175,-0.015
5642,-0.175,-0.015
5643,-0.165,-0.005
5644,-0.145,0.005
5645,-0.165,0.005
5646,-0.145,0.005
5647,-0.155,0.015
5648,-0.145,0.015
5649,-0.135,0.025
5650,-0.125,0.035
5651,-0.125,0.035
5652,-0.125,0.025
5653,-0.125,0.035
5654,-0.115,0.045
5655,-0.115,0.055
5656,-0.085,0.065
5657,-0.085,0.075
5658,-0.055,0.085
5659,-0.055,0.095
5660,-0.035,0.095
5661,-0.025,0.095
5662,-0.025,0.095
5663,-0.025,0.085
5664,-0.025,0.075
5665,-0.035,0.065
5666,-0.035,0.065
5667,-0.045,0.055
5668,-0.055,0.035
5669,-0.055,0.025
5670,-0.075,0.025
5671,-0.075,0.015
5672,-0.105,0.015
5673,-0.055,0.005
5674,-0.065,0.005
5675,-0.065,0.005
5676,-0.065,0.015
5677,-0.055,0.015
5678,-0.065,0.015
5679,-0.065,0.005
5680,-0.045,0.015
5681,-0.045,0.025
5682,-0.045,0.035
5683,-0.055,0.025
5684,-0.055,0.015
5685,-0.035,0.025
5686,-0.045,0.015
5687,-0.045,0.015
5688,-0.035,0.025
5689,-0.035,0.035
5690,-0.005,0.045
5691,0.015,0.045
5692,0.025,0.045
5693,0.025,0.035
5694,0.035,0.025
5695,0.025,0.025
5696,0.025,0.025
5697,-0.015,-0.005
5698,-0.055,-0.005
5699,-0.095,-0.015
5700,-0.105,-0.025
5701,-0.105,-0.025
5702,-0.095,-0.035
5703,-0.115,-0.025
5704,-0.145,0.025
5705,-0.125,0.215
5706,0.185,0.285
5707,0.555,0.175
5708,0.675,-0.295
5709,0.105,-0.605
5710,-0.075,-0.325
5711,-0.115,-0.115
5712,-0.115,-0.055
5713,-0.155,-0.035
5714,-0.165,-0.025
5715,-0.175,-0.005
5716,-0.155,-0.005
5717,-0.155,-0.005
5718,-0.155,0.005
5719,-0.165,0.005
5720,-0.155,0.015
5721,-0.145,0.015
5722,-0.135,0.015
5723,-0.145,0.015
5724,-0.135,0.015
5725,-0.135,0.025
5726,-0.135,0.035
5727,-0.135,0.035
5728,-0.105,0.045
5729,-0.105,0.055
5730,-0.085,0.075
5731,-0.085,0.085
5732,-0.075,0.085
5733,-0.055,0.085
5734,-0.055,0.095
5735,-0.045,0.105
5736,-0.025,0.095
5737,-0.015,0.095
5738,-0.005,0.095
5739,-0.015,0.095
5740,-0.025,0.085
5741,-0.025,0.075
5742,-0.015,0.065
5743,-0.025,0.035
5744,-0.045,0.035
5745,-0.055,0.025
5746,-0.065,0.005
5747,-0.065,0.005
5748,-0.065,-0.005
5749,-0.055,0.005
5750,-0.075,0.005
5751,-0.065,0.005
5752,-0.065,0.015
5753,-0.065,0.005
5754,-0.045,0.005
5755,-0.055,0.015
5756,-0.045,0.005
5757,-0.055,0.015
5758,-0.055,0.005
5759,-0.045,0.005
5760,-0.055,0.015
5761,-0.055,0.005
5762,-0.055,0.015
5763,-0.145,0.005
5764,-0.045,0.035
5765,0.035,0.035
5766,0.075,0.055
5767,0.075,0.045
5768,0.065,0.025
5769,0.075,0.015
5770,0.065,0.015
5771,0.055,0.035
5772,0.025,0.005
5773,0.005,-0.005
5774,-0.025,-0.005
5775,-0.035,-0.015
5776,-0.035,-0.015
5777,-0.055,-0.015
5778,-0.055,-0.015
5779,-0.095,-0.005
5780,-0.105,0.105
5781,0.065,0.245
5782,0.415,0.165
5783,0.715,-0.215
5784,0.225,-0.605
5785,-0.015,-0.395
5786,-0.035,-0.115
5787,-0.065,-0.045
5788,-0.125,-0.035
5789,-0.135,-0.025
5790,-0.135,-0.015
5791,-0.115,-0.005
5792,-0.115,-0.015
5793,-0.135,-0.015
5794,-0.115,0.005
5795,-0.135,-0.005
5796,-0.125,-0.005
5797,-0.125,-0.005
5798,-0.145,0.015
5799,-0.135,0.005
5800,-0.165,0.005
5801,-0.215,-0.005
5802,-0.135,0.025
5803,-0.065,0.015
5804,-0.085,0.025
5805,-0.055,0.025
5806,-0.065,0.025
5807,-0.045,0.045
5808,-0.035,0.045
5809,-0.035,0.045
5810,-0.005,0.055
5811,-0.015,0.035
5812,0.005,0.025
5813,-0.005,0.035
5814,-0.005,0.015
5815,-0.005,0.015
5816,-0.025,0.025
5817,-0.045,0.025
5818,-0.085,0.055
5819,-0.055,0.035
5820,-0.035,0.035
5821,-0.025,0.035
5822,-0.045,0.025
5823,-0.045,0.025
5824,-0.015,0.015
5825,-0.055,0.005
5826,-0.045,0.025
5827,-0.035,0.025
5828,-0.045,0.025
5829,-0.055,0.035
5830,-0.045,0.025
5831,-0.055,0.035
5832,-0.025,0.035
5833,-0.085,0.025
5834,-0.135,0.005
5835,-0.075,0.025
5836,-0.045,0.015
5837,-0.035,0.025
5838,-0.005,0.025
5839,0.015,0.045
5840,0.035,0.055
5841,0.055,0.075
5842,0.045,0.065
5843,0.055,0.035
5844,0.055,0.035
5845,0.035,0.025
5846,0.025,0.015
5847,-0.025,0.005
5848,-0.055,0.005
5849,-0.075,-0.015
5850,-0.095,-0.025
5851,-0.095,-0.025
5852,-0.095,-0.025
5853,-0.125,-0.015
5854,-0.175,0.075
5855,-0.135,0.215
5856,0.225,0.165
5857,0.635,-0.145
5858,0.315,-0.625
5859,0.085,-0.505
5860,-0.005,-0.195
5861,-0.055,-0.055
5862,-0.115,-0.035
5863,-0.125,-0.035
5864,-0.145,-0.025
5865,-0.135,-0.015
5866,-0.135,-0.005
5867,-0.125,-0.015
5868,-0.125,-0.015
5869,-0.155,-0.015
5870,-0.135,-0.005
5871,-0.135,-0.005
5872,-0.135,-0.015
5873,-0.135,-0.005
5874,-0.135,0.005
5875,-0.145,0.005
5876,-0.135,0.015
5877,-0.115,0.015
5878,-0.135,0.005
5879,-0.115,0.015
5880,-0.095,0.035
5881,-0.085,0.025
5882,-0.125,0.025
5883,-0.105,0.035
5884,-0.025,0.045
5885,-0.055,0.035
5886,-0.055,0.055
5887,-0.055,0.035
5888,-0.025,0.035
5889,-0.025,0.025
5890,0.005,0.045
5891,-0.015,0.045
5892,-0.005,0.035
5893,-0.025,0.025
5894,-0.045,0.025
5895,-0.065,0.005
5896,-0.055,0.015
5897,-0.055,0.015
5898,-0.055,0.015
5899,-0.055,0.005
5900,-0.055,0.015
5901,-0.065,0.015
5902,-0.075,0.005
5903,-0.065,0.015
5904,-0.075,0.005
5905,-0.045,0.015
5906,-0.055,0.015
5907,-0.055,0.015
5908,-0.085,0.005
5909,-0.055,-0.005
5910,-0.055,-0.005
5911,-0.045,0.025
5912,-0.055,0.035
5913,-0.085,0.025
5914,-0.025,0.035
5915,-0.015,0.055
5916,0.065,0.035
5917,0.045,0.035
5918,0.025,-0.005
5919,0.025,0.025
5920,-0.015,-0.015
5921,-0.055,0.005
5922,-0.055,-0.005
5923,-0.095,-0.035
5924,-0.105,-0.055
5925,-0.105,-0.025
5926,-0.125,-0.035
5927,-0.125,-0.005
5928,-0.115,0.125
5929,0.065,0.225
5930,0.475,0.045
5931,0.585,-0.475
5932,0.115,-0.635
5933,-0.055,-0.325
5934,-0.035,-0.105
5935,-0.115,-0.055
5936,-0.155,-0.055
5937,-0.185,-0.035
5938,-0.165,-0.015
5939,-0.145,-0.055
5940,-0.155,-0.015
5941,-0.265,-0.025
5942,-0.245,-0.015
5943,-0.215,-0.035
5944,-0.195,-0.005
5945,-0.175,-0.035
5946,-0.115,-0.015
5947,-0.145,-0.015
5948,-0.115,-0.005
5949,-0.105,-0.005
5950,-0.135,0.015
5951,-0.105,-0.005
5952,-0.115,0.015
5953,-0.095,0.025
5954,-0.085,0.005
5955,-0.075,0.005
5956,-0.075,-0.005
5957,-0.075,-0.015
5958,-0.075,-0.015
5959,-0.065,-0.025
5960,-0.035,-0.015
5961,-0.055,-0.015
5962,-0.025,-0.015
5963,-0.005,0.005
5964,-0.055,0.025
5965,-0.105,0.015
5966,-0.085,0.005
5967,-0.045,-0.005
5968,-0.065,-0.005
5969,-0.085,0.005
5970,-0.105,0.015
5971,-0.125,-0.015
5972,-0.135,-0.005
5973,-0.225,-0.025
5974,-0.145,-0.005
5975,-0.085,0.015
5976,-0.045,0.035
5977,-0.155,0.005
5978,-0.055,0.005
5979,-0.065,-0.005
5980,-0.055,0.005
5981,-0.125,0.025
5982,-0.125,0.005
5983,-0.025,-0.005
5984,-0.025,0.015
5985,-0.025,0.025
5986,-0.015,0.035
5987,-0.015,0.055
5988,0.015,0.045
5989,0.025,0.015
5990,0.005,0.005
5991,-0.035,0.005
5992,-0.025,0.005
5993,-0.125,-0.025
5994,-0.105,-0.075
5995,-0.145,-0.065
5996,-0.055,-0.025
5997,-0.095,-0.055
5998,-0.065,-0.025
5999,-0.105,-0.085
6000,-0.145,0.005
6001,-0.105,0.195
6002,0.165,0.205
6003,0.585,-0.135
6004,0.525,-0.645
6005,0.065,-0.625
6006,-0.085,-0.285
6007,-0.125,-0.125
6008,-0.195,-0.125
6009,-0.215,-0.105
6010,-0.235,-0.095
6011,-0.255,-0.085
6012,-0.245,-0.085
6013,-0.215,-0.075
6014,-0.205,-0.065
6015,-0.215,-0.065
6016,-0.295,-0.055
6017,-0.205,-0.055
6018,-0.195,-0.085
6019,-0.205,-0.065
6020,-0.215,-0.065
6021,-0.205,-0.045
6022,-0.155,-0.025
6023,-0.105,-0.025
6024,-0.135,-0.015
6025,-0.115,-0.005
6026,-0.145,0.005
6027,-0.165,0.005
6028,-0.085,0.025
6029,-0.085,0.035
6030,-0.075,0.045
6031,-0.085,0.035
6032,-0.085,0.045
6033,-0.065,0.035
6034,-0.055,0.055
6035,-0.055,0.055
6036,-0.065,0.065
6037,-0.075,0.055
6038,-0.075,0.055
6039,-0.085,0.025
6040,-0.145,0.025
6041,-0.015,0.015
6042,-0.045,0.015
6043,-0.045,0.015
6044,-0.055,0.015
6045,-0.065,0.025
6046,-0.055,0.025
6047,-0.065,0.025
6048,-0.065,0.035
6049,-0.055,0.035
6050,-0.045,0.035
6051,-0.065,0.015
6052,-0.105,0.025
6053,-0.045,0.035
6054,-0.035,0.035
6055,-0.025,0.045
6056,0.015,0.045
6057,0.015,0.065
6058,0.025,0.085
6059,0.035,0.085
6060,-0.005,0.065
6061,0.035,0.055
6062,0.085,0.045
6063,0.065,0.035
6064,0.045,0.025
6065,-0.015,0.015
6066,-0.065,-0.005
6067,-0.065,0.005
6068,-0.065,0.005
6069,-0.055,-0.005
6070,-0.095,0.015
6071,-0.115,0.125
6072,0.035,0.305
6073,0.385,0.195
6074,0.605,-0.325
6075,0.185,-0.565
6076,0.015,-0.275
6077,-0.095,-0.065
6078,-0.065,-0.025
6079,-0.135,-0.035
6080,-0.175,-0.025
6081,-0.095,-0.015
6082,-0.055,0.005
6083,-0.105,-0.005
6084,-0.115,0.015
6085,-0.085,0.015
6086,-0.095,0.005
6087,-0.135,-0.015
6088,-0.095,0.005
6089,-0.075,0.015
6090,-0.105,0.015
6091,-0.085,0.015
6092,-0.085,0.005
6093,-0.105,0.015
6094,-0.135,0.015
6095,-0.115,0.025
6096,-0.055,0.015
6097,-0.105,0.005
6098,-0.085,0.025
6099,-0.125,-0.005
6100,-0.115,0.005
6101,-0.045,-0.015
6102,-0.065,-0.025
6103,-0.025,-0.005
6104,-0.005,0.005
6105,-0.015,0.005
6106,-0.005,0.035
6107,-0.005,0.045
6108,0.005,0.055
6109,-0.025,0.055
6110,-0.035,0.055
6111,-0.035,0.055
6112,-0.045,0.045
6113,-0.035,0.055
6114,-0.025,0.055
6115,-0.045,0.035
6116,-0.075,0.055
6117,-0.055,0.035
6118,-0.065,0.055
6119,-0.025,0.045
6120,-0.045,0.045
6121,-0.095,0.025
6122,-0.105,0.035
6123,-0.135,0.045
6124,-0.085,0.055
6125,-0.055,0.055
6126,0.045,0.075
6127,0.005,0.055
6128,0.025,0.085
6129,0.095,0.075
6130,0.095,0.065
6131,0.045,0.055
6132,0.025,0.055
6133,-0.005,0.015
6134,-0.045,0.015
6135,-0.065,0.015
6136,-0.075,0.005
6137,-0.095,-0.005
6138,-0.105,-0.005
6139,-0.115,-0.005
6140,-0.115,-0.005
6141,-0.135,0.095
6142,-0.105,0.265
6143,0.215,0.225
6144,0.525,-0.115
6145,0.415,-0.645
6146,0.005,-0.485
6147,-0.005,-0.155
6148,-0.085,-0.055
6149,-0.155,-0.025
6150,-0.165,-0.005
6151,-0.115,0.015
6152,-0.165,0.015
6153,-0.155,0.015
6154,-0.175,0.005
6155,-0.175,0.005
6156,-0.185,0.015
6157,-0.195,0.005
6158,-0.175,0.015
6159,-0.205,0.015
6160,-0.185,0.025
6161,-0.185,0.025
6162,-0.215,0.045
6163,-0.185,0.045
6164,-0.195,0.045
6165,-0.145,0.035
6166,-0.205,0.045
6167,-0.225,0.035
6168,-0.185,0.055
6169,-0.135,0.045
6170,-0.115,0.055
6171,-0.175,0.045
6172,-0.155,0.055
6173,-0.185,0.085
6174,-0.075,0.045
6175,-0.095,0.055
6176,-0.115,0.095
6177,-0.055,0.095
6178,-0.045,0.095
6179,-0.085,0.075
6180,-0.085,0.055
6181,-0.105,0.055
6182,-0.075,0.045
6183,-0.095,0.045
6184,-0.095,0.035
6185,-0.105,0.045
6186,-0.115,0.035
6187,-0.115,0.035
6188,-0.095,0.055
6189,-0.085,0.045
6190,-0.115,0.035
6191,-0.125,0.045
6192,-0.115,0.045
6193,-0.115,0.045
6194,-0.145,0.055
6195,-0.185,0.065
6196,-0.115,0.075
6197,-0.065,0.075
6198,-0.035,0.085
6199,0.005,0.055
6200,-0.125,0.055
6201,-0.055,0.055
6202,-0.035,0.035
6203,-0.035,0.015
6204,-0.075,0.025
6205,-0.115,0.015
6206,-0.135,-0.005
6207,-0.145,-0.015
6208,-0.155,-0.005
6209,-0.145,-0.005
6210,-0.145,-0.005
6211,-0.175,0.105
6212,-0.145,0.265
6213,0.195,0.205
6214,0.595,-0.215
6215,0.385,-0.665
6216,0.025,-0.515
6217,-0.085,-0.165
6218,-0.185,-0.055
6219,-0.205,-0.035
6220,-0.155,-0.015
6221,-0.215,-0.015
6222,-0.245,-0.015
6223,-0.285,-0.005
6224,-0.265,-0.005
6225,-0.255,-0.005
6226,-0.265,-0.005
6227,-0.295,-0.015
6228,-0.285,-0.005
6229,-0.275,-0.015
6230,-0.285,-0.005
6231,-0.365,-0.015
6232,-0.315,-0.015
6233,-0.275,-0.005
6234,-0.285,0.005
6235,-0.275,0.015
6236,-0.305,0.025
6237,-0.295,0.035
6238,-0.255,0.045
6239,-0.285,0.045
6240,-0.275,0.055
6241,-0.285,0.055
6242,-0.285,0.065
6243,-0.305,0.065
6244,-0.205,0.075
6245,-0.185,0.095
6246,-0.155,0.065
6247,-0.175,0.065
6248,-0.195,0.035
6249,-0.175,0.015
6250,-0.235,0.005
6251,-0.215,0.005
6252,-0.215,-0.005
6253,-0.225,0.005
6254,-0.245,0.005
6255,-0.205,0.025
6256,-0.185,0.015
6257,-0.195,0.025
6258,-0.185,0.025
6259,-0.185,0.025
6260,-0.255,0.025
6261,-0.195,0.045
6262,-0.205,0.035
6263,-0.205,0.025
6264,-0.085,0.055
6265,-0.095,0.065
6266,-0.105,0.075
6267,-0.075,0.065
6268,-0.055,0.055
6269,-0.075,0.045
6270,-0.115,0.065
6271,-0.125,0.035
6272,-0.165,0.015
6273,-0.195,-0.005
6274,-0.175,0.005
6275,-0.215,-0.015
6276,-0.225,-0.005
6277,-0.225,-0.015
6278,-0.265,0.065
6279,-0.235,0.255
6280,-0.005,0.305
6281,0.315,0.135
6282,0.485,-0.425
6283,0.115,-0.605
6284,-0.045,-0.315
6285,-0.135,-0.085
6286,-0.185,-0.035
6287,-0.255,-0.025
6288,-0.265,-0.015
6289,-0.275,-0.005
6290,-0.285,-0.005
6291,-0.305,0.005
6292,-0.305,0.005
6293,-0.345,-0.015
6294,-0.285,-0.005
6295,-0.255,-0.005
6296,-0.255,0.005
6297,-0.255,0.015
6298,-0.275,0.015
6299,-0.275,0.015
6300,-0.275,0.015
6301,-0.255,0.015
6302,-0.285,0.025
6303,-0.275,0.035
6304,-0.255,0.015
6305,-0.245,0.025
6306,-0.235,0.025
6307,-0.225,0.025
6308,-0.265,0.025
6309,-0.225,0.025
6310,-0.215,0.025
6311,-0.215,0.035
6312,-0.145,0.045
6313,-0.155,0.045
6314,-0.145,0.065
6315,-0.155,0.065
6316,-0.165,0.065
6317,-0.175,0.065
6318,-0.185,0.055
6319,-0.215,0.045
6320,-0.215,0.025
6321,-0.215,0.025
6322,-0.215,0.025
6323,-0.215,0.025
6324,-0.215,0.025
6325,-0.175,0.025
6326,-0.195,0.025
6327,-0.205,0.035
6328,-0.195,0.025
6329,-0.215,0.025
6330,-0.185,0.035
6331,-0.185,0.045
6332,-0.165,0.045
6333,-0.135,0.065
6334,-0.135,0.075
6335,-0.105,0.055
6336,-0.095,0.035
6337,-0.095,0.015
6338,-0.105,0.025
6339,-0.175,0.005
6340,-0.235,0.015
6341,-0.195,-0.015
6342,-0.195,-0.015
6343,-0.195,-0.015
6344,-0.215,-0.015
6345,-0.235,-0.025
6346,-0.265,0.075
6347,-0.215,0.255
6348,0.125,0.245
6349,0.515,-0.075
6350,0.365,-0.665
6351,-0.005,-0.515
6352,-0.095,-0.195
6353,-0.165,-0.055
6354,-0.205,-0.015
6355,-0.235,-0.005
6356,-0.245,-0.005
6357,-0.245,-0.005
6358,-0.245,-0.005
6359,-0.235,0.005
6360,-0.255,0.015
6361,-0.235,0.025
6362,-0.195,0.015
6363,-0.225,0.015
6364,-0.235,0.015
6365,-0.205,0.025
6366,-0.205,0.025
6367,-0.195,0.035
6368,-0.185,0.055
6369,-0.185,0.065
6370,-0.185,0.055
6371,-0.165,0.065
6372,-0.165,0.065
6373,-0.145,0.085
6374,-0.135,0.085
6375,-0.105,0.115
6376,-0.105,0.105
6377,-0.095,0.115
6378,-0.065,0.125
6379,-0.045,0.125
6380,-0.035,0.145
6381,-0.025,0.135
6382,-0.035,0.125
6383,-0.015,0.105
6384,-0.035,0.085
6385,-0.085,0.055
6386,-0.095,0.065
6387,-0.045,0.045
6388,-0.055,0.025
6389,-0.055,0.035
6390,-0.055,0.035
6391,-0.085,0.035
6392,-0.085,0.025
6393,-0.085,0.025
6394,-0.105,0.035
6395,-0.085,0.035
6396,-0.065,0.045
6397,-0.065,0.045
6398,-0.035,0.055
6399,-0.015,0.065
6400,-0.015,0.075
6401,0.005,0.075
6402,0.005,0.045
6403,0.015,0.025
6404,-0.005,0.035
6405,0.005,0.045
6406,-0.075,0.015
6407,-0.085,0.005
6408,-0.115,-0.005
6409,-0.115,-0.015
6410,-0.115,-0.005
6411,-0.115,-0.005
6412,-0.145,-0.005
6413,-0.145,0.125
6414,-0.065,0.315
6415,0.305,0.285
6416,0.565,-0.155
6417,0.225,-0.745
6418,0.025,-0.535
6419,-0.065,-0.185
6420,-0.115,-0.045
6421,-0.155,-0.015
6422,-0.185,-0.005
6423,-0.175,0.005
6424,-0.165,0.005
6425,-0.175,0.005
6426,-0.165,0.015
6427,-0.175,0.025
6428,-0.175,0.025
6429,-0.175,0.025
6430,-0.175,0.025
6431,-0.175,0.025
6432,-0.175,0.035
6433,-0.175,0.045
6434,-0.165,0.035
6435,-0.175,0.045
6436,-0.165,0.045
6437,-0.155,0.055
6438,-0.165,0.055
6439,-0.145,0.065
6440,-0.135,0.065
6441,-0.125,0.045
6442,-0.115,0.055
6443,-0.125,0.045
6444,-0.115,0.045
6445,-0.095,0.045
6446,-0.095,0.045
6447,-0.075,0.055
6448,-0.065,0.065
6449,-0.075,0.065
6450,-0.065,0.075
6451,-0.085,0.055
6452,-0.115,0.035
6453,-0.125,0.035
6454,-0.115,0.045
6455,-0.135,0.045
6456,-0.135,0.035
6457,-0.135,0.025
6458,-0.115,0.035
6459,-0.155,0.025
6460,-0.155,0.035
6461,-0.135,0.045
6462,-0.135,0.045
6463,-0.155,0.065
6464,-0.125,0.075
6465,-0.105,0.085
6466,-0.095,0.065
6467,-0.085,0.065
6468,-0.075,0.055
6469,-0.065,0.065
6470,-0.105,0.055
6471,-0.125,0.025
6472,-0.145,0.015
6473,-0.175,-0.005
6474,-0.195,0.005
6475,-0.205,-0.005
6476,-0.205,-0.005
6477,-0.225,0.015
6478,-0.185,0.165
6479,-0.085,0.345
6480,0.305,0.295
6481,0.675,-0.025
6482,0.355,-0.515
6483,-0.035,-0.445
6484,-0.195,-0.185
6485,-0.235,-0.045
6486,-0.285,-0.005
6487,-0.295,0.005
6488,-0.345,-0.005
6489,-0.295,0.015
6490,-0.325,0.015
6491,-0.335,0.015
6492,-0.255,0.015
6493,-0.225,0.025
6494,-0.225,0.035
6495,-0.265,0.035
6496,-0.225,0.045
6497,-0.225,0.045
6498,-0.235,0.055
6499,-0.225,0.065
6500,-0.235,0.065
6501,-0.245,0.075
6502,-0.285,0.075
6503,-0.245,0.075
6504,-0.245,0.085
6505,-0.215,0.095
6506,-0.175,0.115
6507,-0.145,0.115
6508,-0.175,0.095
6509,-0.175,0.095
6510,-0.185,0.095
6511,-0.195,0.095
6512,-0.175,0.105
6513,-0.155,0.105
6514,-0.165,0.105
6515,-0.145,0.085
6516,-0.215,0.075
6517,-0.195,0.055
6518,-0.195,0.045
6519,-0.215,0.035
6520,-0.235,0.035
6521,-0.235,0.025
6522,-0.245,0.035
6523,-0.225,0.025
6524,-0.265,0.025
6525,-0.225,0.015
6526,-0.235,0.025
6527,-0.205,0.045
6528,-0.215,0.035
6529,-0.135,0.055
6530,-0.155,0.065
6531,-0.135,0.075
6532,-0.145,0.055
6533,-0.125,0.055
6534,-0.135,0.035
6535,-0.155,0.035
6536,-0.155,0.025
6537,-0.215,0.005
6538,-0.245,-0.015
6539,-0.275,-0.025
6540,-0.275,-0.025
6541,-0.325,-0.045
6542,-0.385,-0.025
6543,-0.345,0.005
6544,-0.355,0.145
6545,-0.085,0.305
6546,0.325,0.165
6547,0.515,-0.405
6548,-0.015,-0.665
6549,-0.175,-0.335
6550,-0.225,-0.095
6551,-0.255,-0.045
6552,-0.305,-0.005
6553,-0.305,-0.065
6554,-0.295,-0.015
6555,-0.295,-0.025
6556,-0.315,-0.035
6557,-0.295,0.015
6558,-0.295,0.005
6559,-0.295,-0.015
6560,-0.295,-0.015
6561,-0.285,-0.005
6562,-0.335,-0.005
6563,-0.315,-0.005
6564,-0.235,0.005
6565,-0.265,0.005
6566,-0.255,0.015
6567,-0.265,0.015
6568,-0.275,0.025
6569,-0.275,0.045
6570,-0.265,0.015
6571,-0.245,0.055
6572,-0.195,0.045
6573,-0.215,0.055
6574,-0.225,0.055
6575,-0.175,0.045
6576,-0.195,0.035
6577,-0.215,0.055
6578,-0.185,0.055
6579,-0.175,0.055
6580,-0.165,0.045
6581,-0.205,0.035
6582,-0.185,0.025
6583,-0.155,0.025
6584,-0.175,0.015
6585,-0.175,0.015
6586,-0.165,0.005
6587,-0.175,-0.005
6588,-0.165,0.005
6589,-0.165,-0.015
6590,-0.225,-0.005
6591,-0.195,-0.005
6592,-0.145,0.015
6593,-0.195,0.015
6594,-0.175,0.035
6595,-0.145,0.045
6596,-0.115,0.045
6597,-0.125,0.025
6598,-0.115,0.035
6599,-0.105,-0.015
6600,-0.105,0.005
6601,-0.115,-0.015
6602,-0.195,-0.035
6603,-0.245,-0.045
6604,-0.235,-0.045
6605,-0.225,-0.045
6606,-0.245,-0.045
6607,-0.255,-0.055
6608,-0.275,0.005
6609,-0.285,0.185
6610,-0.045,0.255
6611,0.365,0.105
6612,0.445,-0.555
6613,0.005,-0.675
6614,-0.135,-0.315
6615,-0.225,-0.135
6616,-0.295,-0.075
6617,-0.295,-0.045
6618,-0.295,-0.055
6619,-0.355,-0.045
6620,-0.295,-0.035
6621,-0.275,-0.025
6622,-0.335,-0.045
6623,-0.395,0.025
6624,-0.375,-0.035
6625,-0.355,0.035
6626,-0.315,-0.065
6627,-0.295,-0.055
6628,-0.305,-0.025
6629,-0.295,-0.025
6630,-0.295,-0.015
6631,-0.285,0.005
6632,-0.295,0.025
6633,-0.285,0.015
6634,-0.275,0.045
6635,-0.245,0.045
6636,-0.225,0.075
6637,-0.205,0.105
6638,-0.225,0.065
6639,-0.245,0.065
6640,-0.205,0.075
6641,-0.195,0.095
6642,-0.185,0.095
6643,-0.165,0.095
6644,-0.135,0.055
6645,-0.155,0.035
6646,-0.185,0.015
6647,-0.175,-0.015
6648,-0.175,-0.015
6649,-0.175,-0.035
6650,-0.175,-0.025
6651,-0.195,-0.025
6652,-0.165,-0.015
6653,-0.175,-0.035
6654,-0.165,-0.035
6655,-0.155,-0.035
6656,-0.105,-0.025
6657,-0.135,-0.005
6658,-0.115,0.005
6659,-0.115,-0.005
6660,-0.085,0.015
6661,-0.055,0.015
6662,-0.065,0.005
6663,-0.065,-0.005
6664,-0.085,0.015
6665,-0.085,0.015
6666,-0.055,-0.035
6667,-0.115,-0.055
6668,-0.175,-0.045
6669,-0.175,-0.055
6670,-0.175,-0.065
6671,-0.185,-0.065
6672,-0.185,-0.035
6673,-0.175,0.095
6674,-0.095,0.295
6675,0.265,0.295
6676,0.605,-0.035
6677,0.315,-0.675
6678,-0.005,-0.595
6679,-0.115,-0.275
6680,-0.175,-0.105
6681,-0.245,-0.085
