'sample interval','ECG1','ECG2'
'0.0078125 sec','mV','mV'
0,0.675,0.735
1,0.665,0.735
2,0.655,0.725
3,0.645,0.715
4,0.635,0.705
5,0.625,0.695
6,0.605,0.685
7,0.595,0.665
8,0.585,0.655
9,0.575,0.655
10,0.565,0.645
11,0.555,0.635
12,0.545,0.625
13,0.535,0.615
14,0.515,0.605
15,0.515,0.585
16,0.505,0.575
17,0.495,0.575
18,0.475,0.555
19,0.475,0.555
20,0.475,0.545
21,0.465,0.535
22,0.445,0.525
23,0.445,0.515
24,0.435,0.515
25,0.425,0.495
26,0.415,0.495
27,0.415,0.485
28,0.395,0.475
29,0.395,0.475
30,0.385,0.465
31,0.375,0.445
32,0.365,0.455
33,0.365,0.435
34,0.355,0.425
35,0.345,0.425
36,0.335,0.415
37,0.335,0.415
38,0.315,0.405
39,0.315,0.385
40,0.295,0.385
41,0.295,0.385
42,0.275,0.375
43,0.285,0.365
44,0.275,0.365
45,0.265,0.355
46,0.255,0.345
47,0.255,0.335
48,0.245,0.335
49,0.235,0.325
50,0.225,0.315
51,0.215,0.315
52,0.215,0.315
53,0.205,0.305
54,0.195,0.295
55,0.195,0.285
56,0.185,0.285
57,0.165,0.275
58,0.155,0.265
59,0.135,0.245
60,-0.375,0.165
61,-0.955,-0.725
62,-0.885,-0.695
63,-0.865,-0.685
64,-0.855,-0.665
65,-0.845,-0.665
66,-0.845,-0.665
67,-0.835,-0.655
68,-0.815,-0.645
69,-0.805,-0.635
70,-0.805,-0.635
71,-0.785,-0.615
72,-0.775,-0.605
73,-0.775,-0.595
74,-0.765,-0.585
75,-0.745,-0.585
76,-0.735,-0.565
77,-0.735,-0.555
78,-0.725,-0.555
79,-0.705,-0.545
80,-0.695,-0.535
81,-0.695,-0.525
82,-0.685,-0.515
83,-0.675,-0.515
84,-0.665,-0.505
85,-0.655,-0.495
86,-0.655,-0.485
87,-0.635,-0.485
88,-0.625,-0.475
89,-0.625,-0.465
90,-0.615,-0.455
91,-0.605,-0.445
92,-0.595,-0.445
93,-0.585,-0.435
94,-0.585,-0.425
95,-0.575,-0.415
96,-0.555,-0.405
97,-0.555,-0.395
98,-0.545,-0.395
99,-0.535,-0.395
100,-0.525,-0.385
101,-0.515,-0.375
102,-0.515,-0.375
103,-0.505,-0.365
104,-0.495,-0.355
105,-0.485,-0.345
106,-0.475,-0.345
107,-0.465,-0.335
108,-0.455,-0.335
109,-0.445,-0.325
110,-0.445,-0.315
111,-0.425,-0.315
112,-0.415,-0.315
113,-0.415,-0.295
114,-0.415,-0.295
115,-0.395,-0.285
116,-0.385,-0.285
117,-0.375,-0.275
118,-0.375,-0.265
119,-0.375,-0.265
120,-0.365,-0.255
121,-0.355,-0.245
122,-0.335,-0.245
123,-0.315,-0.225
124,-0.145,-0.235
125,0.755,0.765
126,0.685,0.735
127,0.665,0.715
128,0.665,0.705
129,0.655,0.705
130,0.635,0.695
131,0.625,0.675
132,0.615,0.675
133,0.615,0.665
134,0.595,0.645
135,0.585,0.645
136,0.565,0.635
137,0.555,0.625
138,0.535,0.615
139,0.525,0.605
140,0.515,0.595
141,0.505,0.585
142,0.495,0.575
143,0.485,0.565
144,0.475,0.565
145,0.465,0.555
146,0.445,0.535
147,0.445,0.535
148,0.425,0.515
149,0.425,0.515
150,0.405,0.505
151,0.405,0.495
152,0.395,0.495
153,0.385,0.485
154,0.375,0.475
155,0.375,0.465
156,0.365,0.465
157,0.365,0.455
158,0.355,0.445
159,0.345,0.445
160,0.345,0.435
161,0.345,0.425
162,0.325,0.415
163,0.325,0.405
164,0.315,0.405
165,0.315,0.405
166,0.295,0.385
167,0.295,0.375
168,0.295,0.375
169,0.285,0.375
170,0.275,0.365
171,0.265,0.355
172,0.265,0.345
173,0.265,0.345
174,0.245,0.345
175,0.245,0.325
176,0.245,0.325
177,0.235,0.325
178,0.225,0.305
179,0.215,0.305
180,0.215,0.295
181,0.205,0.295
182,0.205,0.285
183,0.195,0.275
184,0.195,0.265
185,0.175,0.265
186,0.165,0.255
187,0.145,0.235
188,0.075,0.255
189,-0.905,-0.745
190,-0.855,-0.715
191,-0.845,-0.705
192,-0.835,-0.695
193,-0.835,-0.685
194,-0.835,-0.685
195,-0.815,-0.675
196,-0.815,-0.665
197,-0.805,-0.645
198,-0.795,-0.645
199,-0.785,-0.645
200,-0.775,-0.625
201,-0.765,-0.605
202,-0.755,-0.595
203,-0.735,-0.595
204,-0.735,-0.585
205,-0.715,-0.575
206,-0.705,-0.565
207,-0.705,-0.555
208,-0.685,-0.545
209,-0.685,-0.535
210,-0.675,-0.535
211,-0.655,-0.525
212,-0.655,-0.515
213,-0.645,-0.505
214,-0.635,-0.495
215,-0.625,-0.485
216,-0.615,-0.485
217,-0.605,-0.465
218,-0.595,-0.465
219,-0.585,-0.455
220,-0.585,-0.445
221,-0.565,-0.435
222,-0.565,-0.435
223,-0.545,-0.425
224,-0.535,-0.415
225,-0.535,-0.405
226,-0.525,-0.395
227,-0.515,-0.395
228,-0.505,-0.385
229,-0.495,-0.375
230,-0.485,-0.375
231,-0.475,-0.365
232,-0.465,-0.355
233,-0.455,-0.355
234,-0.455,-0.345
235,-0.445,-0.335
236,-0.435,-0.335
237,-0.435,-0.325
238,-0.425,-0.315
239,-0.415,-0.315
240,-0.405,-0.305
241,-0.395,-0.295
242,-0.395,-0.295
243,-0.375,-0.295
244,-0.365,-0.285
245,-0.375,-0.275
246,-0.365,-0.275
247,-0.345,-0.275
248,-0.335,-0.265
249,-0.335,-0.255
250,-0.325,-0.245
251,-0.295,-0.235
252,-0.095,-0.245
253,0.795,0.805
254,0.715,0.745
255,0.705,0.725
256,0.695,0.715
257,0.685,0.705
258,0.675,0.695
259,0.675,0.685
260,0.665,0.675
261,0.645,0.665
262,0.635,0.655
263,0.625,0.635
264,0.615,0.635
265,0.615,0.625
266,0.595,0.615
267,0.585,0.605
268,0.575,0.595
269,0.565,0.585
270,0.545,0.575
271,0.545,0.565
272,0.535,0.555
273,0.525,0.545
274,0.515,0.535
275,0.505,0.525
276,0.495,0.525
277,0.485,0.515
278,0.475,0.505
279,0.475,0.495
280,0.465,0.485
281,0.455,0.485
282,0.445,0.475
283,0.435,0.465
284,0.425,0.455
285,0.425,0.455
286,0.405,0.445
287,0.405,0.435
288,0.405,0.425
289,0.395,0.425
290,0.375,0.415
291,0.365,0.405
292,0.365,0.395
293,0.355,0.395
294,0.345,0.375
295,0.345,0.375
296,0.335,0.375
297,0.325,0.375
298,0.315,0.355
299,0.315,0.355
300,0.305,0.345
301,0.295,0.345
302,0.285,0.335
303,0.275,0.325
304,0.265,0.325
305,0.265,0.315
306,0.255,0.305
307,0.255,0.305
308,0.235,0.295
309,0.235,0.295
310,0.225,0.295
311,0.225,0.285
312,0.215,0.275
313,0.205,0.265
314,0.185,0.255
315,0.165,0.235
316,-0.205,0.215
317,-0.935,-0.765
318,-0.865,-0.725
319,-0.845,-0.705
320,-0.835,-0.695
321,-0.825,-0.685
322,-0.815,-0.685
323,-0.795,-0.675
324,-0.775,-0.655
325,-0.775,-0.645
326,-0.765,-0.635
327,-0.755,-0.625
328,-0.735,-0.615
329,-0.725,-0.605
330,-0.725,-0.595
331,-0.705,-0.585
332,-0.695,-0.575
333,-0.685,-0.565
334,-0.675,-0.555
335,-0.655,-0.545
336,-0.655,-0.535
337,-0.635,-0.525
338,-0.635,-0.525
339,-0.625,-0.515
340,-0.615,-0.505
341,-0.595,-0.485
342,-0.595,-0.485
343,-0.585,-0.485
344,-0.585,-0.475
345,-0.575,-0.465
346,-0.565,-0.455
347,-0.555,-0.445
348,-0.545,-0.445
349,-0.545,-0.425
350,-0.535,-0.425
351,-0.535,-0.425
352,-0.525,-0.415
353,-0.515,-0.395
354,-0.505,-0.395
355,-0.505,-0.385
356,-0.495,-0.385
357,-0.485,-0.365
358,-0.475,-0.355
359,-0.465,-0.355
360,-0.465,-0.345
361,-0.455,-0.335
362,-0.445,-0.335
363,-0.435,-0.325
364,-0.425,-0.315
365,-0.415,-0.305
366,-0.415,-0.295
367,-0.405,-0.295
368,-0.395,-0.295
369,-0.395,-0.285
370,-0.385,-0.285
371,-0.375,-0.285
372,-0.365,-0.275
373,-0.355,-0.275
374,-0.355,-0.265
375,-0.345,-0.265
376,-0.335,-0.265
377,-0.325,-0.255
378,-0.325,-0.245
379,-0.295,-0.235
380,-0.235,-0.255
381,0.815,0.725
382,0.735,0.725
383,0.715,0.695
384,0.705,0.685
385,0.705,0.685
386,0.695,0.675
387,0.685,0.665
388,0.665,0.655
389,0.665,0.655
390,0.645,0.645
391,0.635,0.635
392,0.625,0.625
393,0.615,0.615
394,0.605,0.605
395,0.595,0.595
396,0.585,0.585
397,0.575,0.575
398,0.565,0.575
399,0.555,0.555
400,0.555,0.545
401,0.545,0.535
402,0.525,0.525
403,0.515,0.515
404,0.505,0.505
405,0.495,0.495
406,0.485,0.485
407,0.485,0.485
408,0.475,0.475
409,0.465,0.465
410,0.445,0.455
411,0.445,0.455
412,0.435,0.445
413,0.435,0.435
414,0.415,0.425
415,0.415,0.415
416,0.405,0.415
417,0.395,0.405
418,0.385,0.395
419,0.385,0.385
420,0.375,0.385
421,0.355,0.375
422,0.355,0.365
423,0.345,0.365
424,0.335,0.365
425,0.335,0.355
426,0.315,0.335
427,0.315,0.335
428,0.305,0.335
429,0.295,0.325
430,0.285,0.315
431,0.275,0.315
432,0.275,0.305
433,0.265,0.305
434,0.255,0.295
435,0.255,0.285
436,0.245,0.285
437,0.235,0.275
438,0.225,0.265
439,0.225,0.255
440,0.215,0.255
441,0.205,0.245
442,0.185,0.235
443,0.155,0.215
444,-0.735,-0.205
445,-0.905,-0.775
446,-0.855,-0.735
447,-0.835,-0.715
448,-0.815,-0.705
449,-0.805,-0.705
450,-0.805,-0.695
451,-0.795,-0.685
452,-0.785,-0.675
453,-0.775,-0.665
454,-0.775,-0.665
455,-0.755,-0.655
456,-0.745,-0.645
457,-0.735,-0.625
458,-0.725,-0.615
459,-0.715,-0.605
460,-0.705,-0.605
461,-0.695,-0.585
462,-0.685,-0.575
463,-0.675,-0.565
464,-0.675,-0.555
465,-0.655,-0.545
466,-0.655,-0.545
467,-0.635,-0.535
468,-0.635,-0.525
469,-0.615,-0.515
470,-0.615,-0.505
471,-0.605,-0.495
472,-0.595,-0.485
473,-0.585,-0.475
474,-0.575,-0.465
475,-0.565,-0.465
476,-0.555,-0.465
477,-0.545,-0.455
478,-0.545,-0.445
479,-0.525,-0.445
480,-0.525,-0.435
481,-0.505,-0.415
482,-0.505,-0.405
483,-0.495,-0.405
484,-0.495,-0.395
485,-0.485,-0.385
486,-0.475,-0.375
487,-0.465,-0.375
488,-0.455,-0.365
489,-0.455,-0.355
490,-0.445,-0.355
491,-0.435,-0.355
492,-0.435,-0.345
493,-0.425,-0.335
494,-0.415,-0.325
495,-0.405,-0.325
496,-0.405,-0.325
497,-0.395,-0.305
498,-0.385,-0.305
499,-0.375,-0.305
500,-0.375,-0.295
501,-0.365,-0.285
502,-0.365,-0.275
503,-0.345,-0.285
504,-0.335,-0.275
505,-0.335,-0.265
506,-0.325,-0.245
507,-0.305,-0.245
508,-0.285,-0.225
509,0.775,0.665
510,0.745,0.755
511,0.715,0.715
512,0.705,0.705
513,0.695,0.705
514,0.675,0.695
515,0.675,0.675
516,0.665,0.675
517,0.655,0.665
518,0.645,0.655
519,0.635,0.635
520,0.625,0.635
521,0.615,0.625
522,0.595,0.615
523,0.585,0.595
524,0.575,0.595
525,0.575,0.585
526,0.555,0.575
527,0.555,0.565
528,0.545,0.555
529,0.535,0.555
530,0.515,0.535
531,0.515,0.525
532,0.515,0.525
533,0.505,0.515
534,0.485,0.505
535,0.485,0.495
536,0.465,0.495
537,0.455,0.485
538,0.445,0.475
539,0.445,0.465
540,0.435,0.465
541,0.425,0.455
542,0.405,0.445
543,0.405,0.445
544,0.395,0.435
545,0.385,0.425
546,0.375,0.425
547,0.365,0.415
548,0.355,0.405
549,0.355,0.405
550,0.345,0.395
551,0.345,0.385
552,0.325,0.385
553,0.315,0.375
554,0.305,0.365
555,0.305,0.355
556,0.295,0.355
557,0.285,0.355
558,0.275,0.335
559,0.275,0.335
560,0.265,0.335
561,0.265,0.325
562,0.245,0.315
563,0.245,0.315
564,0.235,0.305
565,0.235,0.305
566,0.225,0.295
567,0.215,0.285
568,0.205,0.285
569,0.195,0.275
570,0.185,0.265
571,0.155,0.245
572,-0.685,-0.145
573,-0.915,-0.755
574,-0.855,-0.705
575,-0.835,-0.695
576,-0.825,-0.675
577,-0.825,-0.675
578,-0.815,-0.665
579,-0.795,-0.655
580,-0.785,-0.645
581,-0.775,-0.635
582,-0.765,-0.625
583,-0.755,-0.615
584,-0.755,-0.605
585,-0.735,-0.595
586,-0.735,-0.585
587,-0.715,-0.575
588,-0.705,-0.565
589,-0.695,-0.555
590,-0.695,-0.555
591,-0.685,-0.545
592,-0.665,-0.535
593,-0.665,-0.515
594,-0.655,-0.505
595,-0.645,-0.505
596,-0.635,-0.495
597,-0.625,-0.475
598,-0.625,-0.475
599,-0.605,-0.465
600,-0.585,-0.465
601,-0.585,-0.445
602,-0.575,-0.445
603,-0.565,-0.435
604,-0.555,-0.435
605,-0.545,-0.425
606,-0.545,-0.415
607,-0.535,-0.415
608,-0.525,-0.405
609,-0.515,-0.395
610,-0.515,-0.395
611,-0.495,-0.385
612,-0.495,-0.375
613,-0.485,-0.365
614,-0.485,-0.365
615,-0.465,-0.345
616,-0.455,-0.345
617,-0.455,-0.335
618,-0.445,-0.335
619,-0.435,-0.325
620,-0.425,-0.315
621,-0.425,-0.305
622,-0.415,-0.305
623,-0.405,-0.295
624,-0.395,-0.285
625,-0.395,-0.285
626,-0.385,-0.285
627,-0.375,-0.275
628,-0.365,-0.255
629,-0.365,-0.255
630,-0.355,-0.255
631,-0.335,-0.255
632,-0.335,-0.235
633,-0.325,-0.225
634,-0.325,-0.225
635,-0.285,-0.205
636,0.555,0.145
637,0.795,0.775
638,0.725,0.725
639,0.705,0.715
640,0.705,0.705
641,0.695,0.705
642,0.685,0.695
643,0.675,0.675
644,0.675,0.675
645,0.655,0.665
646,0.645,0.655
647,0.635,0.645
648,0.625,0.635
649,0.625,0.625
650,0.595,0.615
651,0.595,0.615
652,0.585,0.605
653,0.575,0.595
654,0.565,0.585
655,0.555,0.575
656,0.555,0.565
657,0.535,0.565
658,0.525,0.545
659,0.525,0.545
660,0.505,0.535
661,0.495,0.535
662,0.485,0.515
663,0.485,0.515
664,0.475,0.505
665,0.465,0.505
666,0.455,0.485
667,0.455,0.485
668,0.435,0.475
669,0.425,0.465
670,0.425,0.465
671,0.415,0.455
672,0.405,0.445
673,0.395,0.445
674,0.385,0.435
675,0.375,0.425
676,0.375,0.415
677,0.355,0.415
678,0.355,0.405
679,0.355,0.395
680,0.335,0.385
681,0.325,0.385
682,0.315,0.375
683,0.315,0.365
684,0.305,0.365
685,0.295,0.365
686,0.285,0.355
687,0.285,0.335
688,0.275,0.335
689,0.265,0.335
690,0.255,0.325
691,0.255,0.315
692,0.235,0.315
693,0.235,0.305
694,0.225,0.305
695,0.215,0.295
696,0.215,0.295
697,0.195,0.285
698,0.185,0.275
699,0.175,0.255
700,0.175,0.265
701,-0.955,-0.725
702,-0.865,-0.695
703,-0.845,-0.675
704,-0.835,-0.665
705,-0.825,-0.655
706,-0.815,-0.645
707,-0.805,-0.645
708,-0.795,-0.625
709,-0.785,-0.615
710,-0.775,-0.605
711,-0.765,-0.595
712,-0.755,-0.585
713,-0.745,-0.575
714,-0.735,-0.575
715,-0.725,-0.565
716,-0.715,-0.545
717,-0.705,-0.535
718,-0.695,-0.535
719,-0.685,-0.525
720,-0.675,-0.515
721,-0.665,-0.515
722,-0.655,-0.505
723,-0.645,-0.495
724,-0.635,-0.485
725,-0.635,-0.495
726,-0.615,-0.475
727,-0.605,-0.465
728,-0.595,-0.455
729,-0.595,-0.455
730,-0.585,-0.445
731,-0.575,-0.445
732,-0.565,-0.425
733,-0.555,-0.425
734,-0.555,-0.415
735,-0.545,-0.415
736,-0.535,-0.405
737,-0.525,-0.395
738,-0.515,-0.395
739,-0.505,-0.385
740,-0.495,-0.365
741,-0.495,-0.365
742,-0.485,-0.355
743,-0.475,-0.345
744,-0.465,-0.335
745,-0.455,-0.335
746,-0.455,-0.335
747,-0.445,-0.325
748,-0.435,-0.325
749,-0.425,-0.305
750,-0.425,-0.305
751,-0.415,-0.305
752,-0.405,-0.295
753,-0.395,-0.285
754,-0.395,-0.285
755,-0.385,-0.285
756,-0.375,-0.275
757,-0.365,-0.265
758,-0.365,-0.265
759,-0.355,-0.265
760,-0.335,-0.255
761,-0.335,-0.245
762,-0.325,-0.235
763,-0.295,-0.215
764,0.045,-0.205
765,0.805,0.785
766,0.725,0.735
767,0.705,0.725
768,0.695,0.715
769,0.695,0.715
770,0.675,0.695
771,0.665,0.685
772,0.665,0.675
773,0.655,0.665
774,0.635,0.655
775,0.635,0.635
776,0.615,0.625
777,0.605,0.625
778,0.595,0.615
779,0.585,0.605
780,0.575,0.595
781,0.565,0.585
782,0.545,0.575
783,0.545,0.565
784,0.535,0.555
785,0.525,0.545
786,0.515,0.535
787,0.515,0.535
788,0.505,0.525
789,0.495,0.515
790,0.475,0.515
791,0.475,0.495
792,0.465,0.495
793,0.455,0.495
794,0.445,0.475
795,0.435,0.475
796,0.425,0.465
797,0.415,0.465
798,0.405,0.455
799,0.405,0.445
800,0.395,0.445
801,0.385,0.435
802,0.375,0.425
803,0.365,0.415
804,0.355,0.415
805,0.355,0.415
806,0.335,0.405
807,0.345,0.395
808,0.315,0.385
809,0.315,0.385
810,0.315,0.375
811,0.305,0.365
812,0.295,0.365
813,0.285,0.355
814,0.275,0.355
815,0.275,0.345
816,0.265,0.335
817,0.255,0.335
818,0.245,0.325
819,0.245,0.315
820,0.225,0.305
821,0.225,0.315
822,0.215,0.305
823,0.215,0.295
824,0.205,0.285
825,0.185,0.275
826,0.175,0.265
827,0.155,0.245
828,-0.235,0.215
829,-0.935,-0.725
830,-0.865,-0.685
831,-0.845,-0.665
832,-0.835,-0.655
833,-0.835,-0.655
834,-0.825,-0.645
835,-0.815,-0.635
836,-0.795,-0.625
837,-0.795,-0.615
838,-0.785,-0.605
839,-0.775,-0.595
840,-0.755,-0.585
841,-0.755,-0.575
842,-0.735,-0.575
843,-0.725,-0.565
844,-0.715,-0.555
845,-0.715,-0.545
846,-0.705,-0.545
847,-0.695,-0.535
848,-0.685,-0.525
849,-0.665,-0.515
850,-0.665,-0.505
851,-0.655,-0.505
852,-0.645,-0.485
853,-0.635,-0.485
854,-0.635,-0.485
855,-0.625,-0.475
856,-0.605,-0.465
857,-0.605,-0.455
858,-0.605,-0.445
859,-0.585,-0.445
860,-0.575,-0.425
861,-0.565,-0.425
862,-0.565,-0.415
863,-0.555,-0.405
864,-0.535,-0.395
865,-0.535,-0.385
866,-0.525,-0.385
867,-0.525,-0.385
868,-0.505,-0.365
869,-0.495,-0.365
870,-0.495,-0.365
871,-0.485,-0.345
872,-0.475,-0.345
873,-0.465,-0.335
874,-0.455,-0.325
875,-0.445,-0.325
876,-0.445,-0.315
877,-0.445,-0.305
878,-0.435,-0.305
879,-0.415,-0.305
880,-0.415,-0.295
881,-0.405,-0.285
882,-0.405,-0.275
883,-0.395,-0.275
884,-0.385,-0.275
885,-0.375,-0.255
886,-0.375,-0.255
887,-0.365,-0.255
888,-0.355,-0.245
889,-0.345,-0.235
890,-0.325,-0.225
891,-0.305,-0.215
892,-0.335,-0.205
893,0.795,0.745
894,0.725,0.755
895,0.705,0.735
896,0.685,0.725
897,0.675,0.715
898,0.665,0.705
899,0.665,0.695
900,0.655,0.695
901,0.645,0.685
902,0.635,0.675
903,0.625,0.655
904,0.615,0.655
905,0.605,0.645
906,0.585,0.625
907,0.575,0.615
908,0.575,0.615
909,0.555,0.605
910,0.545,0.595
911,0.545,0.585
912,0.535,0.575
913,0.525,0.565
914,0.505,0.555
915,0.505,0.545
916,0.495,0.535
917,0.485,0.535
918,0.475,0.525
919,0.465,0.515
920,0.455,0.505
921,0.445,0.505
922,0.445,0.495
923,0.425,0.485
924,0.415,0.475
925,0.415,0.475
926,0.405,0.465
927,0.395,0.445
928,0.385,0.455
929,0.375,0.435
930,0.365,0.425
931,0.355,0.425
932,0.345,0.425
933,0.345,0.405
934,0.335,0.405
935,0.325,0.395
936,0.315,0.395
937,0.315,0.385
938,0.305,0.375
939,0.295,0.375
940,0.285,0.365
941,0.285,0.365
942,0.275,0.355
943,0.275,0.345
944,0.255,0.345
945,0.245,0.335
946,0.245,0.325
947,0.235,0.325
948,0.225,0.325
949,0.225,0.315
950,0.205,0.315
951,0.205,0.295
952,0.195,0.295
953,0.195,0.295
954,0.175,0.275
955,0.155,0.265
956,0.185,0.255
957,-0.955,-0.705
958,-0.885,-0.705
959,-0.855,-0.685
960,-0.845,-0.675
961,-0.835,-0.655
962,-0.825,-0.655
963,-0.815,-0.645
964,-0.795,-0.635
965,-0.795,-0.615
966,-0.785,-0.605
967,-0.775,-0.605
968,-0.765,-0.605
969,-0.755,-0.585
970,-0.745,-0.575
971,-0.735,-0.565
972,-0.715,-0.555
973,-0.715,-0.545
974,-0.705,-0.545
975,-0.695,-0.535
976,-0.685,-0.525
977,-0.675,-0.515
978,-0.665,-0.505
979,-0.665,-0.505
980,-0.655,-0.495
981,-0.645,-0.485
982,-0.635,-0.475
983,-0.625,-0.475
984,-0.615,-0.465
985,-0.605,-0.455
986,-0.605,-0.445
987,-0.585,-0.435
988,-0.575,-0.435
989,-0.575,-0.415
990,-0.565,-0.415
991,-0.555,-0.395
992,-0.555,-0.395
993,-0.535,-0.385
994,-0.535,-0.375
995,-0.515,-0.375
996,-0.515,-0.365
997,-0.505,-0.355
998,-0.495,-0.355
999,-0.485,-0.345
1000,-0.475,-0.335
1001,-0.465,-0.325
1002,-0.465,-0.325
1003,-0.445,-0.315
1004,-0.445,-0.305
1005,-0.435,-0.305
1006,-0.435,-0.305
1007,-0.425,-0.295
1008,-0.405,-0.285
1009,-0.405,-0.285
1010,-0.405,-0.285
1011,-0.395,-0.275
1012,-0.385,-0.265
1013,-0.375,-0.255
1014,-0.375,-0.255
1015,-0.355,-0.245
1016,-0.355,-0.235
1017,-0.345,-0.225
1018,-0.335,-0.225
1019,-0.305,-0.215
1020,0.045,-0.175
1021,0.795,0.745
1022,0.715,0.715
1023,0.705,0.705
1024,0.695,0.695
1025,0.675,0.695
1026,0.675,0.675
1027,0.665,0.665
1028,0.645,0.665
1029,0.635,0.655
1030,0.625,0.635
1031,0.615,0.625
1032,0.605,0.615
1033,0.595,0.615
1034,0.585,0.605
1035,0.575,0.595
1036,0.575,0.595
1037,0.555,0.575
1038,0.545,0.565
1039,0.545,0.555
1040,0.525,0.545
1041,0.515,0.545
1042,0.505,0.535
1043,0.505,0.525
1044,0.495,0.505
1045,0.485,0.505
1046,0.465,0.495
1047,0.465,0.485
1048,0.465,0.475
1049,0.445,0.465
1050,0.435,0.465
1051,0.435,0.455
1052,0.435,0.445
1053,0.415,0.445
1054,0.405,0.425
1055,0.405,0.425
1056,0.395,0.415
1057,0.385,0.415
1058,0.375,0.395
1059,0.365,0.395
1060,0.355,0.385
1061,0.345,0.385
1062,0.335,0.375
1063,0.335,0.365
1064,0.325,0.365
1065,0.315,0.365
1066,0.305,0.345
1067,0.295,0.345
1068,0.295,0.335
1069,0.285,0.335
1070,0.275,0.325
1071,0.265,0.325
1072,0.265,0.315
1073,0.255,0.315
1074,0.245,0.315
1075,0.245,0.305
1076,0.235,0.295
1077,0.225,0.295
1078,0.215,0.295
1079,0.205,0.275
1080,0.205,0.265
1081,0.185,0.265
1082,0.175,0.245
1083,0.155,0.235
1084,-0.035,0.235
1085,-0.955,-0.745
1086,-0.875,-0.705
1087,-0.855,-0.685
1088,-0.845,-0.675
1089,-0.835,-0.675
1090,-0.825,-0.665
1091,-0.825,-0.655
1092,-0.805,-0.645
1093,-0.805,-0.635
1094,-0.795,-0.635
1095,-0.775,-0.625
1096,-0.765,-0.605
1097,-0.755,-0.595
1098,-0.755,-0.595
1099,-0.735,-0.585
1100,-0.725,-0.575
1101,-0.725,-0.565
1102,-0.715,-0.565
1103,-0.705,-0.555
1104,-0.685,-0.545
1105,-0.685,-0.545
1106,-0.675,-0.535
1107,-0.665,-0.535
1108,-0.655,-0.525
1109,-0.645,-0.515
1110,-0.635,-0.505
1111,-0.625,-0.505
1112,-0.605,-0.485
1113,-0.615,-0.475
1114,-0.605,-0.475
1115,-0.585,-0.465
1116,-0.585,-0.455
1117,-0.575,-0.455
1118,-0.565,-0.445
1119,-0.555,-0.435
1120,-0.535,-0.425
1121,-0.535,-0.415
1122,-0.535,-0.405
1123,-0.515,-0.395
1124,-0.505,-0.395
1125,-0.495,-0.385
1126,-0.495,-0.385
1127,-0.475,-0.375
1128,-0.475,-0.355
1129,-0.465,-0.345
1130,-0.465,-0.345
1131,-0.455,-0.335
1132,-0.445,-0.325
1133,-0.435,-0.325
1134,-0.425,-0.325
1135,-0.415,-0.315
1136,-0.405,-0.305
1137,-0.405,-0.295
1138,-0.405,-0.295
1139,-0.385,-0.295
1140,-0.385,-0.275
1141,-0.375,-0.275
1142,-0.375,-0.275
1143,-0.355,-0.275
1144,-0.355,-0.265
1145,-0.345,-0.255
1146,-0.335,-0.245
1147,-0.315,-0.235
1148,-0.315,-0.245
1149,0.805,0.715
1150,0.725,0.715
1151,0.705,0.685
1152,0.695,0.685
1153,0.685,0.675
1154,0.665,0.665
1155,0.665,0.655
1156,0.655,0.655
1157,0.645,0.645
1158,0.635,0.635
1159,0.625,0.625
1160,0.615,0.615
1161,0.605,0.605
1162,0.585,0.595
1163,0.585,0.585
1164,0.575,0.585
1165,0.565,0.585
1166,0.545,0.575
1167,0.545,0.555
1168,0.535,0.555
1169,0.525,0.545
1170,0.515,0.535
1171,0.505,0.525
1172,0.495,0.515
1173,0.485,0.515
1174,0.475,0.505
1175,0.475,0.495
1176,0.455,0.485
1177,0.455,0.475
1178,0.445,0.465
1179,0.435,0.465
1180,0.435,0.455
1181,0.425,0.445
1182,0.415,0.445
1183,0.405,0.435
1184,0.395,0.425
1185,0.385,0.425
1186,0.385,0.415
1187,0.375,0.405
1188,0.365,0.395
1189,0.355,0.395
1190,0.345,0.385
1191,0.335,0.375
1192,0.325,0.365
1193,0.325,0.365
1194,0.315,0.355
1195,0.305,0.345
1196,0.295,0.345
1197,0.295,0.335
1198,0.285,0.335
1199,0.275,0.315
1200,0.265,0.315
1201,0.265,0.315
1202,0.255,0.305
1203,0.255,0.305
1204,0.245,0.295
1205,0.235,0.285
1206,0.215,0.285
1207,0.215,0.265
1208,0.205,0.265
1209,0.195,0.255
1210,0.185,0.245
1211,0.175,0.235
1212,0.155,0.215
1213,-0.905,-0.665
1214,-0.885,-0.735
1215,-0.845,-0.715
1216,-0.845,-0.705
1217,-0.835,-0.695
1218,-0.825,-0.685
1219,-0.815,-0.675
1220,-0.805,-0.665
1221,-0.785,-0.655
1222,-0.785,-0.645
1223,-0.775,-0.645
1224,-0.765,-0.625
1225,-0.755,-0.625
1226,-0.745,-0.615
1227,-0.725,-0.605
1228,-0.715,-0.595
1229,-0.715,-0.585
1230,-0.705,-0.575
1231,-0.685,-0.565
1232,-0.685,-0.555
1233,-0.665,-0.545
1234,-0.655,-0.535
1235,-0.645,-0.535
1236,-0.635,-0.515
1237,-0.635,-0.515
1238,-0.625,-0.505
1239,-0.605,-0.495
1240,-0.605,-0.495
1241,-0.605,-0.485
1242,-0.585,-0.475
1243,-0.575,-0.475
1244,-0.575,-0.455
1245,-0.565,-0.455
1246,-0.555,-0.445
1247,-0.535,-0.435
1248,-0.535,-0.435
1249,-0.525,-0.425
1250,-0.525,-0.415
1251,-0.505,-0.405
1252,-0.505,-0.405
1253,-0.495,-0.395
1254,-0.485,-0.395
1255,-0.475,-0.385
1256,-0.465,-0.375
1257,-0.455,-0.365
1258,-0.455,-0.365
1259,-0.445,-0.355
1260,-0.435,-0.355
1261,-0.425,-0.335
1262,-0.425,-0.335
1263,-0.405,-0.325
1264,-0.405,-0.325
1265,-0.395,-0.315
1266,-0.385,-0.315
1267,-0.375,-0.305
1268,-0.365,-0.305
1269,-0.365,-0.295
1270,-0.355,-0.295
1271,-0.355,-0.285
1272,-0.335,-0.275
1273,-0.325,-0.265
1274,-0.325,-0.255
1275,-0.295,-0.245
1276,-0.255,-0.265
1277,0.815,0.755
1278,0.735,0.715
1279,0.715,0.695
1280,0.705,0.685
1281,0.695,0.685
1282,0.685,0.675
1283,0.685,0.655
1284,0.675,0.655
1285,0.655,0.645
1286,0.645,0.635
1287,0.645,0.615
1288,0.635,0.615
1289,0.625,0.595
1290,0.605,0.585
1291,0.595,0.585
1292,0.585,0.565
1293,0.575,0.565
1294,0.565,0.555
1295,0.565,0.545
1296,0.545,0.535
1297,0.535,0.525
1298,0.515,0.515
1299,0.515,0.505
1300,0.515,0.495
1301,0.495,0.495
1302,0.485,0.475
1303,0.475,0.465
1304,0.465,0.465
1305,0.455,0.455
1306,0.445,0.445
1307,0.445,0.435
1308,0.435,0.425
1309,0.425,0.425
1310,0.405,0.415
1311,0.405,0.405
1312,0.395,0.395
1313,0.395,0.395
1314,0.385,0.395
1315,0.375,0.385
1316,0.365,0.385
1317,0.355,0.375
1318,0.355,0.365
1319,0.345,0.355
1320,0.335,0.355
1321,0.325,0.355
1322,0.315,0.345
1323,0.315,0.335
1324,0.305,0.335
1325,0.295,0.325
1326,0.285,0.315
1327,0.275,0.305
1328,0.275,0.305
1329,0.265,0.295
1330,0.255,0.295
1331,0.245,0.285
1332,0.245,0.285
1333,0.235,0.285
1334,0.225,0.275
1335,0.225,0.265
1336,0.215,0.255
1337,0.205,0.255
1338,0.185,0.235
1339,0.175,0.225
1340,0.115,0.245
1341,-0.945,-0.755
1342,-0.875,-0.725
1343,-0.835,-0.705
1344,-0.825,-0.695
1345,-0.815,-0.695
1346,-0.815,-0.685
1347,-0.805,-0.675
1348,-0.795,-0.665
1349,-0.785,-0.655
1350,-0.775,-0.655
1351,-0.765,-0.645
1352,-0.755,-0.635
1353,-0.735,-0.625
1354,-0.735,-0.615
1355,-0.725,-0.615
1356,-0.705,-0.595
1357,-0.695,-0.585
1358,-0.695,-0.585
1359,-0.685,-0.575
1360,-0.675,-0.565
1361,-0.665,-0.555
1362,-0.655,-0.545
1363,-0.635,-0.535
1364,-0.635,-0.535
1365,-0.625,-0.515
1366,-0.615,-0.515
1367,-0.605,-0.505
1368,-0.595,-0.505
1369,-0.585,-0.495
1370,-0.585,-0.485
1371,-0.575,-0.485
1372,-0.565,-0.465
1373,-0.555,-0.465
1374,-0.555,-0.465
1375,-0.535,-0.465
1376,-0.525,-0.445
1377,-0.515,-0.435
1378,-0.515,-0.435
1379,-0.495,-0.425
1380,-0.485,-0.415
1381,-0.475,-0.405
1382,-0.475,-0.405
1383,-0.465,-0.395
1384,-0.455,-0.395
1385,-0.445,-0.385
1386,-0.445,-0.375
1387,-0.435,-0.375
1388,-0.425,-0.365
1389,-0.415,-0.355
1390,-0.425,-0.355
1391,-0.395,-0.345
1392,-0.395,-0.335
1393,-0.395,-0.325
1394,-0.385,-0.325
1395,-0.375,-0.325
1396,-0.365,-0.315
1397,-0.355,-0.305
1398,-0.355,-0.305
1399,-0.345,-0.295
1400,-0.335,-0.285
1401,-0.325,-0.275
1402,-0.325,-0.265
1403,-0.285,-0.255
1404,-0.295,-0.275
1405,0.815,0.745
1406,0.735,0.715
1407,0.715,0.685
1408,0.705,0.675
1409,0.695,0.675
1410,0.675,0.655
1411,0.675,0.645
1412,0.665,0.645
1413,0.655,0.635
1414,0.645,0.625
1415,0.635,0.605
1416,0.625,0.605
1417,0.615,0.595
1418,0.595,0.585
1419,0.595,0.575
1420,0.585,0.565
1421,0.565,0.555
1422,0.555,0.545
1423,0.555,0.535
1424,0.545,0.535
1425,0.535,0.525
1426,0.525,0.515
1427,0.515,0.505
1428,0.505,0.495
1429,0.495,0.495
1430,0.485,0.485
1431,0.485,0.475
1432,0.475,0.465
1433,0.465,0.465
1434,0.445,0.445
1435,0.445,0.445
1436,0.435,0.435
1437,0.425,0.425
1438,0.415,0.425
1439,0.415,0.415
1440,0.405,0.405
1441,0.395,0.405
1442,0.375,0.385
1443,0.375,0.385
1444,0.365,0.375
1445,0.355,0.375
1446,0.345,0.365
1447,0.345,0.345
1448,0.335,0.345
1449,0.325,0.345
1450,0.315,0.335
1451,0.315,0.325
1452,0.295,0.325
1453,0.295,0.315
1454,0.285,0.305
1455,0.285,0.305
1456,0.275,0.295
1457,0.255,0.295
1458,0.255,0.285
1459,0.255,0.285
1460,0.235,0.275
1461,0.235,0.275
1462,0.225,0.265
1463,0.215,0.255
1464,0.205,0.245
1465,0.195,0.245
1466,0.185,0.235
1467,0.165,0.215
1468,0.185,0.215
1469,-0.945,-0.755
1470,-0.875,-0.755
1471,-0.845,-0.725
1472,-0.845,-0.715
1473,-0.825,-0.705
1474,-0.825,-0.695
1475,-0.815,-0.695
1476,-0.805,-0.685
1477,-0.795,-0.665
1478,-0.785,-0.655
1479,-0.765,-0.645
1480,-0.755,-0.635
1481,-0.755,-0.625
1482,-0.745,-0.625
1483,-0.735,-0.615
1484,-0.725,-0.595
1485,-0.705,-0.585
1486,-0.705,-0.585
1487,-0.685,-0.575
1488,-0.675,-0.565
1489,-0.665,-0.555
1490,-0.655,-0.545
1491,-0.635,-0.535
1492,-0.625,-0.525
1493,-0.625,-0.515
1494,-0.625,-0.515
1495,-0.605,-0.505
1496,-0.595,-0.495
1497,-0.595,-0.485
1498,-0.585,-0.475
1499,-0.575,-0.475
1500,-0.565,-0.465
1501,-0.555,-0.455
1502,-0.545,-0.455
1503,-0.535,-0.435
1504,-0.525,-0.425
1505,-0.525,-0.425
1506,-0.525,-0.415
1507,-0.505,-0.415
1508,-0.495,-0.405
1509,-0.495,-0.395
1510,-0.495,-0.395
1511,-0.475,-0.375
1512,-0.465,-0.375
1513,-0.455,-0.365
1514,-0.455,-0.365
1515,-0.445,-0.355
1516,-0.435,-0.345
1517,-0.425,-0.335
1518,-0.425,-0.335
1519,-0.415,-0.335
1520,-0.405,-0.315
1521,-0.395,-0.315
1522,-0.385,-0.305
1523,-0.375,-0.305
1524,-0.375,-0.295
1525,-0.375,-0.285
1526,-0.365,-0.285
1527,-0.355,-0.275
1528,-0.345,-0.265
1529,-0.335,-0.255
1530,-0.325,-0.245
1531,-0.295,-0.225
1532,0.195,-0.095
1533,0.795,0.765
1534,0.715,0.715
1535,0.705,0.695
1536,0.695,0.695
1537,0.685,0.685
1538,0.675,0.675
1539,0.675,0.655
1540,0.665,0.655
1541,0.645,0.645
1542,0.635,0.635
1543,0.635,0.625
1544,0.615,0.615
1545,0.605,0.605
1546,0.595,0.595
1547,0.595,0.575
1548,0.575,0.565
1549,0.565,0.565
1550,0.555,0.565
1551,0.555,0.545
1552,0.545,0.545
1553,0.535,0.535
1554,0.515,0.525
1555,0.515,0.505
1556,0.505,0.505
1557,0.485,0.495
1558,0.475,0.495
1559,0.475,0.485
1560,0.465,0.475
1561,0.455,0.475
1562,0.445,0.465
1563,0.445,0.465
1564,0.425,0.455
1565,0.415,0.445
1566,0.405,0.445
1567,0.405,0.425
1568,0.395,0.425
1569,0.385,0.425
1570,0.365,0.415
1571,0.375,0.405
1572,0.365,0.405
1573,0.345,0.395
1574,0.345,0.385
1575,0.335,0.385
1576,0.335,0.375
1577,0.315,0.375
1578,0.305,0.365
1579,0.305,0.355
1580,0.305,0.355
1581,0.285,0.345
1582,0.275,0.335
1583,0.275,0.335
1584,0.265,0.335
1585,0.255,0.315
1586,0.245,0.315
1587,0.245,0.305
1588,0.235,0.295
1589,0.225,0.295
1590,0.215,0.295
1591,0.215,0.285
1592,0.205,0.275
1593,0.195,0.265
1594,0.175,0.255
1595,0.155,0.235
1596,0.005,0.265
1597,-0.955,-0.735
1598,-0.875,-0.695
1599,-0.845,-0.685
1600,-0.835,-0.675
1601,-0.825,-0.665
1602,-0.825,-0.655
1603,-0.805,-0.655
1604,-0.795,-0.645
1605,-0.785,-0.625
1606,-0.785,-0.625
1607,-0.765,-0.625
1608,-0.755,-0.605
1609,-0.755,-0.585
1610,-0.745,-0.585
1611,-0.735,-0.575
1612,-0.715,-0.565
1613,-0.715,-0.555
1614,-0.705,-0.545
1615,-0.695,-0.535
1616,-0.685,-0.525
1617,-0.665,-0.515
1618,-0.665,-0.515
1619,-0.655,-0.495
1620,-0.645,-0.485
1621,-0.635,-0.485
1622,-0.635,-0.475
1623,-0.615,-0.465
1624,-0.615,-0.455
1625,-0.605,-0.445
1626,-0.595,-0.445
1627,-0.585,-0.435
1628,-0.565,-0.415
1629,-0.565,-0.415
1630,-0.565,-0.415
1631,-0.555,-0.405
1632,-0.545,-0.395
1633,-0.535,-0.385
1634,-0.525,-0.375
1635,-0.515,-0.375
1636,-0.495,-0.365
1637,-0.495,-0.355
1638,-0.485,-0.355
1639,-0.475,-0.345
1640,-0.465,-0.335
1641,-0.455,-0.325
1642,-0.455,-0.325
1643,-0.435,-0.315
1644,-0.435,-0.315
1645,-0.425,-0.305
1646,-0.425,-0.295
1647,-0.415,-0.295
1648,-0.395,-0.285
1649,-0.395,-0.285
1650,-0.385,-0.275
1651,-0.375,-0.275
1652,-0.375,-0.275
1653,-0.365,-0.265
1654,-0.355,-0.265
1655,-0.345,-0.255
1656,-0.335,-0.255
1657,-0.325,-0.245
1658,-0.325,-0.235
1659,-0.305,-0.225
1660,-0.325,-0.215
1661,0.805,0.745
1662,0.725,0.735
1663,0.705,0.715
1664,0.695,0.705
1665,0.695,0.705
1666,0.685,0.695
1667,0.665,0.675
1668,0.665,0.675
1669,0.655,0.665
1670,0.635,0.645
1671,0.635,0.635
1672,0.615,0.625
1673,0.605,0.625
1674,0.595,0.615
1675,0.595,0.595
1676,0.575,0.585
1677,0.565,0.585
1678,0.555,0.575
1679,0.555,0.555
1680,0.535,0.555
1681,0.535,0.545
1682,0.515,0.535
1683,0.515,0.525
1684,0.505,0.515
1685,0.495,0.515
1686,0.475,0.505
1687,0.475,0.495
1688,0.465,0.485
1689,0.455,0.485
1690,0.445,0.475
1691,0.435,0.455
1692,0.425,0.455
1693,0.415,0.445
1694,0.415,0.435
1695,0.405,0.435
1696,0.395,0.425
1697,0.395,0.425
1698,0.385,0.415
1699,0.375,0.405
1700,0.365,0.405
1701,0.355,0.405
1702,0.345,0.395
1703,0.345,0.385
1704,0.325,0.375
1705,0.315,0.375
1706,0.315,0.365
1707,0.305,0.355
1708,0.295,0.355
1709,0.295,0.345
1710,0.285,0.345
1711,0.285,0.335
1712,0.265,0.325
1713,0.255,0.325
1714,0.245,0.315
1715,0.245,0.305
1716,0.235,0.305
1717,0.225,0.305
1718,0.215,0.295
1719,0.215,0.285
1720,0.205,0.285
1721,0.195,0.285
1722,0.185,0.255
1723,0.155,0.245
1724,0.075,0.265
1725,-0.935,-0.755
1726,-0.865,-0.715
1727,-0.845,-0.695
1728,-0.835,-0.685
1729,-0.825,-0.665
1730,-0.825,-0.665
1731,-0.805,-0.655
1732,-0.795,-0.645
1733,-0.795,-0.635
1734,-0.785,-0.625
1735,-0.765,-0.615
1736,-0.765,-0.605
1737,-0.755,-0.585
1738,-0.745,-0.575
1739,-0.735,-0.575
1740,-0.715,-0.565
1741,-0.715,-0.555
1742,-0.715,-0.555
1743,-0.695,-0.535
1744,-0.685,-0.525
1745,-0.675,-0.515
1746,-0.665,-0.515
1747,-0.655,-0.505
1748,-0.635,-0.495
1749,-0.635,-0.485
1750,-0.635,-0.485
1751,-0.615,-0.475
1752,-0.605,-0.465
1753,-0.595,-0.455
1754,-0.595,-0.455
1755,-0.575,-0.445
1756,-0.565,-0.425
1757,-0.565,-0.425
1758,-0.565,-0.425
1759,-0.545,-0.415
1760,-0.535,-0.405
1761,-0.525,-0.405
1762,-0.525,-0.395
1763,-0.515,-0.385
1764,-0.505,-0.375
1765,-0.495,-0.375
1766,-0.485,-0.365
1767,-0.475,-0.355
1768,-0.475,-0.355
1769,-0.465,-0.345
1770,-0.455,-0.345
1771,-0.445,-0.335
1772,-0.435,-0.325
1773,-0.435,-0.315
1774,-0.425,-0.315
1775,-0.415,-0.315
1776,-0.405,-0.315
1777,-0.405,-0.295
1778,-0.395,-0.295
1779,-0.385,-0.285
1780,-0.375,-0.275
1781,-0.365,-0.265
1782,-0.365,-0.265
1783,-0.355,-0.255
1784,-0.345,-0.245
1785,-0.335,-0.235
1786,-0.325,-0.225
1787,-0.295,-0.215
1788,0.055,-0.165
1789,0.795,0.765
1790,0.725,0.725
1791,0.705,0.715
1792,0.695,0.705
1793,0.685,0.695
1794,0.675,0.685
1795,0.665,0.675
1796,0.655,0.665
1797,0.645,0.665
1798,0.635,0.645
1799,0.625,0.645
1800,0.615,0.625
1801,0.605,0.625
1802,0.585,0.615
1803,0.585,0.605
1804,0.575,0.595
1805,0.565,0.585
1806,0.555,0.575
1807,0.545,0.565
1808,0.535,0.555
1809,0.525,0.545
1810,0.515,0.535
1811,0.505,0.525
1812,0.495,0.525
1813,0.495,0.515
1814,0.475,0.505
1815,0.465,0.495
1816,0.465,0.495
1817,0.455,0.485
1818,0.445,0.475
1819,0.425,0.465
1820,0.425,0.465
1821,0.415,0.455
1822,0.405,0.445
1823,0.395,0.435
1824,0.395,0.435
1825,0.385,0.435
1826,0.375,0.415
1827,0.365,0.415
1828,0.355,0.415
1829,0.355,0.405
1830,0.335,0.395
1831,0.335,0.395
1832,0.325,0.385
1833,0.315,0.375
1834,0.305,0.365
1835,0.305,0.365
1836,0.295,0.355
1837,0.285,0.355
1838,0.275,0.345
1839,0.275,0.345
1840,0.265,0.335
1841,0.255,0.335
1842,0.245,0.325
1843,0.245,0.315
1844,0.235,0.315
1845,0.225,0.315
1846,0.215,0.305
1847,0.215,0.295
1848,0.205,0.295
1849,0.195,0.285
1850,0.175,0.275
1851,0.165,0.255
1852,0.175,0.255
1853,-0.945,-0.715
1854,-0.885,-0.715
1855,-0.855,-0.685
1856,-0.835,-0.675
1857,-0.825,-0.665
1858,-0.825,-0.665
1859,-0.815,-0.655
1860,-0.805,-0.635
1861,-0.795,-0.625
1862,-0.785,-0.615
1863,-0.775,-0.605
1864,-0.765,-0.595
1865,-0.745,-0.585
1866,-0.745,-0.575
1867,-0.735,-0.565
1868,-0.725,-0.555
1869,-0.715,-0.545
1870,-0.705,-0.535
1871,-0.695,-0.525
1872,-0.675,-0.515
1873,-0.665,-0.505
1874,-0.665,-0.505
1875,-0.655,-0.495
1876,-0.645,-0.485
1877,-0.635,-0.475
1878,-0.625,-0.475
1879,-0.625,-0.465
1880,-0.605,-0.455
1881,-0.595,-0.445
1882,-0.595,-0.435
1883,-0.575,-0.435
1884,-0.575,-0.425
1885,-0.565,-0.415
1886,-0.565,-0.405
1887,-0.545,-0.405
1888,-0.535,-0.395
1889,-0.525,-0.385
1890,-0.525,-0.375
1891,-0.505,-0.375
1892,-0.485,-0.375
1893,-0.485,-0.355
1894,-0.475,-0.345
1895,-0.455,-0.345
1896,-0.445,-0.345
1897,-0.435,-0.325
1898,-0.435,-0.325
1899,-0.425,-0.325
1900,-0.425,-0.315
1901,-0.415,-0.305
1902,-0.415,-0.305
1903,-0.405,-0.295
1904,-0.395,-0.285
1905,-0.385,-0.275
1906,-0.385,-0.275
1907,-0.375,-0.275
1908,-0.375,-0.265
1909,-0.365,-0.255
1910,-0.365,-0.255
1911,-0.355,-0.255
1912,-0.345,-0.245
1913,-0.335,-0.235
1914,-0.325,-0.225
1915,-0.295,-0.215
1916,-0.195,-0.225
1917,0.765,0.815
1918,0.715,0.765
1919,0.695,0.735
1920,0.685,0.725
1921,0.675,0.725
1922,0.665,0.715
1923,0.665,0.695
1924,0.655,0.695
1925,0.635,0.685
1926,0.625,0.675
1927,0.625,0.665
1928,0.605,0.655
1929,0.595,0.645
1930,0.585,0.635
1931,0.585,0.625
1932,0.575,0.615
1933,0.555,0.605
1934,0.545,0.595
1935,0.545,0.585
1936,0.525,0.575
1937,0.515,0.575
1938,0.505,0.555
1939,0.495,0.545
1940,0.495,0.545
1941,0.485,0.535
1942,0.465,0.525
1943,0.465,0.515
1944,0.455,0.505
1945,0.445,0.505
1946,0.425,0.485
1947,0.435,0.485
1948,0.425,0.475
1949,0.405,0.465
1950,0.395,0.455
1951,0.395,0.445
1952,0.385,0.445
1953,0.375,0.435
1954,0.365,0.425
1955,0.365,0.415
1956,0.355,0.415
1957,0.335,0.415
1958,0.325,0.405
1959,0.325,0.395
1960,0.315,0.385
1961,0.315,0.385
1962,0.295,0.375
1963,0.295,0.365
1964,0.285,0.365
1965,0.275,0.355
1966,0.265,0.345
1967,0.265,0.345
1968,0.255,0.345
1969,0.245,0.335
1970,0.245,0.325
1971,0.235,0.325
1972,0.235,0.315
1973,0.215,0.315
1974,0.215,0.305
1975,0.215,0.305
1976,0.205,0.295
1977,0.195,0.285
1978,0.175,0.275
1979,0.155,0.255
1980,-0.005,0.275
1981,-0.935,-0.735
1982,-0.865,-0.695
1983,-0.845,-0.675
1984,-0.835,-0.665
1985,-0.825,-0.655
1986,-0.815,-0.655
1987,-0.805,-0.645
1988,-0.795,-0.635
1989,-0.785,-0.625
1990,-0.785,-0.615
1991,-0.765,-0.605
1992,-0.765,-0.595
1993,-0.755,-0.585
1994,-0.735,-0.575
1995,-0.725,-0.575
1996,-0.715,-0.565
1997,-0.705,-0.555
1998,-0.705,-0.545
1999,-0.685,-0.535
2000,-0.675,-0.525
2001,-0.675,-0.515
2002,-0.665,-0.505
2003,-0.655,-0.505
2004,-0.645,-0.495
2005,-0.635,-0.475
2006,-0.625,-0.465
2007,-0.615,-0.465
2008,-0.605,-0.455
2009,-0.605,-0.445
2010,-0.595,-0.435
2011,-0.585,-0.435
2012,-0.575,-0.435
2013,-0.575,-0.425
2014,-0.565,-0.415
2015,-0.545,-0.415
2016,-0.545,-0.395
2017,-0.545,-0.385
2018,-0.525,-0.385
2019,-0.515,-0.385
2020,-0.505,-0.375
2021,-0.495,-0.365
2022,-0.495,-0.355
2023,-0.485,-0.345
2024,-0.475,-0.345
2025,-0.465,-0.335
2026,-0.465,-0.325
2027,-0.445,-0.325
2028,-0.445,-0.325
2029,-0.435,-0.315
2030,-0.435,-0.305
2031,-0.415,-0.305
2032,-0.405,-0.305
2033,-0.405,-0.295
2034,-0.395,-0.285
2035,-0.385,-0.285
2036,-0.375,-0.275
2037,-0.365,-0.265
2038,-0.365,-0.265
2039,-0.345,-0.265
2040,-0.345,-0.255
2041,-0.335,-0.245
2042,-0.325,-0.235
2043,-0.295,-0.225
2044,-0.275,-0.205
2045,0.755,0.735
2046,0.715,0.755
2047,0.695,0.715
2048,0.685,0.705
2049,0.685,0.695
2050,0.665,0.695
2051,0.665,0.685
2052,0.655,0.675
2053,0.645,0.665
2054,0.635,0.655
2055,0.625,0.645
2056,0.605,0.635
2057,0.605,0.635
2058,0.585,0.615
2059,0.585,0.615
2060,0.565,0.595
2061,0.555,0.585
2062,0.545,0.575
2063,0.545,0.565
2064,0.535,0.555
2065,0.525,0.555
2066,0.505,0.535
2067,0.505,0.525
2068,0.495,0.525
2069,0.485,0.515
2070,0.475,0.505
2071,0.465,0.495
2072,0.455,0.485
2073,0.445,0.475
2074,0.435,0.465
2075,0.425,0.455
2076,0.425,0.455
2077,0.415,0.445
2078,0.395,0.435
2079,0.395,0.425
2080,0.385,0.425
2081,0.375,0.415
2082,0.365,0.415
2083,0.365,0.405
2084,0.355,0.395
2085,0.345,0.395
2086,0.335,0.375
2087,0.335,0.375
2088,0.325,0.365
2089,0.305,0.365
2090,0.295,0.355
2091,0.305,0.355
2092,0.295,0.345
2093,0.275,0.335
2094,0.265,0.325
2095,0.265,0.325
2096,0.255,0.325
2097,0.245,0.315
2098,0.235,0.305
2099,0.235,0.305
2100,0.225,0.305
2101,0.215,0.295
2102,0.205,0.285
2103,0.205,0.275
2104,0.195,0.275
2105,0.185,0.265
2106,0.175,0.255
2107,0.155,0.235
2108,-0.205,0.205
2109,-0.945,-0.755
2110,-0.875,-0.705
2111,-0.855,-0.695
2112,-0.845,-0.685
2113,-0.845,-0.675
2114,-0.825,-0.665
2115,-0.815,-0.655
2116,-0.805,-0.635
2117,-0.795,-0.625
2118,-0.785,-0.615
2119,-0.775,-0.605
2120,-0.765,-0.595
2121,-0.755,-0.585
2122,-0.755,-0.575
2123,-0.735,-0.575
2124,-0.725,-0.565
2125,-0.725,-0.555
2126,-0.715,-0.555
2127,-0.695,-0.545
2128,-0.685,-0.535
2129,-0.675,-0.535
2130,-0.675,-0.515
2131,-0.655,-0.505
2132,-0.655,-0.505
2133,-0.645,-0.495
2134,-0.635,-0.485
2135,-0.625,-0.485
2136,-0.615,-0.475
2137,-0.605,-0.465
2138,-0.595,-0.465
2139,-0.585,-0.455
2140,-0.575,-0.445
2141,-0.575,-0.445
2142,-0.565,-0.425
2143,-0.555,-0.415
2144,-0.545,-0.415
2145,-0.535,-0.405
2146,-0.535,-0.405
2147,-0.515,-0.395
2148,-0.505,-0.385
2149,-0.505,-0.375
2150,-0.505,-0.365
2151,-0.475,-0.355
2152,-0.475,-0.355
2153,-0.465,-0.345
2154,-0.455,-0.335
2155,-0.445,-0.325
2156,-0.445,-0.325
2157,-0.435,-0.315
2158,-0.425,-0.305
2159,-0.415,-0.295
2160,-0.415,-0.295
2161,-0.405,-0.285
2162,-0.395,-0.285
2163,-0.385,-0.275
2164,-0.385,-0.265
2165,-0.375,-0.265
2166,-0.365,-0.255
2167,-0.355,-0.245
2168,-0.345,-0.235
2169,-0.335,-0.225
2170,-0.325,-0.225
2171,-0.305,-0.205
2172,-0.125,-0.235
2173,0.785,0.725
2174,0.705,0.695
2175,0.695,0.675
2176,0.685,0.675
2177,0.675,0.665
2178,0.665,0.665
2179,0.665,0.655
2180,0.645,0.635
2181,0.635,0.635
2182,0.625,0.625
2183,0.625,0.615
2184,0.615,0.605
2185,0.605,0.605
2186,0.595,0.595
2187,0.585,0.585
2188,0.575,0.575
2189,0.575,0.575
2190,0.555,0.555
2191,0.545,0.555
2192,0.535,0.545
2193,0.525,0.545
2194,0.515,0.535
2195,0.505,0.525
2196,0.495,0.515
2197,0.485,0.505
2198,0.475,0.505
2199,0.475,0.485
2200,0.465,0.485
2201,0.455,0.475
2202,0.445,0.465
2203,0.435,0.455
2204,0.425,0.455
2205,0.415,0.445
2206,0.405,0.435
2207,0.405,0.425
2208,0.395,0.425
2209,0.385,0.415
2210,0.375,0.405
2211,0.365,0.395
2212,0.365,0.395
2213,0.345,0.395
2214,0.345,0.385
2215,0.335,0.375
2216,0.315,0.365
2217,0.315,0.365
2218,0.305,0.355
2219,0.305,0.345
2220,0.295,0.345
2221,0.295,0.335
2222,0.275,0.335
2223,0.275,0.325
2224,0.265,0.325
2225,0.265,0.315
2226,0.245,0.305
2227,0.245,0.305
2228,0.235,0.295
2229,0.225,0.295
2230,0.215,0.285
2231,0.215,0.275
2232,0.195,0.275
2233,0.185,0.265
2234,0.175,0.255
2235,0.155,0.235
2236,-0.185,0.195
2237,-0.935,-0.755
2238,-0.865,-0.705
2239,-0.845,-0.695
2240,-0.835,-0.685
2241,-0.835,-0.675
2242,-0.825,-0.665
2243,-0.805,-0.655
2244,-0.805,-0.645
2245,-0.795,-0.635
2246,-0.785,-0.635
2247,-0.775,-0.615
2248,-0.765,-0.615
2249,-0.755,-0.605
2250,-0.745,-0.595
2251,-0.735,-0.575
2252,-0.725,-0.565
2253,-0.715,-0.565
2254,-0.705,-0.555
2255,-0.695,-0.545
2256,-0.685,-0.535
2257,-0.675,-0.525
2258,-0.665,-0.515
2259,-0.655,-0.505
2260,-0.645,-0.505
2261,-0.645,-0.485
2262,-0.625,-0.485
2263,-0.615,-0.475
2264,-0.605,-0.465
2265,-0.595,-0.455
2266,-0.595,-0.445
2267,-0.585,-0.445
2268,-0.575,-0.435
2269,-0.565,-0.425
2270,-0.555,-0.425
2271,-0.545,-0.415
2272,-0.545,-0.405
2273,-0.535,-0.405
2274,-0.525,-0.395
2275,-0.515,-0.385
2276,-0.505,-0.385
2277,-0.495,-0.375
2278,-0.495,-0.375
2279,-0.475,-0.365
2280,-0.475,-0.365
2281,-0.465,-0.355
2282,-0.455,-0.345
2283,-0.445,-0.335
2284,-0.445,-0.335
2285,-0.435,-0.325
2286,-0.425,-0.315
2287,-0.415,-0.315
2288,-0.405,-0.305
2289,-0.395,-0.305
2290,-0.395,-0.295
2291,-0.385,-0.295
2292,-0.375,-0.285
2293,-0.365,-0.275
2294,-0.365,-0.275
2295,-0.355,-0.275
2296,-0.345,-0.265
2297,-0.335,-0.255
2298,-0.335,-0.235
2299,-0.305,-0.235
2300,-0.275,-0.245
2301,0.805,0.765
2302,0.725,0.735
2303,0.705,0.705
2304,0.695,0.705
2305,0.685,0.695
2306,0.675,0.685
2307,0.665,0.675
2308,0.655,0.665
2309,0.645,0.655
2310,0.625,0.645
2311,0.625,0.635
2312,0.615,0.625
2313,0.595,0.625
2314,0.585,0.605
2315,0.585,0.605
2316,0.575,0.595
2317,0.565,0.585
2318,0.545,0.575
2319,0.545,0.555
2320,0.535,0.555
2321,0.525,0.555
2322,0.515,0.535
2323,0.505,0.525
2324,0.505,0.515
2325,0.495,0.505
2326,0.475,0.495
2327,0.475,0.485
2328,0.465,0.475
2329,0.455,0.475
2330,0.435,0.455
2331,0.435,0.445
2332,0.425,0.445
2333,0.425,0.435
2334,0.415,0.425
2335,0.405,0.415
2336,0.395,0.415
2337,0.385,0.405
2338,0.385,0.405
2339,0.365,0.395
2340,0.365,0.395
2341,0.345,0.375
2342,0.335,0.375
2343,0.335,0.365
2344,0.315,0.355
2345,0.315,0.355
2346,0.305,0.355
2347,0.305,0.345
2348,0.295,0.335
2349,0.285,0.335
2350,0.275,0.325
2351,0.275,0.315
2352,0.265,0.315
2353,0.265,0.315
2354,0.255,0.305
2355,0.245,0.295
2356,0.235,0.285
2357,0.235,0.285
2358,0.225,0.285
2359,0.215,0.275
2360,0.205,0.265
2361,0.195,0.265
2362,0.185,0.255
2363,0.165,0.235
2364,0.185,0.235
2365,-0.945,-0.755
2366,-0.875,-0.725
2367,-0.835,-0.705
2368,-0.835,-0.705
2369,-0.825,-0.695
2370,-0.815,-0.685
2371,-0.805,-0.675
2372,-0.795,-0.665
2373,-0.785,-0.645
2374,-0.785,-0.645
2375,-0.755,-0.635
2376,-0.755,-0.625
2377,-0.745,-0.615
2378,-0.735,-0.605
2379,-0.715,-0.595
2380,-0.715,-0.585
2381,-0.695,-0.575
2382,-0.695,-0.565
2383,-0.685,-0.565
2384,-0.665,-0.555
2385,-0.655,-0.545
2386,-0.645,-0.535
2387,-0.635,-0.525
2388,-0.625,-0.515
2389,-0.615,-0.515
2390,-0.605,-0.505
2391,-0.585,-0.495
2392,-0.585,-0.485
2393,-0.565,-0.475
2394,-0.565,-0.475
2395,-0.545,-0.465
2396,-0.545,-0.455
2397,-0.535,-0.455
2398,-0.525,-0.445
2399,-0.505,-0.435
2400,-0.495,-0.435
2401,-0.495,-0.415
2402,-0.485,-0.415
2403,-0.485,-0.415
2404,-0.475,-0.405
2405,-0.465,-0.385
2406,-0.455,-0.385
2407,-0.455,-0.385
2408,-0.445,-0.375
2409,-0.435,-0.365
2410,-0.435,-0.355
2411,-0.415,-0.355
2412,-0.405,-0.345
2413,-0.395,-0.345
2414,-0.385,-0.335
2415,-0.375,-0.325
2416,-0.365,-0.325
2417,-0.355,-0.315
2418,-0.365,-0.315
2419,-0.355,-0.315
2420,-0.345,-0.305
2421,-0.335,-0.295
2422,-0.325,-0.295
2423,-0.305,-0.285
2424,-0.305,-0.275
2425,-0.295,-0.265
2426,-0.285,-0.255
2427,-0.255,-0.245
2428,0.035,-0.155
2429,0.735,0.775
2430,0.685,0.715
2431,0.675,0.695
2432,0.675,0.695
2433,0.665,0.685
2434,0.655,0.675
2435,0.655,0.655
2436,0.645,0.655
2437,0.635,0.645
2438,0.625,0.635
2439,0.625,0.615
2440,0.615,0.615
2441,0.605,0.605
2442,0.595,0.585
2443,0.585,0.585
2444,0.575,0.575
2445,0.565,0.565
2446,0.555,0.555
2447,0.545,0.545
2448,0.545,0.535
2449,0.535,0.525
2450,0.515,0.515
2451,0.505,0.515
2452,0.505,0.505
2453,0.485,0.495
2454,0.475,0.485
2455,0.475,0.475
2456,0.465,0.475
2457,0.465,0.465
2458,0.445,0.455
2459,0.435,0.455
2460,0.425,0.445
2461,0.425,0.435
2462,0.415,0.435
2463,0.405,0.415
2464,0.395,0.415
2465,0.385,0.405
2466,0.375,0.405
2467,0.365,0.395
2468,0.355,0.385
2469,0.355,0.375
2470,0.345,0.365
2471,0.335,0.365
2472,0.325,0.355
2473,0.325,0.355
2474,0.315,0.345
2475,0.305,0.335
2476,0.295,0.335
2477,0.295,0.325
2478,0.275,0.315
2479,0.275,0.315
2480,0.265,0.315
2481,0.265,0.305
2482,0.245,0.305
2483,0.245,0.295
2484,0.235,0.285
2485,0.235,0.285
2486,0.215,0.285
2487,0.215,0.275
2488,0.205,0.265
2489,0.195,0.255
2490,0.185,0.245
2491,0.165,0.235
2492,0.005,0.235
2493,-0.945,-0.755
2494,-0.865,-0.715
2495,-0.845,-0.705
2496,-0.835,-0.695
2497,-0.825,-0.675
2498,-0.825,-0.675
2499,-0.805,-0.665
2500,-0.795,-0.645
2501,-0.785,-0.645
2502,-0.775,-0.635
2503,-0.765,-0.625
2504,-0.755,-0.615
2505,-0.745,-0.605
2506,-0.745,-0.595
2507,-0.725,-0.575
2508,-0.715,-0.575
2509,-0.705,-0.565
2510,-0.705,-0.555
2511,-0.685,-0.545
2512,-0.675,-0.535
2513,-0.665,-0.525
2514,-0.665,-0.515
2515,-0.645,-0.505
2516,-0.645,-0.505
2517,-0.635,-0.485
2518,-0.625,-0.485
2519,-0.615,-0.475
2520,-0.615,-0.465
2521,-0.595,-0.455
2522,-0.595,-0.455
2523,-0.575,-0.445
2524,-0.565,-0.435
2525,-0.555,-0.425
2526,-0.555,-0.425
2527,-0.535,-0.415
2528,-0.525,-0.405
2529,-0.525,-0.395
2530,-0.525,-0.395
2531,-0.515,-0.385
2532,-0.505,-0.375
2533,-0.495,-0.365
2534,-0.485,-0.365
2535,-0.475,-0.355
2536,-0.465,-0.345
2537,-0.455,-0.335
2538,-0.455,-0.335
2539,-0.435,-0.335
2540,-0.425,-0.325
2541,-0.425,-0.315
2542,-0.425,-0.315
2543,-0.405,-0.305
2544,-0.395,-0.295
2545,-0.395,-0.285
2546,-0.395,-0.295
2547,-0.375,-0.285
2548,-0.365,-0.275
2549,-0.365,-0.265
2550,-0.365,-0.265
2551,-0.345,-0.255
2552,-0.335,-0.255
2553,-0.325,-0.245
2554,-0.325,-0.235
2555,-0.295,-0.215
2556,-0.225,-0.225
2557,0.815,0.785
2558,0.735,0.745
2559,0.715,0.725
2560,0.695,0.715
2561,0.685,0.705
2562,0.675,0.695
2563,0.675,0.685
2564,0.665,0.675
2565,0.655,0.675
2566,0.635,0.655
2567,0.625,0.645
2568,0.625,0.635
2569,0.615,0.635
2570,0.595,0.615
2571,0.585,0.605
2572,0.585,0.605
2573,0.575,0.595
2574,0.555,0.585
2575,0.545,0.575
2576,0.535,0.565
2577,0.535,0.565
2578,0.515,0.555
2579,0.515,0.535
2580,0.505,0.535
2581,0.495,0.525
2582,0.475,0.515
2583,0.475,0.505
2584,0.465,0.505
2585,0.455,0.495
2586,0.445,0.485
2587,0.445,0.475
2588,0.435,0.465
2589,0.425,0.465
2590,0.405,0.455
2591,0.405,0.445
2592,0.405,0.445
2593,0.385,0.435
2594,0.385,0.435
2595,0.375,0.415
2596,0.365,0.415
2597,0.355,0.415
2598,0.345,0.395
2599,0.335,0.395
2600,0.325,0.385
2601,0.315,0.385
2602,0.315,0.375
2603,0.315,0.365
2604,0.295,0.365
2605,0.295,0.355
2606,0.275,0.345
2607,0.275,0.345
2608,0.265,0.335
2609,0.265,0.335
2610,0.245,0.325
2611,0.245,0.315
2612,0.235,0.315
2613,0.235,0.315
2614,0.215,0.305
2615,0.215,0.295
2616,0.205,0.295
2617,0.195,0.275
2618,0.185,0.275
2619,0.165,0.255
2620,-0.285,0.165
2621,-0.925,-0.755
2622,-0.855,-0.705
2623,-0.835,-0.675
2624,-0.825,-0.675
2625,-0.815,-0.665
2626,-0.815,-0.655
2627,-0.805,-0.645
2628,-0.785,-0.635
2629,-0.775,-0.625
2630,-0.775,-0.615
2631,-0.765,-0.605
2632,-0.745,-0.595
2633,-0.745,-0.575
2634,-0.735,-0.575
2635,-0.725,-0.565
2636,-0.705,-0.555
2637,-0.695,-0.545
2638,-0.685,-0.535
2639,-0.685,-0.535
2640,-0.665,-0.525
2641,-0.655,-0.505
2642,-0.655,-0.505
2643,-0.635,-0.495
2644,-0.635,-0.495
2645,-0.625,-0.475
2646,-0.625,-0.475
2647,-0.605,-0.465
2648,-0.595,-0.455
2649,-0.585,-0.445
2650,-0.585,-0.445
2651,-0.575,-0.435
2652,-0.565,-0.425
2653,-0.565,-0.415
2654,-0.555,-0.415
2655,-0.535,-0.415
2656,-0.535,-0.395
2657,-0.525,-0.385
2658,-0.515,-0.385
2659,-0.505,-0.385
2660,-0.505,-0.375
2661,-0.485,-0.355
2662,-0.475,-0.345
2663,-0.475,-0.355
2664,-0.455,-0.345
2665,-0.455,-0.325
2666,-0.445,-0.325
2667,-0.435,-0.315
2668,-0.425,-0.315
2669,-0.425,-0.305
2670,-0.415,-0.305
2671,-0.405,-0.295
2672,-0.405,-0.295
2673,-0.395,-0.275
2674,-0.385,-0.275
2675,-0.375,-0.275
2676,-0.375,-0.265
2677,-0.365,-0.255
2678,-0.355,-0.255
2679,-0.345,-0.245
2680,-0.335,-0.245
2681,-0.325,-0.235
2682,-0.325,-0.225
2683,-0.295,-0.215
2684,-0.315,-0.215
2685,0.795,0.785
2686,0.725,0.755
2687,0.705,0.725
2688,0.695,0.725
2689,0.685,0.715
2690,0.675,0.705
2691,0.675,0.695
2692,0.665,0.685
2693,0.645,0.685
2694,0.635,0.665
2695,0.635,0.655
2696,0.625,0.655
2697,0.615,0.645
2698,0.595,0.625
2699,0.595,0.615
2700,0.585,0.605
2701,0.575,0.605
2702,0.555,0.585
2703,0.555,0.585
2704,0.545,0.575
2705,0.535,0.565
2706,0.525,0.555
2707,0.515,0.545
2708,0.515,0.535
2709,0.495,0.535
2710,0.485,0.515
2711,0.475,0.515
2712,0.475,0.505
2713,0.465,0.495
2714,0.445,0.485
2715,0.445,0.475
2716,0.435,0.475
2717,0.425,0.465
2718,0.415,0.455
2719,0.415,0.445
2720,0.395,0.445
2721,0.395,0.435
2722,0.375,0.425
2723,0.375,0.425
2724,0.365,0.415
2725,0.355,0.405
2726,0.345,0.405
2727,0.345,0.395
2728,0.335,0.385
2729,0.325,0.385
2730,0.315,0.375
2731,0.315,0.365
2732,0.305,0.365
2733,0.295,0.355
2734,0.285,0.355
2735,0.285,0.335
2736,0.275,0.335
2737,0.275,0.335
2738,0.265,0.325
2739,0.265,0.325
2740,0.245,0.315
2741,0.235,0.315
2742,0.235,0.305
2743,0.225,0.295
2744,0.215,0.295
2745,0.205,0.295
2746,0.195,0.275
2747,0.185,0.255
2748,0.125,0.275
2749,-0.935,-0.735
2750,-0.855,-0.695
2751,-0.835,-0.675
2752,-0.825,-0.665
2753,-0.805,-0.655
2754,-0.805,-0.645
2755,-0.795,-0.645
2756,-0.785,-0.635
2757,-0.775,-0.625
2758,-0.765,-0.625
2759,-0.755,-0.615
2760,-0.755,-0.605
2761,-0.735,-0.585
2762,-0.735,-0.575
2763,-0.715,-0.575
2764,-0.705,-0.565
2765,-0.695,-0.555
2766,-0.685,-0.545
2767,-0.665,-0.535
2768,-0.665,-0.535
2769,-0.655,-0.515
2770,-0.645,-0.505
2771,-0.635,-0.505
2772,-0.625,-0.495
2773,-0.615,-0.485
2774,-0.605,-0.475
2775,-0.595,-0.475
2776,-0.585,-0.465
2777,-0.585,-0.455
2778,-0.575,-0.445
2779,-0.555,-0.435
2780,-0.555,-0.425
2781,-0.545,-0.425
2782,-0.535,-0.415
2783,-0.525,-0.415
2784,-0.525,-0.405
2785,-0.515,-0.395
2786,-0.505,-0.385
2787,-0.495,-0.385
2788,-0.485,-0.375
2789,-0.475,-0.365
2790,-0.475,-0.355
2791,-0.455,-0.355
2792,-0.445,-0.345
2793,-0.445,-0.335
2794,-0.435,-0.335
2795,-0.425,-0.325
2796,-0.415,-0.315
2797,-0.415,-0.315
2798,-0.405,-0.305
2799,-0.395,-0.305
2800,-0.385,-0.295
2801,-0.375,-0.285
2802,-0.375,-0.285
2803,-0.365,-0.285
2804,-0.355,-0.265
2805,-0.345,-0.265
2806,-0.345,-0.265
2807,-0.335,-0.255
2808,-0.325,-0.245
2809,-0.315,-0.235
2810,-0.305,-0.235
2811,-0.275,-0.205
2812,0.565,0.315
2813,0.795,0.795
2814,0.735,0.735
2815,0.715,0.725
2816,0.715,0.715
2817,0.705,0.705
2818,0.685,0.695
2819,0.685,0.685
2820,0.675,0.675
2821,0.655,0.675
2822,0.645,0.655
2823,0.645,0.655
2824,0.635,0.645
2825,0.625,0.635
2826,0.615,0.615
2827,0.605,0.615
2828,0.595,0.605
2829,0.585,0.595
2830,0.575,0.585
2831,0.575,0.575
2832,0.555,0.565
2833,0.555,0.565
2834,0.535,0.555
2835,0.535,0.545
2836,0.515,0.535
2837,0.505,0.525
2838,0.505,0.525
2839,0.495,0.515
2840,0.485,0.505
2841,0.475,0.505
2842,0.465,0.495
2843,0.465,0.475
2844,0.445,0.475
2845,0.435,0.475
2846,0.435,0.465
2847,0.425,0.455
2848,0.425,0.445
2849,0.405,0.445
2850,0.395,0.435
2851,0.395,0.425
2852,0.385,0.415
2853,0.375,0.415
2854,0.365,0.405
2855,0.365,0.405
2856,0.355,0.395
2857,0.345,0.395
2858,0.345,0.375
2859,0.335,0.375
2860,0.315,0.365
2861,0.315,0.365
2862,0.305,0.355
2863,0.305,0.345
2864,0.295,0.345
2865,0.285,0.335
2866,0.275,0.335
2867,0.265,0.325
2868,0.265,0.325
2869,0.255,0.315
2870,0.245,0.305
2871,0.245,0.305
2872,0.225,0.295
2873,0.225,0.295
2874,0.215,0.285
2875,0.195,0.255
2876,0.185,0.245
2877,-0.925,-0.675
2878,-0.855,-0.705
2879,-0.815,-0.685
2880,-0.805,-0.665
2881,-0.795,-0.655
2882,-0.795,-0.645
2883,-0.785,-0.645
2884,-0.765,-0.635
2885,-0.755,-0.625
2886,-0.755,-0.615
2887,-0.735,-0.615
2888,-0.725,-0.595
2889,-0.715,-0.585
2890,-0.705,-0.575
2891,-0.695,-0.575
2892,-0.695,-0.565
2893,-0.675,-0.545
2894,-0.675,-0.545
2895,-0.655,-0.535
2896,-0.645,-0.525
2897,-0.635,-0.515
2898,-0.635,-0.505
2899,-0.615,-0.505
2900,-0.615,-0.505
2901,-0.595,-0.485
2902,-0.595,-0.475
2903,-0.575,-0.475
2904,-0.575,-0.465
2905,-0.555,-0.455
2906,-0.545,-0.435
2907,-0.535,-0.445
2908,-0.535,-0.435
2909,-0.525,-0.425
2910,-0.515,-0.415
2911,-0.505,-0.415
2912,-0.495,-0.405
2913,-0.485,-0.395
2914,-0.485,-0.385
2915,-0.455,-0.375
2916,-0.455,-0.375
2917,-0.455,-0.365
2918,-0.445,-0.355
2919,-0.435,-0.355
2920,-0.425,-0.355
2921,-0.415,-0.345
2922,-0.405,-0.335
2923,-0.395,-0.325
2924,-0.385,-0.325
2925,-0.385,-0.315
2926,-0.365,-0.315
2927,-0.365,-0.305
2928,-0.355,-0.305
2929,-0.345,-0.285
2930,-0.345,-0.285
2931,-0.335,-0.275
2932,-0.325,-0.275
2933,-0.325,-0.265
2934,-0.325,-0.265
2935,-0.305,-0.255
2936,-0.295,-0.245
2937,-0.295,-0.235
2938,-0.275,-0.225
2939,-0.255,-0.215
2940,-0.245,-0.235
2941,0.855,0.785
2942,0.765,0.745
2943,0.755,0.715
2944,0.745,0.715
2945,0.735,0.705
2946,0.725,0.695
2947,0.715,0.685
2948,0.705,0.675
2949,0.695,0.665
2950,0.675,0.655
2951,0.675,0.645
2952,0.665,0.635
2953,0.655,0.625
2954,0.645,0.615
2955,0.635,0.605
2956,0.625,0.585
2957,0.615,0.585
2958,0.595,0.575
2959,0.595,0.555
2960,0.585,0.555
2961,0.575,0.545
2962,0.565,0.525
2963,0.565,0.525
2964,0.545,0.515
2965,0.545,0.515
2966,0.525,0.505
2967,0.525,0.495
2968,0.515,0.485
2969,0.505,0.475
2970,0.495,0.475
2971,0.495,0.465
2972,0.485,0.455
2973,0.475,0.445
2974,0.455,0.435
2975,0.455,0.425
2976,0.455,0.425
2977,0.435,0.415
2978,0.425,0.405
2979,0.415,0.395
2980,0.415,0.395
2981,0.405,0.395
2982,0.395,0.385
2983,0.385,0.375
2984,0.385,0.365
2985,0.375,0.365
2986,0.365,0.345
2987,0.365,0.345
2988,0.355,0.335
2989,0.345,0.335
2990,0.335,0.315
2991,0.335,0.315
2992,0.315,0.305
2993,0.315,0.305
2994,0.305,0.295
2995,0.305,0.285
2996,0.295,0.295
2997,0.285,0.285
2998,0.275,0.265
2999,0.275,0.265
3000,0.265,0.255
3001,0.255,0.245
3002,0.235,0.235
3003,0.225,0.215
3004,-0.055,0.165
3005,-0.805,-0.775
3006,-0.755,-0.735
3007,-0.725,-0.715
3008,-0.725,-0.695
3009,-0.715,-0.695
3010,-0.705,-0.695
3011,-0.695,-0.685
3012,-0.685,-0.665
3013,-0.675,-0.665
3014,-0.675,-0.655
3015,-0.665,-0.645
3016,-0.655,-0.635
3017,-0.655,-0.625
3018,-0.635,-0.615
3019,-0.635,-0.615
3020,-0.625,-0.605
3021,-0.615,-0.595
3022,-0.615,-0.585
3023,-0.595,-0.585
3024,-0.595,-0.565
3025,-0.585,-0.565
3026,-0.585,-0.555
3027,-0.575,-0.545
3028,-0.565,-0.535
3029,-0.555,-0.535
3030,-0.555,-0.525
3031,-0.535,-0.525
3032,-0.535,-0.515
3033,-0.525,-0.495
3034,-0.525,-0.495
3035,-0.505,-0.485
3036,-0.495,-0.475
3037,-0.485,-0.465
3038,-0.485,-0.455
3039,-0.475,-0.455
3040,-0.475,-0.445
3041,-0.455,-0.435
3042,-0.455,-0.425
3043,-0.445,-0.425
3044,-0.435,-0.425
3045,-0.425,-0.405
3046,-0.425,-0.405
3047,-0.405,-0.405
3048,-0.405,-0.395
3049,-0.395,-0.385
3050,-0.385,-0.385
3051,-0.375,-0.385
3052,-0.365,-0.375
3053,-0.365,-0.365
3054,-0.355,-0.365
3055,-0.345,-0.365
3056,-0.335,-0.345
3057,-0.325,-0.345
3058,-0.325,-0.335
3059,-0.315,-0.345
3060,-0.315,-0.335
3061,-0.295,-0.325
3062,-0.295,-0.315
3063,-0.285,-0.315
3064,-0.275,-0.315
3065,-0.265,-0.295
3066,-0.255,-0.285
3067,-0.235,-0.275
3068,-0.245,-0.265
3069,0.875,0.675
3070,0.805,0.685
3071,0.775,0.665
3072,0.765,0.655
3073,0.765,0.645
3074,0.755,0.635
3075,0.745,0.625
3076,0.735,0.615
3077,0.725,0.605
3078,0.705,0.595
3079,0.705,0.585
3080,0.695,0.565
3081,0.675,0.555
3082,0.665,0.555
3083,0.665,0.535
3084,0.655,0.525
3085,0.645,0.515
3086,0.635,0.505
3087,0.635,0.485
3088,0.615,0.485
3089,0.605,0.475
3090,0.585,0.465
3091,0.585,0.455
3092,0.575,0.445
3093,0.565,0.435
3094,0.555,0.415
3095,0.555,0.415
3096,0.535,0.405
3097,0.525,0.395
3098,0.515,0.385
3099,0.515,0.375
3100,0.505,0.375
3101,0.505,0.355
3102,0.485,0.355
3103,0.475,0.345
3104,0.475,0.335
3105,0.475,0.335
3106,0.445,0.325
3107,0.445,0.315
3108,0.445,0.315
3109,0.435,0.315
3110,0.425,0.295
3111,0.425,0.295
3112,0.415,0.295
3113,0.415,0.285
3114,0.395,0.275
3115,0.385,0.265
3116,0.385,0.265
3117,0.375,0.265
3118,0.355,0.255
3119,0.355,0.245
3120,0.355,0.235
3121,0.345,0.235
3122,0.335,0.225
3123,0.335,0.225
3124,0.315,0.215
3125,0.315,0.205
3126,0.295,0.195
3127,0.305,0.195
3128,0.295,0.185
3129,0.275,0.175
3130,0.255,0.175
3131,0.225,0.155
3132,0.045,0.175
3133,-0.765,-0.825
3134,-0.745,-0.795
3135,-0.735,-0.775
3136,-0.725,-0.775
3137,-0.715,-0.755
3138,-0.715,-0.755
3139,-0.705,-0.755
3140,-0.695,-0.755
3141,-0.675,-0.735
3142,-0.675,-0.725
3143,-0.655,-0.725
3144,-0.655,-0.715
3145,-0.635,-0.705
3146,-0.635,-0.695
3147,-0.615,-0.685
3148,-0.605,-0.675
3149,-0.595,-0.665
3150,-0.595,-0.665
3151,-0.575,-0.655
3152,-0.565,-0.645
3153,-0.565,-0.635
3154,-0.545,-0.625
3155,-0.545,-0.625
3156,-0.525,-0.615
3157,-0.515,-0.595
3158,-0.515,-0.595
3159,-0.495,-0.585
3160,-0.485,-0.585
3161,-0.485,-0.565
3162,-0.475,-0.555
3163,-0.465,-0.555
3164,-0.455,-0.555
3165,-0.455,-0.535
3166,-0.435,-0.535
3167,-0.425,-0.525
3168,-0.425,-0.525
3169,-0.415,-0.515
3170,-0.405,-0.505
3171,-0.385,-0.505
3172,-0.385,-0.495
3173,-0.375,-0.485
3174,-0.355,-0.475
3175,-0.355,-0.485
3176,-0.345,-0.465
3177,-0.335,-0.465
3178,-0.325,-0.455
3179,-0.325,-0.455
3180,-0.305,-0.445
3181,-0.305,-0.435
3182,-0.295,-0.435
3183,-0.285,-0.435
3184,-0.275,-0.425
3185,-0.265,-0.415
3186,-0.255,-0.415
3187,-0.255,-0.415
3188,-0.245,-0.405
3189,-0.225,-0.395
3190,-0.225,-0.385
3191,-0.205,-0.385
3192,-0.205,-0.375
3193,-0.195,-0.365
3194,-0.185,-0.355
3195,-0.145,-0.345
3196,0.005,-0.355
3197,0.945,0.665
3198,0.865,0.615
3199,0.835,0.595
3200,0.835,0.585
3201,0.825,0.585
3202,0.815,0.565
3203,0.815,0.565
3204,0.805,0.555
3205,0.795,0.535
3206,0.785,0.525
3207,0.775,0.525
3208,0.765,0.515
3209,0.755,0.505
3210,0.735,0.485
3211,0.735,0.485
3212,0.725,0.475
3213,0.715,0.465
3214,0.705,0.455
3215,0.695,0.445
3216,0.685,0.445
3217,0.675,0.435
3218,0.665,0.425
3219,0.655,0.415
3220,0.655,0.405
3221,0.645,0.405
3222,0.625,0.395
3223,0.635,0.385
3224,0.615,0.375
3225,0.605,0.375
3226,0.595,0.355
3227,0.595,0.355
3228,0.585,0.345
3229,0.575,0.335
3230,0.565,0.335
3231,0.555,0.315
3232,0.555,0.315
3233,0.555,0.315
3234,0.535,0.305
3235,0.525,0.295
3236,0.515,0.285
3237,0.515,0.285
3238,0.505,0.285
3239,0.495,0.275
3240,0.485,0.255
3241,0.475,0.255
3242,0.465,0.245
3243,0.465,0.245
3244,0.455,0.235
3245,0.445,0.235
3246,0.435,0.225
3247,0.435,0.215
3248,0.425,0.215
3249,0.415,0.225
3250,0.405,0.215
3251,0.405,0.205
3252,0.385,0.205
3253,0.385,0.195
3254,0.375,0.185
3255,0.375,0.185
3256,0.355,0.185
3257,0.345,0.175
3258,0.335,0.165
3259,0.315,0.155
3260,0.305,0.165
3261,-0.795,-0.825
3262,-0.725,-0.795
3263,-0.685,-0.775
3264,-0.685,-0.765
3265,-0.675,-0.745
3266,-0.675,-0.735
3267,-0.665,-0.735
3268,-0.655,-0.715
3269,-0.645,-0.695
3270,-0.635,-0.705
3271,-0.625,-0.685
3272,-0.615,-0.675
3273,-0.605,-0.665
3274,-0.605,-0.655
3275,-0.595,-0.645
3276,-0.575,-0.635
3277,-0.575,-0.615
3278,-0.565,-0.615
3279,-0.545,-0.605
3280,-0.545,-0.585
3281,-0.535,-0.585
3282,-0.535,-0.575
3283,-0.515,-0.565
3284,-0.515,-0.555
3285,-0.505,-0.545
3286,-0.505,-0.535
3287,-0.495,-0.525
3288,-0.485,-0.515
3289,-0.475,-0.505
3290,-0.475,-0.495
3291,-0.455,-0.485
3292,-0.445,-0.475
3293,-0.445,-0.465
3294,-0.445,-0.455
3295,-0.425,-0.455
3296,-0.435,-0.435
3297,-0.415,-0.425
3298,-0.415,-0.435
3299,-0.405,-0.415
3300,-0.395,-0.405
3301,-0.395,-0.405
3302,-0.385,-0.405
3303,-0.375,-0.385
3304,-0.365,-0.375
3305,-0.365,-0.375
3306,-0.355,-0.365
3307,-0.355,-0.355
3308,-0.345,-0.345
3309,-0.335,-0.345
3310,-0.335,-0.335
3311,-0.325,-0.335
3312,-0.325,-0.325
3313,-0.315,-0.315
3314,-0.325,-0.305
3315,-0.305,-0.295
3316,-0.295,-0.285
3317,-0.295,-0.285
3318,-0.295,-0.275
3319,-0.275,-0.265
3320,-0.275,-0.265
3321,-0.275,-0.245
3322,-0.265,-0.235
3323,-0.235,-0.215
3324,-0.205,-0.245
3325,0.875,0.775
3326,0.775,0.745
3327,0.755,0.715
3328,0.745,0.705
3329,0.735,0.705
3330,0.715,0.695
3331,0.715,0.695
3332,0.705,0.685
3333,0.695,0.685
3334,0.675,0.665
3335,0.675,0.655
3336,0.655,0.645
3337,0.645,0.645
3338,0.635,0.635
3339,0.625,0.625
3340,0.615,0.615
3341,0.595,0.605
3342,0.585,0.595
3343,0.585,0.585
3344,0.565,0.585
3345,0.555,0.575
3346,0.545,0.565
3347,0.535,0.555
3348,0.515,0.545
3349,0.515,0.535
3350,0.495,0.535
3351,0.485,0.525
3352,0.475,0.515
3353,0.465,0.515
3354,0.445,0.505
3355,0.445,0.495
3356,0.435,0.485
3357,0.425,0.485
3358,0.415,0.465
3359,0.405,0.455
3360,0.395,0.445
3361,0.385,0.445
3362,0.375,0.435
3363,0.365,0.425
3364,0.355,0.415
3365,0.345,0.415
3366,0.335,0.405
3367,0.335,0.395
3368,0.315,0.385
3369,0.305,0.385
3370,0.295,0.375
3371,0.285,0.365
3372,0.275,0.355
3373,0.265,0.355
3374,0.255,0.335
3375,0.245,0.335
3376,0.235,0.335
3377,0.225,0.325
3378,0.205,0.315
3379,0.205,0.305
3380,0.195,0.295
3381,0.185,0.295
3382,0.175,0.295
3383,0.165,0.285
3384,0.165,0.285
3385,0.155,0.275
3386,0.125,0.265
3387,0.115,0.255
3388,0.105,0.235
3389,-0.995,-0.405
3390,-0.935,-0.465
3391,-0.905,-0.455
3392,-0.905,-0.445
3393,-0.895,-0.445
3394,-0.895,-0.435
3395,-0.875,-0.425
3396,-0.875,-0.415
3397,-0.865,-0.395
3398,-0.875,-0.385
3399,-0.875,-0.355
3400,-1.195,-0.175
3401,-2.035,0.825
3402,-1.945,0.820
3403,-1.915,0.820
3404,-1.915,0.820
3405,-1.885,0.820
3406,-1.875,0.820
3407,-1.845,0.820
3408,-1.785,0.840
3409,-1.745,0.850
3410,-1.765,0.830
3411,-1.695,0.820
3412,-1.695,0.800
3413,-1.715,0.760
3414,-1.715,0.765
3415,-1.715,0.735
3416,-1.705,0.725
3417,-1.715,0.715
3418,-1.695,0.700
3419,-1.695,0.690
3420,-1.675,0.690
3421,-1.655,0.680
3422,-1.635,0.675
3423,-1.615,0.675
3424,-1.595,0.675
3425,-1.565,0.685
3426,-1.545,0.730
3427,-1.585,1.040
3428,-1.345,1.300
3429,0.075,1.200
3430,1.425,0.395
3431,0.585,-0.695
3432,-2.215,-0.475
3433,-2.125,0.025
3434,-1.855,0.280
3435,-1.565,0.360
3436,-1.355,0.580
3437,-1.295,0.700
3438,-1.245,0.745
3439,-1.205,0.755
3440,-1.175,0.765
3441,-1.135,0.775
3442,-1.115,0.760
3443,-1.075,0.770
3444,-1.035,0.760
3445,-0.995,0.770
3446,-0.975,0.775
3447,-0.915,0.785
3448,-0.875,0.795
3449,-0.825,0.825
3450,-0.765,0.840
3451,-0.705,0.880
3452,-0.635,0.920
3453,-0.565,0.980
3454,-0.485,1.045
3455,-0.385,1.105
3456,-0.295,1.145
3457,-0.185,1.205
3458,-0.105,1.210
3459,-0.035,1.200
3460,0.005,1.170
3461,0.015,1.090
3462,-0.025,1.005
3463,-0.095,0.885
3464,-0.215,0.775
3465,-0.375,0.655
3466,-0.535,0.540
3467,-0.675,0.460
3468,-0.785,0.380
3469,-0.875,0.330
3470,-0.935,0.295
3471,-0.975,0.265
3472,-1.005,0.235
3473,-1.015,0.225
3474,-1.015,0.200
3475,-1.005,0.200
3476,-0.995,0.190
3477,-0.985,0.200
3478,-0.975,0.195
3479,-0.945,0.205
3480,-0.925,0.205
3481,-0.895,0.205
3482,-0.875,0.210
3483,-0.855,0.210
3484,-0.825,0.220
3485,-0.805,0.210
3486,-0.795,0.215
3487,-0.775,0.215
3488,-0.775,0.215
3489,-0.775,0.205
3490,-0.765,0.190
3491,-0.765,0.180
3492,-0.775,0.170
3493,-0.765,0.175
3494,-0.765,0.155
3495,-0.765,0.145
3496,-0.765,0.145
3497,-0.745,0.130
3498,-0.745,0.130
3499,-0.725,0.130
3500,-0.725,0.130
3501,-0.725,0.130
3502,-0.715,0.115
3503,-0.695,0.115
3504,-0.695,0.115
3505,-0.685,0.115
3506,-0.675,0.105
3507,-0.665,0.105
3508,-0.655,0.105
3509,-0.655,0.095
3510,-0.645,0.105
3511,-0.625,0.095
3512,-0.615,0.095
3513,-0.605,0.095
3514,-0.605,0.085
3515,-0.585,0.075
3516,-0.585,0.085
3517,-0.575,0.075
3518,-0.555,0.075
3519,-0.535,0.075
3520,-0.535,0.075
3521,-0.535,0.075
3522,-0.515,0.065
3523,-0.505,0.075
3524,-0.495,0.065
3525,-0.495,0.075
3526,-0.485,0.065
3527,-0.465,0.065
3528,-0.465,0.065
3529,-0.425,0.075
3530,-0.365,0.105
3531,-0.325,0.115
3532,-0.345,0.095
3533,-0.295,0.105
3534,-0.305,0.075
3535,-0.345,0.055
3536,-0.365,0.055
3537,-0.395,0.025
3538,-0.385,0.025
3539,-0.415,0.025
3540,-0.435,0.005
3541,-0.425,0.005
3542,-0.415,0.005
3543,-0.405,0.005
3544,-0.405,0.005
3545,-0.395,0.005
3546,-0.375,0.005
3547,-0.355,0.005
3548,-0.355,0.075
3549,-0.405,0.425
3550,-0.155,0.765
3551,1.225,0.615
3552,2.365,-0.195
3553,1.625,-1.385
3554,-1.395,-1.135
3555,-1.245,-0.625
3556,-0.835,-0.425
3557,-0.455,-0.315
3558,-0.215,-0.055
3559,-0.155,0.065
3560,-0.125,0.095
3561,-0.085,0.115
3562,-0.065,0.115
3563,-0.035,0.135
3564,-0.005,0.135
3565,0.025,0.145
3566,0.055,0.165
3567,0.065,0.155
3568,0.115,0.175
3569,0.145,0.195
3570,0.175,0.225
3571,0.225,0.245
3572,0.275,0.285
3573,0.325,0.335
3574,0.385,0.385
3575,0.455,0.445
3576,0.545,0.515
3577,0.625,0.585
3578,0.705,0.625
3579,0.795,0.655
3580,0.855,0.665
3581,0.905,0.645
3582,0.905,0.605
3583,0.895,0.515
3584,0.815,0.395
3585,0.685,0.285
3586,0.515,0.175
3587,0.355,0.085
3588,0.205,0.005
3589,0.075,-0.055
3590,-0.035,-0.105
3591,-0.115,-0.155
3592,-0.175,-0.175
3593,-0.195,-0.195
3594,-0.235,-0.215
3595,-0.255,-0.225
3596,-0.245,-0.225
3597,-0.245,-0.225
3598,-0.245,-0.225
3599,-0.225,-0.215
3600,-0.205,-0.215
3601,-0.195,-0.195
3602,-0.175,-0.195
3603,-0.155,-0.185
3604,-0.145,-0.185
3605,-0.115,-0.175
3606,-0.105,-0.175
3607,-0.095,-0.165
3608,-0.085,-0.175
3609,-0.075,-0.165
3610,-0.085,-0.175
3611,-0.085,-0.175
3612,-0.075,-0.175
3613,-0.085,-0.185
3614,-0.085,-0.185
3615,-0.095,-0.195
3616,-0.085,-0.185
3617,-0.095,-0.195
3618,-0.095,-0.195
3619,-0.085,-0.195
3620,-0.095,-0.205
3621,-0.085,-0.195
3622,-0.075,-0.195
3623,-0.085,-0.205
3624,-0.075,-0.195
3625,-0.065,-0.205
3626,-0.065,-0.205
3627,-0.065,-0.215
3628,-0.055,-0.205
3629,-0.055,-0.205
3630,-0.055,-0.215
3631,-0.045,-0.215
3632,-0.035,-0.205
3633,-0.035,-0.205
3634,-0.035,-0.205
3635,-0.035,-0.215
3636,-0.025,-0.205
3637,-0.015,-0.205
3638,-0.015,-0.205
3639,-0.005,-0.215
3640,-0.005,-0.215
3641,0.005,-0.205
3642,-0.005,-0.205
3643,0.005,-0.205
3644,0.045,-0.205
3645,0.105,-0.165
3646,0.125,-0.155
3647,0.105,-0.165
3648,0.145,-0.165
3649,0.155,-0.165
3650,0.085,-0.205
3651,0.075,-0.185
3652,0.035,-0.235
3653,0.035,-0.215
3654,-0.005,-0.225
3655,0.005,-0.225
3656,-0.005,-0.225
3657,-0.005,-0.225
3658,0.005,-0.225
3659,0.005,-0.215
3660,0.015,-0.215
3661,0.025,-0.205
3662,0.035,-0.185
3663,-0.005,-0.025
3664,-0.035,0.385
3665,0.845,0.465
3666,2.445,0.245
3667,2.635,-0.985
3668,-0.025,-1.365
3669,-1.205,-0.895
3670,-0.755,-0.425
3671,-0.405,-0.475
3672,-0.065,-0.385
3673,0.135,-0.195
3674,0.175,-0.115
3675,0.205,-0.095
3676,0.235,-0.075
3677,0.255,-0.075
3678,0.265,-0.065
3679,0.305,-0.055
3680,0.315,-0.045
3681,0.335,-0.035
3682,0.365,-0.035
3683,0.395,-0.015
3684,0.435,0.005
3685,0.475,0.025
3686,0.505,0.055
3687,0.565,0.095
3688,0.615,0.135
3689,0.675,0.185
3690,0.755,0.235
3691,0.845,0.295
3692,0.935,0.345
3693,1.015,0.385
3694,1.085,0.415
3695,1.135,0.415
3696,1.155,0.405
3697,1.155,0.365
3698,1.095,0.295
3699,1.005,0.215
3700,0.865,0.135
3701,0.685,0.065
3702,0.515,-0.015
3703,0.365,-0.085
3704,0.225,-0.135
3705,0.095,-0.185
3706,0.005,-0.225
3707,-0.055,-0.255
3708,-0.105,-0.265
3709,-0.135,-0.285
3710,-0.145,-0.285
3711,-0.145,-0.285
3712,-0.155,-0.285
3713,-0.155,-0.275
3714,-0.145,-0.275
3715,-0.135,-0.275
3716,-0.125,-0.265
3717,-0.105,-0.245
3718,-0.105,-0.245
3719,-0.085,-0.235
3720,-0.075,-0.235
3721,-0.065,-0.225
3722,-0.055,-0.225
3723,-0.045,-0.215
3724,-0.045,-0.225
3725,-0.045,-0.215
3726,-0.055,-0.215
3727,-0.055,-0.215
3728,-0.065,-0.215
3729,-0.075,-0.215
3730,-0.085,-0.225
3731,-0.085,-0.225
3732,-0.085,-0.215
3733,-0.085,-0.215
3734,-0.095,-0.215
3735,-0.105,-0.225
3736,-0.105,-0.225
3737,-0.095,-0.225
3738,-0.105,-0.215
3739,-0.095,-0.225
3740,-0.105,-0.225
3741,-0.105,-0.215
3742,-0.105,-0.205
3743,-0.105,-0.215
3744,-0.095,-0.215
3745,-0.105,-0.215
3746,-0.095,-0.205
3747,-0.095,-0.205
3748,-0.095,-0.205
3749,-0.095,-0.205
3750,-0.105,-0.205
3751,-0.095,-0.205
3752,-0.085,-0.205
3753,-0.085,-0.195
3754,-0.095,-0.195
3755,-0.085,-0.195
3756,-0.085,-0.195
3757,-0.085,-0.195
3758,-0.085,-0.185
3759,-0.055,-0.185
3760,0.015,-0.135
3761,0.045,-0.125
3762,0.015,-0.135
3763,0.055,-0.135
3764,0.055,-0.155
3765,-0.005,-0.175
3766,-0.015,-0.155
3767,-0.065,-0.205
3768,-0.065,-0.195
3769,-0.095,-0.185
3770,-0.115,-0.195
3771,-0.115,-0.195
3772,-0.105,-0.185
3773,-0.105,-0.185
3774,-0.105,-0.185
3775,-0.105,-0.175
3776,-0.085,-0.165
3777,-0.085,-0.135
3778,-0.115,0.105
3779,-0.075,0.505
3780,0.885,0.495
3781,2.275,0.165
3782,2.345,-1.145
3783,-0.685,-1.265
3784,-1.215,-0.795
3785,-0.745,-0.375
3786,-0.325,-0.425
3787,-0.045,-0.195
3788,0.025,-0.065
3789,0.055,-0.035
3790,0.075,-0.015
3791,0.095,-0.005
3792,0.105,0.015
3793,0.135,0.025
3794,0.155,0.025
3795,0.175,0.035
3796,0.195,0.055
3797,0.225,0.075
3798,0.245,0.075
3799,0.275,0.095
3800,0.305,0.125
3801,0.345,0.155
3802,0.395,0.195
3803,0.445,0.245
3804,0.495,0.305
3805,0.575,0.365
3806,0.665,0.435
3807,0.745,0.495
3808,0.825,0.555
3809,0.895,0.585
3810,0.955,0.585
3811,0.985,0.565
3812,0.975,0.515
3813,0.935,0.445
3814,0.855,0.355
3815,0.735,0.255
3816,0.575,0.165
3817,0.405,0.075
3818,0.255,-0.005
3819,0.115,-0.065
3820,-0.005,-0.125
3821,-0.085,-0.155
3822,-0.155,-0.185
3823,-0.195,-0.205
3824,-0.235,-0.225
3825,-0.255,-0.225
3826,-0.265,-0.225
3827,-0.275,-0.225
3828,-0.275,-0.225
3829,-0.265,-0.205
3830,-0.095,0.165
3831,-0.255,-0.195
3832,-0.245,-0.185
3833,-0.235,-0.175
3834,-0.215,-0.175
3835,-0.205,-0.165
3836,-0.185,-0.155
3837,-0.175,-0.145
3838,-0.175,-0.145
3839,-0.165,-0.135
3840,-0.175,-0.135
3841,-0.175,-0.135
3842,-0.175,-0.135
3843,-0.185,-0.145
3844,-0.195,-0.135
3845,-0.195,-0.135
3846,-0.205,-0.145
3847,-0.205,-0.145
3848,-0.205,-0.145
3849,-0.215,-0.135
3850,-0.215,-0.145
3851,-0.225,-0.145
3852,-0.215,-0.145
3853,-0.215,-0.145
3854,-0.215,-0.145
3855,-0.215,-0.145
3856,-0.215,-0.145
3857,-0.215,-0.145
3858,-0.205,-0.135
3859,-0.195,-0.135
3860,-0.205,-0.135
3861,-0.205,-0.135
3862,-0.205,-0.135
3863,-0.195,-0.125
3864,-0.195,-0.135
3865,-0.215,-0.125
3866,-0.185,-0.105
3867,-0.185,-0.125
3868,-0.185,-0.125
3869,-0.185,-0.115
3870,-0.175,-0.115
3871,-0.175,-0.125
3872,-0.175,-0.115
3873,-0.105,-0.085
3874,-0.055,-0.055
3875,-0.055,-0.045
3876,-0.045,-0.065
3877,-0.025,-0.065
3878,-0.095,-0.105
3879,-0.105,-0.095
3880,-0.145,-0.105
3881,-0.155,-0.135
3882,-0.175,-0.115
3883,-0.205,-0.125
3884,-0.215,-0.125
3885,-0.215,-0.115
3886,-0.215,-0.125
3887,-0.205,-0.125
3888,-0.195,-0.105
3889,-0.195,-0.095
3890,-0.185,-0.095
3891,-0.195,0.035
3892,-0.235,0.465
3893,0.075,0.675
3894,1.565,0.535
3895,2.425,-0.535
3896,1.385,-1.465
3897,-1.225,-1.185
3898,-1.205,-0.685
3899,-0.745,-0.445
3900,-0.355,-0.345
3901,-0.125,-0.115
3902,-0.075,0.005
3903,-0.035,0.045
3904,-0.015,0.065
3905,0.005,0.085
3906,0.025,0.095
3907,0.045,0.105
3908,0.065,0.125
3909,0.085,0.135
3910,0.115,0.155
3911,0.135,0.155
3912,0.165,0.175
3913,0.195,0.205
3914,0.235,0.225
3915,0.265,0.255
3916,0.315,0.295
3917,0.375,0.355
3918,0.435,0.425
3919,0.505,0.485
3920,0.595,0.565
3921,0.685,0.625
3922,0.775,0.675
3923,0.845,0.685
3924,0.895,0.685
3925,0.915,0.665
3926,0.905,0.615
3927,0.865,0.525
3928,0.795,0.435
3929,0.645,0.325
3930,0.475,0.225
3931,0.315,0.135
3932,0.155,0.055
3933,0.015,-0.005
3934,-0.095,-0.055
3935,-0.175,-0.105
3936,-0.235,-0.135
3937,-0.275,-0.145
3938,-0.305,-0.155
3939,-0.315,-0.175
3940,-0.335,-0.175
3941,-0.325,-0.175
3942,-0.325,-0.165
3943,-0.325,-0.165
3944,-0.315,-0.155
3945,-0.295,-0.145
3946,-0.285,-0.125
3947,-0.255,-0.135
3948,-0.255,-0.115
3949,-0.225,-0.105
3950,-0.215,-0.095
3951,-0.215,-0.095
3952,-0.205,-0.095
3953,-0.195,-0.085
3954,-0.195,-0.085
3955,-0.195,-0.095
3956,-0.205,-0.095
3957,-0.215,-0.095
3958,-0.225,-0.095
3959,-0.225,-0.105
3960,-0.235,-0.105
3961,-0.235,-0.105
3962,-0.245,-0.105
3963,-0.235,-0.105
3964,-0.235,-0.105
3965,-0.225,-0.105
3966,-0.245,-0.105
3967,-0.245,-0.115
3968,-0.235,-0.115
3969,-0.225,-0.105
3970,-0.235,-0.105
3971,-0.225,-0.105
3972,-0.225,-0.105
3973,-0.225,-0.105
3974,-0.215,-0.095
3975,-0.215,-0.095
3976,-0.215,-0.105
3977,-0.205,-0.105
3978,-0.215,-0.095
3979,-0.205,-0.095
3980,-0.205,-0.095
3981,-0.205,-0.095
3982,-0.195,-0.095
3983,-0.195,-0.095
3984,-0.185,-0.095
3985,-0.185,-0.085
3986,-0.185,-0.085
3987,-0.195,-0.095
3988,-0.175,-0.075
3989,-0.225,-0.075
3990,-0.095,-0.045
3991,-0.045,-0.015
3992,-0.075,-0.025
3993,-0.025,-0.015
3994,-0.055,-0.045
3995,-0.095,-0.065
3996,-0.175,-0.035
3997,-0.145,-0.125
3998,-0.245,-0.115
3999,-0.185,-0.075
4000,-0.195,-0.085
4001,-0.205,-0.085
4002,-0.195,-0.085
4003,-0.195,-0.075
4004,-0.185,-0.065
4005,-0.175,-0.065
4006,-0.165,-0.065
4007,-0.155,-0.045
4008,-0.215,0.205
4009,-0.175,0.575
4010,0.915,0.575
4011,2.355,0.205
4012,2.395,-1.065
4013,-0.295,-1.305
4014,-1.385,-0.875
4015,-0.935,-0.405
4016,-0.555,-0.415
4017,-0.235,-0.235
4018,-0.065,-0.025
4019,-0.025,0.065
4020,-0.005,0.085
4021,0.015,0.105
4022,0.035,0.115
4023,0.065,0.125
4024,0.075,0.135
4025,0.105,0.155
4026,0.115,0.155
4027,0.155,0.165
4028,0.175,0.175
4029,0.205,0.205
4030,0.235,0.225
4031,0.275,0.255
4032,0.315,0.295
4033,0.365,0.335
4034,0.435,0.395
4035,0.505,0.455
4036,0.595,0.525
4037,0.655,0.585
4038,0.265,0.515
4039,0.795,0.665
4040,0.885,0.695
4041,0.955,0.675
4042,0.965,0.625
4043,0.935,0.565
4044,0.865,0.475
4045,0.755,0.375
4046,0.575,0.265
4047,0.415,0.175
4048,0.245,0.095
4049,0.105,0.025
4050,-0.015,-0.025
4051,-0.115,-0.075
4052,-0.195,-0.105
4053,-0.235,-0.115
4054,-0.265,-0.135
4055,-0.285,-0.145
4056,-0.305,-0.155
4057,-0.315,-0.155
4058,-0.315,-0.145
4059,-0.295,-0.135
4060,-0.285,-0.135
4061,-0.275,-0.125
4062,-0.265,-0.115
4063,-0.245,-0.115
4064,-0.235,-0.105
4065,-0.225,-0.095
4066,-0.205,-0.085
4067,-0.185,-0.085
4068,-0.185,-0.075
4069,-0.175,-0.075
4070,-0.165,-0.075
4071,-0.165,-0.075
4072,-0.185,-0.075
4073,-0.195,-0.075
4074,-0.205,-0.085
4075,-0.195,-0.085
4076,-0.205,-0.085
4077,-0.205,-0.085
4078,-0.205,-0.085
4079,-0.205,-0.095
4080,-0.215,-0.085
4081,-0.215,-0.085
4082,-0.215,-0.085
4083,-0.205,-0.085
4084,-0.205,-0.085
4085,-0.205,-0.085
4086,-0.205,-0.075
4087,-0.195,-0.075
4088,-0.205,-0.075
4089,-0.205,-0.075
4090,-0.205,-0.075
4091,-0.195,-0.075
4092,-0.175,-0.075
4093,-0.185,-0.075
4094,-0.205,-0.075
4095,-0.205,-0.055
4096,-0.185,-0.085
4097,-0.165,-0.065
4098,-0.185,-0.065
4099,-0.175,-0.075
4100,-0.115,-0.045
4101,-0.045,-0.005
4102,-0.065,-0.005
4103,-0.065,-0.015
4104,-0.025,-0.025
4105,-0.055,-0.035
4106,-0.095,-0.055
4107,-0.115,-0.055
4108,-0.155,-0.085
4109,-0.155,-0.065
4110,-0.185,-0.075
4111,-0.195,-0.075
4112,-0.185,-0.075
4113,-0.185,-0.065
4114,-0.185,-0.065
4115,-0.175,-0.065
4116,-0.175,-0.055
4117,-0.135,-0.045
4118,-0.145,-0.015
4119,-0.205,0.245
4120,-0.085,0.595
4121,1.115,0.535
4122,2.365,0.095
4123,2.095,-0.935
4124,-0.955,-0.995
4125,-1.175,-0.575
4126,-0.795,-0.165
4127,-0.455,-0.325
4128,-0.175,-0.165
4129,-0.045,-0.005
4130,-0.005,0.045
4131,0.025,0.065
4132,0.055,0.065
4133,0.075,0.085
4134,0.095,0.085
4135,0.125,0.095
4136,0.145,0.105
4137,0.175,0.115
4138,0.195,0.135
4139,0.215,0.145
4140,0.245,0.155
4141,0.285,0.185
4142,0.325,0.205
4143,0.385,0.235
4144,0.445,0.275
4145,0.515,0.335
4146,0.595,0.395
4147,0.695,0.445
4148,0.805,0.505
4149,0.895,0.535
4150,0.955,0.555
4151,1.005,0.555
4152,1.015,0.525
4153,0.995,0.495
4154,0.925,0.425
4155,0.805,0.345
4156,0.615,0.265
4157,0.425,0.185
4158,0.225,0.105
4159,0.085,0.045
4160,-0.055,-0.005
4161,-0.155,-0.055
4162,-0.235,-0.085
4163,-0.275,-0.105
4164,-0.305,-0.115
4165,-0.315,-0.125
4166,-0.335,-0.135
4167,-0.325,-0.125
4168,-0.335,-0.125
4169,-0.325,-0.115
4170,-0.315,-0.115
4171,-0.295,-0.105
4172,-0.285,-0.095
4173,-0.285,-0.085
4174,-0.265,-0.085
4175,-0.245,-0.075
4176,-0.235,-0.065
4177,-0.225,-0.055
4178,-0.225,-0.065
4179,-0.225,-0.055
4180,-0.215,-0.055
4181,-0.215,-0.055
4182,-0.225,-0.055
4183,-0.235,-0.055
4184,-0.245,-0.065
4185,-0.245,-0.055
4186,-0.245,-0.065
4187,-0.245,-0.065
4188,-0.245,-0.065
4189,-0.255,-0.065
4190,-0.275,-0.065
4191,-0.255,-0.075
4192,-0.265,-0.065
4193,-0.255,-0.055
4194,-0.255,-0.065
4195,-0.255,-0.065
4196,-0.255,-0.065
4197,-0.255,-0.055
4198,-0.255,-0.065
4199,-0.255,-0.055
4200,-0.265,-0.065
4201,-0.245,-0.055
4202,-0.245,-0.065
4203,-0.245,-0.065
4204,-0.245,-0.055
4205,-0.235,-0.055
4206,-0.245,-0.065
4207,-0.225,-0.055
4208,-0.225,-0.055
4209,-0.225,-0.055
4210,-0.215,-0.055
4211,-0.125,-0.005
4212,-0.095,0.005
4213,-0.135,0.005
4214,-0.105,-0.015
4215,-0.095,-0.025
4216,-0.145,-0.045
4217,-0.155,-0.035
4218,-0.205,-0.055
4219,-0.205,-0.065
4220,-0.225,-0.055
4221,-0.255,-0.065
4222,-0.255,-0.065
4223,-0.255,-0.065
4224,-0.245,-0.055
4225,-0.255,-0.065
4226,-0.245,-0.055
4227,-0.225,-0.045
4228,-0.215,-0.035
4229,-0.215,0.035
4230,-0.265,0.355
4231,-0.105,0.685
4232,1.165,0.575
4233,2.275,-0.105
4234,1.955,-1.115
4235,-1.005,-1.045
4236,-1.285,-0.595
4237,-0.825,-0.255
4238,-0.445,-0.285
4239,-0.225,-0.125
4240,-0.135,0.005
4241,-0.085,0.075
4242,-0.065,0.095
4243,-0.035,0.105
4244,-0.025,0.115
4245,-0.005,0.135
4246,0.015,0.145
4247,0.045,0.145
4248,0.065,0.155
4249,0.095,0.175
4250,0.115,0.185
4251,0.155,0.205
4252,0.185,0.225
4253,0.225,0.265
4254,0.265,0.295
4255,0.335,0.345
4256,0.405,0.405
4257,0.485,0.475
4258,0.565,0.545
4259,0.675,0.605
4260,0.765,0.645
4261,0.845,0.675
4262,0.895,0.665
4263,0.925,0.645
4264,0.905,0.585
4265,0.845,0.505
4266,0.735,0.405
4267,0.575,0.315
4268,0.375,0.215
4269,0.175,0.135
4270,0.025,0.055
4271,-0.095,0.005
4272,-0.205,-0.035
4273,-0.285,-0.075
4274,-0.345,-0.095
4275,-0.375,-0.105
4276,-0.405,-0.125
4277,-0.425,-0.135
4278,-0.435,-0.135
4279,-0.435,-0.125
4280,-0.425,-0.125
4281,-0.415,-0.115
4282,-0.405,-0.115
4283,-0.385,-0.105
4284,-0.375,-0.095
4285,-0.355,-0.085
4286,-0.335,-0.075
4287,-0.315,-0.065
4288,-0.305,-0.065
4289,-0.295,-0.055
4290,-0.285,-0.055
4291,-0.285,-0.055
4292,-0.285,-0.055
4293,-0.295,-0.055
4294,-0.305,-0.065
4295,-0.305,-0.065
4296,-0.325,-0.065
4297,-0.325,-0.065
4298,-0.325,-0.065
4299,-0.325,-0.065
4300,-0.325,-0.065
4301,-0.335,-0.075
4302,-0.335,-0.075
4303,-0.335,-0.065
4304,-0.335,-0.075
4305,-0.335,-0.075
4306,-0.345,-0.075
4307,-0.325,-0.075
4308,-0.325,-0.065
4309,-0.325,-0.065
4310,-0.325,-0.075
4311,-0.325,-0.075
4312,-0.325,-0.065
4313,-0.315,-0.065
4314,-0.325,-0.065
4315,-0.305,-0.065
4316,-0.295,-0.065
4317,-0.305,-0.065
4318,-0.305,-0.065
4319,-0.295,-0.065
4320,-0.295,-0.065
4321,-0.295,-0.065
4322,-0.295,-0.065
4323,-0.275,-0.065
4324,-0.195,-0.025
4325,-0.165,-0.005
4326,-0.175,-0.005
4327,-0.155,-0.015
4328,-0.125,-0.015
4329,-0.185,-0.055
4330,-0.215,-0.055
4331,-0.235,-0.045
4332,-0.245,-0.085
4333,-0.265,-0.065
4334,-0.295,-0.065
4335,-0.295,-0.085
4336,-0.315,-0.085
4337,-0.305,-0.075
4338,-0.305,-0.065
4339,-0.285,-0.065
4340,-0.295,-0.065
4341,-0.275,-0.045
4342,-0.265,-0.035
4343,-0.295,0.135
4344,-0.325,0.545
4345,0.395,0.685
4346,2.035,0.385
4347,2.375,-1.015
4348,-0.035,-1.405
4349,-1.565,-0.965
4350,-1.115,-0.375
4351,-0.695,-0.405
4352,-0.345,-0.225
4353,-0.175,-0.005
4354,-0.145,0.075
4355,-0.115,0.095
4356,-0.095,0.115
4357,-0.065,0.135
4358,-0.055,0.135
4359,-0.025,0.145
4360,-0.005,0.165
4361,0.015,0.175
4362,0.025,0.185
4363,0.065,0.205
4364,0.095,0.215
4365,0.135,0.255
4366,0.175,0.285
4367,0.215,0.325
4368,0.265,0.375
4369,0.345,0.445
4370,0.415,0.515
4371,0.495,0.585
4372,0.575,0.635
4373,0.685,0.705
4374,0.755,0.725
4375,0.825,0.715
4376,0.835,0.685
4377,0.825,0.625
4378,0.765,0.525
4379,0.655,0.405
4380,0.485,0.295
4381,0.295,0.195
4382,0.105,0.105
4383,-0.015,0.035
4384,-0.135,-0.025
4385,-0.225,-0.055
4386,-0.295,-0.095
4387,-0.345,-0.125
4388,-0.385,-0.135
4389,-0.405,-0.145
4390,-0.425,-0.155
4391,-0.425,-0.155
4392,-0.425,-0.145
4393,-0.415,-0.145
4394,-0.405,-0.135
4395,-0.385,-0.125
4396,-0.375,-0.115
4397,-0.365,-0.105
4398,-0.355,-0.095
4399,-0.325,-0.085
4400,-0.325,-0.075
4401,-0.295,-0.065
4402,-0.295,-0.065
4403,-0.275,-0.065
4404,-0.275,-0.055
4405,-0.275,-0.055
4406,-0.295,-0.065
4407,-0.285,-0.065
4408,-0.295,-0.075
4409,-0.295,-0.075
4410,-0.305,-0.075
4411,-0.305,-0.085
4412,-0.305,-0.085
4413,-0.305,-0.085
4414,-0.305,-0.085
4415,-0.305,-0.085
4416,-0.305,-0.095
4417,-0.295,-0.085
4418,-0.295,-0.095
4419,-0.305,-0.085
4420,-0.305,-0.095
4421,-0.295,-0.085
4422,-0.295,-0.085
4423,-0.295,-0.085
4424,-0.295,-0.085
4425,-0.295,-0.085
4426,-0.285,-0.085
4427,-0.275,-0.085
4428,-0.275,-0.085
4429,-0.275,-0.075
4430,-0.275,-0.085
4431,-0.275,-0.085
4432,-0.265,-0.075
4433,-0.275,-0.075
4434,-0.265,-0.075
4435,-0.255,-0.075
4436,-0.255,-0.075
4437,-0.255,-0.065
4438,-0.255,-0.065
4439,-0.255,-0.075
4440,-0.255,-0.075
4441,-0.215,-0.045
4442,-0.155,-0.015
4443,-0.115,-0.005
4444,-0.145,-0.005
4445,-0.105,-0.005
4446,-0.105,-0.015
4447,-0.165,-0.055
4448,-0.175,-0.035
4449,-0.225,-0.075
4450,-0.235,-0.075
4451,-0.265,-0.065
4452,-0.285,-0.075
4453,-0.275,-0.075
4454,-0.285,-0.075
4455,-0.275,-0.075
4456,-0.275,-0.065
4457,-0.265,-0.055
4458,-0.255,-0.055
4459,-0.245,-0.045
4460,-0.255,0.075
4461,-0.315,0.505
4462,0.155,0.725
4463,1.775,0.525
4464,2.395,-0.885
4465,0.235,-1.525
4466,-1.485,-1.035
4467,-1.055,-0.435
4468,-0.565,-0.425
4469,-0.245,-0.165
4470,-0.135,0.035
4471,-0.095,0.085
4472,-0.085,0.105
4473,-0.055,0.135
4474,-0.055,0.145
4475,-0.025,0.155
4476,0.005,0.165
4477,0.025,0.185
4478,0.045,0.195
4479,0.075,0.205
4480,0.115,0.235
4481,0.145,0.255
4482,0.185,0.285
4483,0.225,0.325
4484,0.275,0.375
4485,0.325,0.435
4486,0.405,0.505
4487,0.475,0.565
4488,0.555,0.655
4489,0.635,0.705
4490,0.725,0.745
4491,0.795,0.765
4492,0.835,0.745
4493,0.845,0.705
4494,0.825,0.615
4495,0.745,0.515
4496,0.635,0.405
4497,0.515,0.315
4498,0.345,0.215
4499,0.195,0.115
4500,0.045,0.055
4501,-0.055,-0.005
4502,-0.155,-0.065
4503,-0.225,-0.085
4504,-0.275,-0.105
4505,-0.305,-0.115
4506,-0.325,-0.135
4507,-0.335,-0.135
4508,-0.335,-0.135
4509,-0.345,-0.135
4510,-0.335,-0.125
4511,-0.325,-0.125
4512,-0.325,-0.115
4513,-0.305,-0.095
4514,-0.295,-0.095
4515,-0.275,-0.085
4516,-0.255,-0.075
4517,-0.245,-0.065
4518,-0.235,-0.065
4519,-0.215,-0.055
4520,-0.225,-0.055
4521,-0.215,-0.055
4522,-0.215,-0.045
4523,-0.215,-0.055
4524,-0.225,-0.055
4525,-0.235,-0.055
4526,-0.235,-0.055
4527,-0.245,-0.075
4528,-0.245,-0.075
4529,-0.255,-0.065
4530,-0.265,-0.065
4531,-0.255,-0.075
4532,-0.245,-0.075
4533,-0.245,-0.065
4534,-0.255,-0.065
4535,-0.245,-0.075
4536,-0.235,-0.075
4537,-0.245,-0.065
4538,-0.245,-0.075
4539,-0.235,-0.075
4540,-0.235,-0.065
4541,-0.235,-0.065
4542,-0.245,-0.065
4543,-0.225,-0.065
4544,-0.225,-0.065
4545,-0.225,-0.065
4546,-0.225,-0.065
4547,-0.205,-0.065
4548,-0.215,-0.065
4549,-0.205,-0.055
4550,-0.215,-0.055
4551,-0.205,-0.055
4552,-0.205,-0.055
4553,-0.195,-0.045
4554,-0.195,-0.055
4555,-0.105,-0.015
4556,-0.065,0.015
4557,-0.095,0.015
4558,-0.075,-0.005
4559,-0.045,-0.005
4560,-0.105,-0.035
4561,-0.125,-0.035
4562,-0.155,-0.035
4563,-0.165,-0.065
4564,-0.185,-0.045
4565,-0.215,-0.055
4566,-0.215,-0.065
4567,-0.215,-0.055
4568,-0.205,-0.055
4569,-0.195,-0.045
4570,-0.195,-0.045
4571,-0.185,-0.045
4572,-0.175,-0.035
4573,-0.175,0.015
4574,-0.245,0.335
4575,-0.005,0.675
4576,1.445,0.555
4577,2.375,-0.235
4578,1.435,-1.145
4579,-1.225,-0.965
4580,-1.075,-0.515
4581,-0.705,-0.285
4582,-0.355,-0.285
4583,-0.105,-0.055
4584,-0.045,0.055
4585,-0.015,0.085
4586,-0.005,0.095
4587,0.025,0.105
4588,0.055,0.115
4589,0.075,0.125
4590,0.085,0.125
4591,0.115,0.145
4592,0.145,0.155
4593,0.175,0.165
4594,0.205,0.185
4595,0.235,0.205
4596,0.275,0.235
4597,0.315,0.265
4598,0.355,0.295
4599,0.415,0.335
4600,0.485,0.385
4601,0.565,0.445
4602,0.645,0.505
4603,0.765,0.555
4604,0.845,0.595
4605,0.915,0.615
4606,0.965,0.605
4607,0.975,0.585
4608,0.955,0.535
4609,0.905,0.465
4610,0.785,0.385
4611,0.625,0.295
4612,0.455,0.225
4613,0.275,0.155
4614,0.105,0.075
4615,-0.015,0.015
4616,-0.135,-0.035
4617,-0.195,-0.055
4618,-0.265,-0.075
4619,-0.285,-0.095
4620,-0.325,-0.105
4621,-0.325,-0.105
4622,-0.325,-0.105
4623,-0.325,-0.095
4624,-0.325,-0.095
4625,-0.295,-0.085
4626,-0.295,-0.075
4627,-0.275,-0.085
4628,-0.255,-0.065
4629,-0.255,-0.055
4630,-0.235,-0.045
4631,-0.225,-0.055
4632,-0.225,-0.045
4633,-0.205,-0.035
4634,-0.205,-0.035
4635,-0.205,-0.045
4636,-0.205,-0.045
4637,-0.205,-0.035
4638,-0.225,-0.045
4639,-0.235,-0.045
4640,-0.235,-0.045
4641,-0.235,-0.045
4642,-0.245,-0.045
4643,-0.245,-0.055
4644,-0.255,-0.045
4645,-0.245,-0.045
4646,-0.255,-0.045
4647,-0.245,-0.055
4648,-0.245,-0.045
4649,-0.245,-0.045
4650,-0.245,-0.045
4651,-0.245,-0.055
4652,-0.245,-0.045
4653,-0.245,-0.045
4654,-0.235,-0.045
4655,-0.245,-0.045
4656,-0.245,-0.045
4657,-0.235,-0.045
4658,-0.235,-0.045
4659,-0.225,-0.045
4660,-0.225,-0.045
4661,-0.225,-0.035
4662,-0.225,-0.035
4663,-0.225,-0.035
4664,-0.205,-0.035
4665,-0.135,0.005
4666,-0.105,0.025
4667,-0.125,0.015
4668,-0.085,0.015
4669,-0.085,0.005
4670,-0.145,-0.035
4671,-0.145,-0.025
4672,-0.195,-0.055
4673,-0.195,-0.045
4674,-0.235,-0.035
4675,-0.245,-0.045
4676,-0.245,-0.045
4677,-0.245,-0.045
4678,-0.245,-0.035
4679,-0.245,-0.035
4680,-0.235,-0.025
4681,-0.215,-0.025
4682,-0.215,-0.015
4683,-0.245,0.205
4684,-0.195,0.625
4685,0.875,0.625
4686,2.235,0.335
4687,2.295,-0.865
4688,-0.655,-1.135
4689,-1.405,-0.695
4690,-0.965,-0.155
4691,-0.565,-0.305
4692,-0.225,-0.135
4693,-0.115,0.025
4694,-0.075,0.075
4695,-0.055,0.095
4696,-0.025,0.115
4697,-0.005,0.125
4698,0.025,0.125
4699,0.035,0.135
4700,0.055,0.145
4701,0.085,0.155
4702,0.095,0.155
4703,0.135,0.175
4704,0.175,0.195
4705,0.205,0.215
4706,0.245,0.235
4707,0.295,0.275
4708,0.355,0.325
4709,0.415,0.365
4710,0.485,0.425
4711,0.575,0.485
4712,0.665,0.545
4713,0.775,0.585
4714,0.845,0.615
4715,0.905,0.625
4716,0.945,0.615
4717,0.935,0.575
4718,0.905,0.515
4719,0.805,0.435
4720,0.655,0.345
4721,0.455,0.265
4722,0.265,0.185
4723,0.105,0.115
4724,-0.035,0.055
4725,-0.145,0.005
4726,-0.245,-0.035
4727,-0.305,-0.065
4728,-0.355,-0.075
4729,-0.375,-0.085
4730,-0.405,-0.085
4731,-0.405,-0.105
4732,-0.395,-0.095
4733,-0.405,-0.095
4734,-0.395,-0.085
4735,-0.395,-0.085
4736,-0.375,-0.075
4737,-0.365,-0.065
4738,-0.345,-0.055
4739,-0.335,-0.055
4740,-0.325,-0.045
4741,-0.295,-0.035
4742,-0.295,-0.035
4743,-0.275,-0.025
4744,-0.275,-0.025
4745,-0.285,-0.025
4746,-0.275,-0.025
4747,-0.285,-0.025
4748,-0.295,-0.025
4749,-0.295,-0.025
4750,-0.305,-0.035
4751,-0.295,-0.035
4752,-0.315,-0.045
4753,-0.305,-0.035
4754,-0.315,-0.035
4755,-0.315,-0.045
4756,-0.325,-0.045
4757,-0.325,-0.035
4758,-0.325,-0.045
4759,-0.315,-0.035
4760,-0.325,-0.045
4761,-0.305,-0.045
4762,-0.325,-0.045
4763,-0.305,-0.045
4764,-0.315,-0.035
4765,-0.305,-0.035
4766,-0.305,-0.035
4767,-0.305,-0.035
4768,-0.305,-0.035
4769,-0.305,-0.035
4770,-0.305,-0.035
4771,-0.285,-0.035
4772,-0.295,-0.035
4773,-0.285,-0.025
4774,-0.295,-0.025
4775,-0.285,-0.025
4776,-0.215,0.005
4777,-0.175,0.035
4778,-0.175,0.035
4779,-0.155,0.015
4780,-0.135,0.015
4781,-0.195,-0.015
4782,-0.215,-0.015
4783,-0.255,-0.035
4784,-0.255,-0.045
4785,-0.295,-0.025
4786,-0.325,-0.045
4787,-0.305,-0.035
4788,-0.305,-0.035
4789,-0.315,-0.035
4790,-0.305,-0.025
4791,-0.295,-0.025
4792,-0.295,-0.015
4793,-0.265,-0.005
4794,-0.275,0.065
4795,-0.325,0.425
4796,0.025,0.715
4797,1.445,0.585
4798,2.365,-0.165
4799,1.585,-1.095
4800,-1.325,-1.015
4801,-1.355,-0.625
4802,-0.895,-0.275
4803,-0.505,-0.285
4804,-0.245,-0.095
4805,-0.165,0.055
4806,-0.135,0.115
4807,-0.105,0.125
4808,-0.085,0.145
4809,-0.065,0.155
4810,-0.045,0.165
4811,-0.025,0.175
4812,-0.005,0.185
4813,0.035,0.195
4814,0.045,0.215
4815,0.075,0.225
4816,0.115,0.245
4817,0.145,0.275
4818,0.185,0.305
4819,0.235,0.335
4820,0.295,0.385
4821,0.355,0.455
4822,0.425,0.515
4823,0.515,0.585
4824,0.605,0.655
4825,0.695,0.705
4826,0.775,0.735
4827,0.855,0.735
4828,0.875,0.705
4829,0.875,0.655
4830,0.825,0.575
4831,0.735,0.475
4832,0.585,0.375
4833,0.415,0.285
4834,0.235,0.195
4835,0.065,0.105
4836,-0.075,0.045
4837,-0.195,-0.005
4838,-0.285,-0.035
4839,-0.335,-0.065
4840,-0.385,-0.085
4841,-0.415,-0.095
4842,-0.435,-0.105
4843,-0.435,-0.105
4844,-0.445,-0.105
4845,-0.435,-0.095
4846,-0.425,-0.085
4847,-0.415,-0.085
4848,-0.405,-0.075
4849,-0.385,-0.065
4850,-0.375,-0.065
4851,-0.345,-0.045
4852,-0.325,-0.045
4853,-0.325,-0.025
4854,-0.325,-0.035
4855,-0.305,-0.025
4856,-0.305,-0.025
4857,-0.315,-0.025
4858,-0.325,-0.025
4859,-0.305,-0.025
4860,-0.325,-0.035
4861,-0.325,-0.035
4862,-0.335,-0.035
4863,-0.335,-0.045
4864,-0.345,-0.045
4865,-0.345,-0.045
4866,-0.335,-0.045
4867,-0.335,-0.045
4868,-0.335,-0.045
4869,-0.345,-0.045
4870,-0.335,-0.045
4871,-0.335,-0.045
4872,-0.335,-0.045
4873,-0.325,-0.045
4874,-0.335,-0.045
4875,-0.325,-0.045
4876,-0.315,-0.035
4877,-0.315,-0.035
4878,-0.335,-0.045
4879,-0.315,-0.045
4880,-0.325,-0.045
4881,-0.305,-0.035
4882,-0.315,-0.035
4883,-0.295,-0.045
4884,-0.295,-0.045
4885,-0.295,-0.035
4886,-0.295,-0.035
4887,-0.295,-0.035
4888,-0.285,-0.025
4889,-0.205,0.005
4890,-0.165,0.025
4891,-0.175,0.025
4892,-0.155,0.015
4893,-0.135,0.015
4894,-0.195,-0.025
4895,-0.215,-0.025
4896,-0.255,-0.025
4897,-0.255,-0.045
4898,-0.285,-0.035
4899,-0.325,-0.045
4900,-0.305,-0.045
4901,-0.305,-0.035
4902,-0.305,-0.045
4903,-0.305,-0.035
4904,-0.295,-0.035
4905,-0.295,-0.025
4906,-0.285,-0.025
4907,-0.275,-0.005
4908,-0.295,0.225
4909,-0.275,0.655
4910,0.715,0.675
4911,2.155,0.335
4912,2.295,-1.085
4913,-0.525,-1.335
4914,-1.485,-0.875
4915,-1.015,-0.325
4916,-0.585,-0.365
4917,-0.275,-0.145
4918,-0.155,0.055
4919,-0.135,0.115
4920,-0.105,0.135
4921,-0.085,0.155
4922,-0.075,0.165
4923,-0.045,0.175
4924,-0.025,0.185
4925,-0.005,0.205
4926,0.015,0.215
4927,0.045,0.225
4928,0.065,0.245
4929,0.105,0.255
4930,0.135,0.285
4931,0.185,0.325
4932,0.225,0.365
4933,0.265,0.415
4934,0.335,0.475
4935,0.405,0.545
4936,0.475,0.615
4937,0.565,0.685
4938,0.655,0.735
4939,0.725,0.765
4940,0.795,0.765
4941,0.815,0.745
4942,0.805,0.685
4943,0.765,0.605
4944,0.675,0.495
4945,0.545,0.395
4946,0.395,0.285
4947,0.225,0.195
4948,0.065,0.115
4949,-0.075,0.045
4950,-0.185,-0.005
4951,-0.255,-0.055
4952,-0.325,-0.075
4953,-0.355,-0.095
4954,-0.385,-0.115
4955,-0.405,-0.125
4956,-0.395,-0.125
4957,-0.405,-0.115
4958,-0.405,-0.115
4959,-0.385,-0.105
4960,-0.375,-0.095
4961,-0.355,-0.085
4962,-0.345,-0.075
4963,-0.335,-0.065
4964,-0.315,-0.065
4965,-0.295,-0.055
4966,-0.285,-0.045
4967,-0.275,-0.035
4968,-0.255,-0.045
4969,-0.255,-0.035
4970,-0.275,-0.045
4971,-0.255,-0.045
4972,-0.265,-0.045
4973,-0.275,-0.045
4974,-0.285,-0.055
4975,-0.285,-0.055
4976,-0.285,-0.055
4977,-0.285,-0.065
4978,-0.275,-0.065
4979,-0.265,-0.075
4980,-0.275,-0.065
4981,-0.275,-0.065
4982,-0.275,-0.065
4983,-0.265,-0.065
4984,-0.265,-0.065
4985,-0.265,-0.065
4986,-0.255,-0.065
4987,-0.255,-0.065
4988,-0.245,-0.065
4989,-0.245,-0.065
4990,-0.255,-0.065
4991,-0.255,-0.065
4992,-0.255,-0.055
4993,-0.255,-0.055
4994,-0.255,-0.055
4995,-0.245,-0.065
4996,-0.245,-0.055
4997,-0.245,-0.055
4998,-0.235,-0.055
4999,-0.235,-0.055
5000,-0.235,-0.055
5001,-0.225,-0.055
5002,-0.225,-0.055
5003,-0.215,-0.055
5004,-0.135,-0.005
5005,-0.105,0.005
5006,-0.125,0.005
5007,-0.085,0.005
5008,-0.075,-0.005
5009,-0.135,-0.035
5010,-0.145,-0.025
5011,-0.175,-0.065
5012,-0.185,-0.065
5013,-0.215,-0.055
5014,-0.235,-0.065
5015,-0.225,-0.065
5016,-0.235,-0.065
5017,-0.225,-0.055
5018,-0.225,-0.055
5019,-0.195,-0.055
5020,-0.205,-0.045
5021,-0.185,-0.035
5022,-0.205,0.035
5023,-0.255,0.405
5024,-0.025,0.705
5025,1.315,0.565
5026,2.335,-0.095
5027,1.845,-1.185
5028,-0.985,-1.095
5029,-1.175,-0.655
5030,-0.805,-0.285
5031,-0.435,-0.325
5032,-0.165,-0.105
5033,-0.075,0.045
5034,-0.045,0.085
5035,-0.015,0.095
5036,-0.005,0.105
5037,0.025,0.125
5038,0.045,0.135
5039,0.065,0.135
5040,0.085,0.145
5041,0.105,0.155
5042,0.135,0.175
5043,0.155,0.175
5044,0.185,0.195
5045,0.225,0.225
5046,0.265,0.245
5047,0.315,0.285
5048,0.375,0.325
5049,0.445,0.385
5050,0.505,0.445
5051,0.595,0.495
5052,0.675,0.555
5053,0.785,0.605
5054,0.865,0.635
5055,0.915,0.635
5056,0.935,0.605
5057,0.935,0.565
5058,0.885,0.505
5059,0.815,0.425
5060,0.665,0.325
5061,0.475,0.245
5062,0.285,0.155
5063,0.135,0.075
5064,0.005,0.015
5065,-0.125,-0.035
5066,-0.205,-0.075
5067,-0.255,-0.095
5068,-0.305,-0.105
5069,-0.325,-0.115
5070,-0.335,-0.125
5071,-0.345,-0.125
5072,-0.345,-0.125
5073,-0.335,-0.115
5074,-0.325,-0.105
5075,-0.315,-0.105
5076,-0.295,-0.095
5077,-0.285,-0.085
5078,-0.265,-0.075
5079,-0.245,-0.075
5080,-0.245,-0.065
5081,-0.225,-0.055
5082,-0.225,-0.055
5083,-0.215,-0.055
5084,-0.225,-0.055
5085,-0.215,-0.055
5086,-0.245,-0.065
5087,-0.235,-0.065
5088,-0.245,-0.055
5089,-0.255,-0.065
5090,-0.255,-0.065
5091,-0.265,-0.075
5092,-0.255,-0.075
5093,-0.265,-0.075
5094,-0.255,-0.075
5095,-0.265,-0.075
5096,-0.265,-0.065
5097,-0.255,-0.075
5098,-0.265,-0.075
5099,-0.265,-0.075
5100,-0.255,-0.075
5101,-0.255,-0.065
5102,-0.265,-0.075
5103,-0.245,-0.075
5104,-0.255,-0.065
5105,-0.255,-0.065
5106,-0.245,-0.065
5107,-0.245,-0.065
5108,-0.235,-0.065
5109,-0.235,-0.065
5110,-0.235,-0.065
5111,-0.225,-0.065
5112,-0.225,-0.055
5113,-0.215,-0.055
5114,-0.215,-0.055
5115,-0.205,-0.055
5116,-0.125,-0.015
5117,-0.095,0.005
5118,-0.125,-0.005
5119,-0.095,-0.015
5120,-0.085,-0.025
5121,-0.145,-0.045
5122,-0.165,-0.035
5123,-0.195,-0.065
5124,-0.185,-0.065
5125,-0.215,-0.055
5126,-0.245,-0.065
5127,-0.255,-0.075
5128,-0.245,-0.075
5129,-0.245,-0.065
5130,-0.235,-0.065
5131,-0.225,-0.055
5132,-0.215,-0.045
5133,-0.205,-0.035
5134,-0.235,0.055
5135,-0.265,0.425
5136,0.185,0.675
5137,1.655,0.535
5138,2.395,-0.305
5139,1.195,-1.095
5140,-1.465,-0.885
5141,-1.175,-0.475
5142,-0.785,-0.205
5143,-0.415,-0.285
5144,-0.165,-0.095
5145,-0.095,0.025
5146,-0.065,0.055
5147,-0.045,0.075
5148,-0.015,0.075
5149,0.005,0.095
5150,0.015,0.095
5151,0.045,0.105
5152,0.065,0.115
5153,0.095,0.135
5154,0.115,0.135
5155,0.145,0.145
5156,0.175,0.165
5157,0.205,0.185
5158,0.235,0.215
5159,0.305,0.245
5160,0.355,0.285
5161,0.425,0.345
5162,0.505,0.395
5163,0.595,0.455
5164,0.685,0.505
5165,0.785,0.555
5166,0.865,0.575
5167,0.915,0.575
5168,0.935,0.555
5169,0.915,0.505
5170,0.855,0.435
5171,0.745,0.355
5172,0.595,0.285
5173,0.405,0.205
5174,0.215,0.125
5175,0.075,0.055
5176,-0.065,-0.005
5177,-0.195,-0.045
5178,-0.265,-0.075
5179,-0.325,-0.105
5180,-0.355,-0.115
5181,-0.375,-0.125
5182,-0.385,-0.125
5183,-0.385,-0.125
5184,-0.405,-0.125
5185,-0.385,-0.115
5186,-0.375,-0.105
5187,-0.365,-0.105
5188,-0.345,-0.095
5189,-0.345,-0.085
5190,-0.325,-0.085
5191,-0.305,-0.075
5192,-0.295,-0.065
5193,-0.285,-0.065
5194,-0.285,-0.055
5195,-0.275,-0.065
5196,-0.265,-0.055
5197,-0.275,-0.055
5198,-0.295,-0.065
5199,-0.295,-0.055
5200,-0.305,-0.065
5201,-0.305,-0.055
5202,-0.325,-0.065
5203,-0.315,-0.075
5204,-0.305,-0.075
5205,-0.325,-0.075
5206,-0.325,-0.075
5207,-0.325,-0.075
5208,-0.325,-0.075
5209,-0.325,-0.075
5210,-0.325,-0.075
5211,-0.325,-0.075
5212,-0.325,-0.075
5213,-0.315,-0.075
5214,-0.325,-0.075
5215,-0.325,-0.075
5216,-0.325,-0.065
5217,-0.325,-0.075
5218,-0.315,-0.065
5219,-0.295,-0.075
5220,-0.295,-0.065
5221,-0.305,-0.065
5222,-0.305,-0.065
5223,-0.295,-0.075
5224,-0.295,-0.065
5225,-0.295,-0.065
5226,-0.295,-0.065
5227,-0.285,-0.065
5228,-0.285,-0.055
5229,-0.275,-0.055
5230,-0.205,-0.025
5231,-0.155,-0.005
5232,-0.175,0.005
5233,-0.155,-0.005
5234,-0.125,-0.005
5235,-0.195,-0.055
5236,-0.205,-0.055
5237,-0.235,-0.055
5238,-0.255,-0.075
5239,-0.275,-0.065
5240,-0.305,-0.075
5241,-0.305,-0.075
5242,-0.315,-0.075
5243,-0.305,-0.065
5244,-0.295,-0.065
5245,-0.285,-0.055
5246,-0.295,-0.055
5247,-0.275,-0.045
5248,-0.275,-0.005
5249,-0.325,0.315
5250,-0.165,0.685
5251,1.245,0.585
5252,2.375,-0.095
5253,1.875,-1.205
5254,-1.275,-1.095
5255,-1.355,-0.665
5256,-0.905,-0.275
5257,-0.505,-0.325
5258,-0.235,-0.105
5259,-0.145,0.035
5260,-0.125,0.085
5261,-0.105,0.105
5262,-0.075,0.115
5263,-0.055,0.125
5264,-0.035,0.135
5265,-0.015,0.155
5266,0.005,0.155
5267,0.025,0.175
5268,0.065,0.185
5269,0.095,0.205
5270,0.115,0.225
5271,0.155,0.245
5272,0.205,0.285
5273,0.255,0.325
5274,0.305,0.385
5275,0.375,0.445
5276,0.465,0.525
5277,0.545,0.595
5278,0.635,0.655
5279,0.725,0.695
5280,0.785,0.715
5281,0.845,0.705
5282,0.855,0.675
5283,0.845,0.605
5284,0.775,0.515
5285,0.685,0.415
5286,0.535,0.315
5287,0.355,0.215
5288,0.175,0.125
5289,0.025,0.055
5290,-0.105,-0.005
5291,-0.205,-0.055
5292,-0.285,-0.085
5293,-0.335,-0.105
5294,-0.375,-0.125
5295,-0.405,-0.135
5296,-0.405,-0.145
5297,-0.415,-0.135
5298,-0.425,-0.145
5299,-0.415,-0.135
5300,-0.405,-0.125
5301,-0.395,-0.115
5302,-0.385,-0.115
5303,-0.355,-0.105
5304,-0.345,-0.085
5305,-0.335,-0.075
5306,-0.325,-0.075
5307,-0.295,-0.065
5308,-0.285,-0.055
5309,-0.285,-0.055
5310,-0.285,-0.065
5311,-0.285,-0.065
5312,-0.295,-0.065
5313,-0.305,-0.065
5314,-0.315,-0.065
5315,-0.315,-0.075
5316,-0.325,-0.075
5317,-0.325,-0.075
5318,-0.325,-0.085
5319,-0.325,-0.085
5320,-0.325,-0.085
5321,-0.325,-0.085
5322,-0.325,-0.085
5323,-0.325,-0.085
5324,-0.315,-0.085
5325,-0.315,-0.085
5326,-0.315,-0.085
5327,-0.315,-0.085
5328,-0.315,-0.085
5329,-0.315,-0.075
5330,-0.295,-0.085
5331,-0.305,-0.085
5332,-0.305,-0.085
5333,-0.305,-0.085
5334,-0.295,-0.085
5335,-0.285,-0.085
5336,-0.285,-0.085
5337,-0.285,-0.075
5338,-0.285,-0.075
5339,-0.265,-0.085
5340,-0.275,-0.085
5341,-0.275,-0.075
5342,-0.285,-0.075
5343,-0.275,-0.075
5344,-0.265,-0.075
5345,-0.255,-0.065
5346,-0.255,-0.075
5347,-0.245,-0.075
5348,-0.245,-0.065
5349,-0.215,-0.055
5350,-0.145,-0.015
5351,-0.115,-0.005
5352,-0.145,-0.015
5353,-0.105,-0.015
5354,-0.115,-0.035
5355,-0.165,-0.065
5356,-0.175,-0.045
5357,-0.215,-0.085
5358,-0.215,-0.075
5359,-0.255,-0.085
5360,-0.275,-0.095
5361,-0.265,-0.085
5362,-0.265,-0.085
5363,-0.265,-0.085
5364,-0.255,-0.075
5365,-0.255,-0.065
5366,-0.245,-0.065
5367,-0.235,-0.025
5368,-0.295,0.345
5369,-0.125,0.695
5370,1.265,0.575
5371,2.345,-0.315
5372,1.745,-1.435
5373,-0.935,-1.245
5374,-1.305,-0.785
5375,-0.875,-0.415
5376,-0.485,-0.365
5377,-0.205,-0.115
5378,-0.125,0.035
5379,-0.095,0.085
5380,-0.075,0.105
5381,-0.055,0.125
5382,-0.045,0.135
5383,-0.015,0.145
5384,-0.005,0.155
5385,0.015,0.165
5386,0.035,0.175
5387,0.065,0.185
5388,0.095,0.205
5389,0.125,0.235
5390,0.155,0.255
5391,0.205,0.295
5392,0.245,0.345
5393,0.305,0.395
5394,0.345,0.455
5395,0.415,0.525
5396,0.485,0.595
5397,0.565,0.675
5398,0.655,0.715
5399,0.735,0.745
5400,0.785,0.755
5401,0.805,0.715
5402,0.795,0.655
5403,0.765,0.565
5404,0.695,0.455
5405,0.555,0.345
5406,0.395,0.235
5407,0.245,0.135
5408,0.095,0.065
5409,-0.045,-0.005
5410,-0.165,-0.065
5411,-0.235,-0.105
5412,-0.295,-0.125
5413,-0.325,-0.145
5414,-0.355,-0.165
5415,-0.365,-0.165
5416,-0.385,-0.165
5417,-0.375,-0.155
5418,-0.365,-0.155
5419,-0.355,-0.145
5420,-0.345,-0.135
5421,-0.335,-0.125
5422,-0.325,-0.115
5423,-0.295,-0.105
5424,-0.295,-0.085
5425,-0.265,-0.085
5426,-0.255,-0.075
5427,-0.255,-0.075
5428,-0.245,-0.065
5429,-0.235,-0.075
5430,-0.245,-0.075
5431,-0.255,-0.075
5432,-0.245,-0.075
5433,-0.255,-0.085
5434,-0.275,-0.085
5435,-0.275,-0.095
5436,-0.285,-0.095
5437,-0.275,-0.095
5438,-0.275,-0.105
5439,-0.275,-0.095
5440,-0.265,-0.095
5441,-0.275,-0.095
5442,-0.275,-0.095
5443,-0.265,-0.095
5444,-0.265,-0.095
5445,-0.265,-0.095
5446,-0.275,-0.095
5447,-0.265,-0.095
5448,-0.255,-0.085
5449,-0.255,-0.095
5450,-0.265,-0.095
5451,-0.255,-0.095
5452,-0.235,-0.085
5453,-0.245,-0.085
5454,-0.255,-0.095
5455,-0.245,-0.095
5456,-0.235,-0.085
5457,-0.225,-0.075
5458,-0.235,-0.085
5459,-0.225,-0.085
5460,-0.215,-0.085
5461,-0.205,-0.075
5462,-0.215,-0.075
5463,-0.205,-0.075
5464,-0.215,-0.075
5465,-0.205,-0.065
5466,-0.205,-0.075
5467,-0.195,-0.075
5468,-0.185,-0.055
5469,-0.205,-0.065
5470,-0.155,-0.035
5471,-0.075,-0.005
5472,-0.075,0.005
5473,-0.065,-0.005
5474,-0.035,-0.005
5475,-0.105,-0.055
5476,-0.105,-0.035
5477,-0.155,-0.065
5478,-0.165,-0.075
5479,-0.185,-0.065
5480,-0.205,-0.065
5481,-0.215,-0.065
5482,-0.225,-0.075
5483,-0.205,-0.065
5484,-0.195,-0.065
5485,-0.195,-0.055
5486,-0.185,-0.055
5487,-0.175,-0.045
5488,-0.175,0.035
5489,-0.245,0.405
5490,0.085,0.725
5491,1.605,0.575
5492,2.465,-0.385
5493,1.435,-1.335
5494,-1.285,-1.065
5495,-1.165,-0.635
5496,-0.755,-0.365
5497,-0.385,-0.335
5498,-0.125,-0.095
5499,-0.045,0.045
5500,-0.035,0.095
5501,-0.005,0.105
5502,0.025,0.115
5503,0.055,0.135
5504,0.065,0.155
5505,0.085,0.155
5506,0.105,0.165
5507,0.135,0.175
5508,0.155,0.185
5509,0.185,0.205
5510,0.215,0.225
5511,0.255,0.245
5512,0.295,0.285
5513,0.335,0.325
5514,0.395,0.375
5515,0.465,0.425
5516,0.535,0.495
5517,0.625,0.565
5518,0.715,0.625
5519,0.795,0.655
5520,0.865,0.685
5521,0.915,0.685
5522,0.935,0.655
5523,0.925,0.595
5524,0.875,0.525
5525,0.795,0.435
5526,0.655,0.335
5527,0.485,0.245
5528,0.315,0.165
5529,0.165,0.085
5530,0.035,0.025
5531,-0.075,-0.025
5532,-0.165,-0.065
5533,-0.225,-0.085
5534,-0.275,-0.105
5535,-0.295,-0.115
5536,-0.305,-0.125
5537,-0.325,-0.115
5538,-0.325,-0.115
5539,-0.305,-0.115
5540,-0.295,-0.105
5541,-0.295,-0.095
5542,-0.275,-0.085
5543,-0.255,-0.075
5544,-0.245,-0.075
5545,-0.225,-0.065
5546,-0.215,-0.045
5547,-0.215,-0.055
5548,-0.205,-0.045
5549,-0.195,-0.045
5550,-0.195,-0.035
5551,-0.185,-0.045
5552,-0.205,-0.045
5553,-0.215,-0.045
5554,-0.215,-0.045
5555,-0.225,-0.055
5556,-0.235,-0.055
5557,-0.235,-0.055
5558,-0.235,-0.055
5559,-0.235,-0.055
5560,-0.245,-0.055
5561,-0.235,-0.045
5562,-0.245,-0.055
5563,-0.245,-0.055
5564,-0.235,-0.055
5565,-0.245,-0.045
5566,-0.245,-0.055
5567,-0.225,-0.055
5568,-0.225,-0.045
5569,-0.245,-0.045
5570,-0.235,-0.055
5571,-0.225,-0.045
5572,-0.235,-0.055
5573,-0.215,-0.045
5574,-0.215,-0.055
5575,-0.215,-0.055
5576,-0.225,-0.045
5577,-0.215,-0.045
5578,-0.215,-0.045
5579,-0.205,-0.045
5580,-0.195,-0.045
5581,-0.205,-0.035
5582,-0.205,-0.045
5583,-0.165,-0.035
5584,-0.115,0.015
5585,-0.075,0.015
5586,-0.115,0.005
5587,-0.065,0.005
5588,-0.055,-0.005
5589,-0.115,-0.025
5590,-0.135,-0.025
5591,-0.185,-0.065
5592,-0.175,-0.045
5593,-0.215,-0.045
5594,-0.225,-0.055
5595,-0.225,-0.055
5596,-0.215,-0.045
5597,-0.225,-0.045
5598,-0.225,-0.045
5599,-0.215,-0.035
5600,-0.205,-0.035
5601,-0.195,-0.015
5602,-0.235,0.125
5603,-0.255,0.535
5604,0.495,0.675
5605,2.035,0.505
5606,2.415,-0.675
5607,0.185,-1.215
5608,-1.535,-0.775
5609,-1.075,-0.325
5610,-0.715,-0.265
5611,-0.385,-0.265
5612,-0.145,-0.055
5613,-0.075,0.065
5614,-0.045,0.085
5615,-0.015,0.095
5616,-0.005,0.115
5617,0.015,0.125
5618,0.045,0.125
5619,0.065,0.135
5620,0.085,0.145
5621,0.115,0.155
5622,0.135,0.165
5623,0.175,0.185
5624,0.205,0.195
5625,0.245,0.235
5626,0.275,0.265
5627,0.335,0.295
5628,0.405,0.345
5629,0.465,0.405
5630,0.535,0.455
5631,0.625,0.505
5632,0.715,0.565
5633,0.805,0.605
5634,0.865,0.625
5635,0.915,0.615
5636,0.915,0.595
5637,0.895,0.545
5638,0.835,0.475
5639,0.745,0.395
5640,0.585,0.305
5641,0.405,0.225
5642,0.235,0.145
5643,0.085,0.075
5644,-0.035,0.015
5645,-0.145,-0.025
5646,-0.235,-0.055
5647,-0.295,-0.085
5648,-0.325,-0.095
5649,-0.345,-0.105
5650,-0.365,-0.105
5651,-0.365,-0.105
5652,-0.375,-0.105
5653,-0.365,-0.095
5654,-0.345,-0.085
5655,-0.345,-0.085
5656,-0.345,-0.075
5657,-0.325,-0.065
5658,-0.325,-0.065
5659,-0.285,-0.055
5660,-0.285,-0.055
5661,-0.265,-0.045
5662,-0.265,-0.035
5663,-0.265,-0.035
5664,-0.265,-0.035
5665,-0.265,-0.035
5666,-0.285,-0.035
5667,-0.275,-0.035
5668,-0.285,-0.045
5669,-0.295,-0.035
5670,-0.295,-0.045
5671,-0.285,-0.045
5672,-0.305,-0.045
5673,-0.305,-0.045
5674,-0.305,-0.045
5675,-0.295,-0.045
5676,-0.295,-0.045
5677,-0.305,-0.045
5678,-0.305,-0.045
5679,-0.295,-0.045
5680,-0.295,-0.045
5681,-0.295,-0.045
5682,-0.285,-0.045
5683,-0.295,-0.045
5684,-0.285,-0.045
5685,-0.285,-0.045
5686,-0.275,-0.045
5687,-0.275,-0.055
5688,-0.265,-0.045
5689,-0.265,-0.045
5690,-0.265,-0.045
5691,-0.265,-0.045
5692,-0.265,-0.035
5693,-0.255,-0.035
5694,-0.255,-0.035
5695,-0.235,-0.035
5696,-0.245,-0.025
5697,-0.205,-0.015
5698,-0.135,0.015
5699,-0.115,0.025
5700,-0.125,0.015
5701,-0.095,0.015
5702,-0.135,-0.025
5703,-0.175,-0.025
5704,-0.185,-0.005
5705,-0.215,-0.055
5706,-0.225,-0.045
5707,-0.255,-0.045
5708,-0.265,-0.055
5709,-0.275,-0.045
5710,-0.275,-0.045
5711,-0.255,-0.035
5712,-0.255,-0.035
5713,-0.255,-0.035
5714,-0.245,-0.035
5715,-0.225,0.005
5716,-0.265,0.265
5717,-0.235,0.665
5718,0.735,0.655
5719,2.195,0.345
5720,2.375,-0.965
5721,-0.275,-1.305
5722,-1.545,-0.865
5723,-1.065,-0.285
5724,-0.645,-0.355
5725,-0.295,-0.185
5726,-0.135,0.015
5727,-0.095,0.095
5728,-0.085,0.115
5729,-0.055,0.135
5730,-0.045,0.135
5731,-0.015,0.155
5732,0.005,0.155
5733,0.025,0.175
5734,0.055,0.185
5735,0.075,0.195
5736,0.105,0.205
5737,0.135,0.235
5738,0.165,0.255
5739,0.215,0.285
5740,0.255,0.315
5741,0.305,0.375
5742,0.365,0.425
5743,0.435,0.495
5744,0.515,0.555
5745,0.605,0.625
5746,0.695,0.685
5747,0.785,0.725
5748,0.855,0.735
5749,0.895,0.725
5750,0.895,0.675
5751,0.865,0.605
5752,0.785,0.505
5753,0.675,0.405
5754,0.515,0.305
5755,0.355,0.215
5756,0.175,0.125
5757,0.025,0.065
5758,-0.095,0.005
5759,-0.205,-0.045
5760,-0.275,-0.075
5761,-0.325,-0.095
5762,-0.355,-0.115
5763,-0.375,-0.125
5764,-0.385,-0.135
5765,-0.395,-0.125
5766,-0.385,-0.125
5767,-0.375,-0.115
5768,-0.375,-0.105
5769,-0.365,-0.095
5770,-0.345,-0.085
5771,-0.325,-0.085
5772,-0.315,-0.075
5773,-0.295,-0.065
5774,-0.285,-0.045
5775,-0.265,-0.045
5776,-0.255,-0.045
5777,-0.255,-0.045
5778,-0.265,-0.045
5779,-0.255,-0.045
5780,-0.275,-0.045
5781,-0.275,-0.045
5782,-0.285,-0.055
5783,-0.275,-0.065
5784,-0.285,-0.055
5785,-0.295,-0.055
5786,-0.285,-0.055
5787,-0.285,-0.065
5788,-0.285,-0.065
5789,-0.285,-0.065
5790,-0.285,-0.065
5791,-0.285,-0.065
5792,-0.285,-0.065
5793,-0.275,-0.065
5794,-0.285,-0.065
5795,-0.275,-0.055
5796,-0.275,-0.055
5797,-0.265,-0.055
5798,-0.275,-0.055
5799,-0.275,-0.055
5800,-0.255,-0.055
5801,-0.255,-0.045
5802,-0.255,-0.055
5803,-0.235,-0.055
5804,-0.245,-0.055
5805,-0.245,-0.045
5806,-0.245,-0.045
5807,-0.245,-0.045
5808,-0.235,-0.055
5809,-0.235,-0.035
5810,-0.225,-0.035
5811,-0.225,-0.045
5812,-0.215,-0.035
5813,-0.145,0.005
5814,-0.105,0.025
5815,-0.115,0.025
5816,-0.095,0.005
5817,-0.065,0.015
5818,-0.135,-0.035
5819,-0.145,-0.025
5820,-0.185,-0.035
5821,-0.195,-0.055
5822,-0.215,-0.045
5823,-0.235,-0.055
5824,-0.245,-0.045
5825,-0.245,-0.045
5826,-0.245,-0.045
5827,-0.235,-0.035
5828,-0.225,-0.035
5829,-0.225,-0.025
5830,-0.205,-0.015
5831,-0.205,0.025
5832,-0.265,0.365
5833,-0.055,0.725
5834,1.395,0.595
5835,2.435,-0.215
5836,1.655,-1.215
5837,-1.345,-0.995
5838,-1.195,-0.535
5839,-0.755,-0.295
5840,-0.375,-0.265
5841,-0.185,-0.085
5842,-0.095,0.055
5843,-0.065,0.105
5844,-0.035,0.115
5845,-0.005,0.135
5846,0.015,0.145
5847,0.035,0.145
5848,0.035,0.155
5849,0.065,0.175
5850,0.095,0.175
5851,0.135,0.195
5852,0.145,0.205
5853,0.185,0.225
5854,0.215,0.245
5855,0.275,0.275
5856,0.315,0.305
5857,0.375,0.365
5858,0.435,0.415
5859,0.525,0.475
5860,0.615,0.545
5861,0.715,0.605
5862,0.805,0.645
5863,0.895,0.675
5864,0.945,0.665
5865,0.975,0.645
5866,0.935,0.585
5867,0.905,0.515
5868,0.805,0.425
5869,0.625,0.325
5870,0.415,0.225
5871,0.235,0.145
5872,0.075,0.085
5873,-0.045,0.025
5874,-0.155,-0.015
5875,-0.235,-0.045
5876,-0.285,-0.065
5877,-0.305,-0.075
5878,-0.345,-0.085
5879,-0.355,-0.095
5880,-0.365,-0.095
5881,-0.355,-0.085
5882,-0.355,-0.095
5883,-0.345,-0.085
5884,-0.315,-0.075
5885,-0.315,-0.075
5886,-0.305,-0.065
5887,-0.275,-0.065
5888,-0.265,-0.055
5889,-0.255,-0.045
5890,-0.255,-0.045
5891,-0.235,-0.035
5892,-0.235,-0.035
5893,-0.225,-0.025
5894,-0.245,-0.025
5895,-0.235,-0.035
5896,-0.245,-0.035
5897,-0.245,-0.025
5898,-0.265,-0.035
5899,-0.265,-0.045
5900,-0.275,-0.035
5901,-0.275,-0.035
5902,-0.275,-0.045
5903,-0.275,-0.045
5904,-0.265,-0.045
5905,-0.285,-0.045
5906,-0.275,-0.045
5907,-0.275,-0.045
5908,-0.265,-0.045
5909,-0.275,-0.035
5910,-0.275,-0.045
5911,-0.275,-0.045
5912,-0.265,-0.045
5913,-0.265,-0.035
5914,-0.265,-0.035
5915,-0.265,-0.045
5916,-0.265,-0.035
5917,-0.265,-0.035
5918,-0.275,-0.035
5919,-0.265,-0.045
5920,-0.255,-0.035
5921,-0.245,-0.035
5922,-0.245,-0.025
5923,-0.245,-0.035
5924,-0.175,0.005
5925,-0.125,0.025
5926,-0.155,0.025
5927,-0.135,0.015
5928,-0.095,0.015
5929,-0.165,-0.025
5930,-0.185,-0.015
5931,-0.215,-0.025
5932,-0.225,-0.045
5933,-0.245,-0.025
5934,-0.275,-0.035
5935,-0.275,-0.045
5936,-0.285,-0.045
5937,-0.285,-0.035
5938,-0.285,-0.035
5939,-0.265,-0.035
5940,-0.265,-0.025
5941,-0.245,-0.015
5942,-0.255,0.005
5943,-0.275,0.235
5944,-0.225,0.655
5945,0.695,0.645
5946,2.115,0.355
5947,2.175,-0.945
5948,-0.965,-1.055
5949,-1.385,-0.575
5950,-0.915,-0.135
5951,-0.515,-0.275
5952,-0.245,-0.095
5953,-0.145,0.055
5954,-0.115,0.095
5955,-0.085,0.115
5956,-0.055,0.115
5957,-0.045,0.135
5958,-0.025,0.145
5959,0.005,0.155
5960,0.025,0.155
5961,0.055,0.175
5962,0.075,0.185
5963,0.115,0.185
5964,0.145,0.215
5965,0.175,0.235
5966,0.225,0.265
5967,0.285,0.305
5968,0.335,0.355
5969,0.405,0.405
5970,0.485,0.475
5971,0.595,0.545
5972,0.705,0.615
5973,0.795,0.645
5974,0.865,0.665
5975,0.915,0.655
5976,0.935,0.635
5977,0.915,0.575
5978,0.835,0.485
5979,0.725,0.395
5980,0.555,0.305
5981,0.375,0.225
5982,0.195,0.145
5983,0.035,0.075
5984,-0.105,0.015
5985,-0.205,-0.015
5986,-0.295,-0.055
5987,-0.345,-0.075
5988,-0.385,-0.085
5989,-0.415,-0.105
5990,-0.425,-0.105
5991,-0.425,-0.105
5992,-0.435,-0.105
5993,-0.435,-0.105
5994,-0.425,-0.095
5995,-0.405,-0.095
5996,-0.385,-0.075
5997,-0.375,-0.065
5998,-0.345,-0.055
5999,-0.345,-0.045
6000,-0.315,-0.045
6001,-0.305,-0.025
6002,-0.305,-0.025
6003,-0.295,-0.025
6004,-0.295,-0.015
6005,-0.305,-0.025
6006,-0.325,-0.025
6007,-0.305,-0.035
6008,-0.315,-0.045
6009,-0.325,-0.035
6010,-0.335,-0.045
6011,-0.325,-0.055
6012,-0.325,-0.055
6013,-0.325,-0.055
6014,-0.335,-0.065
6015,-0.325,-0.065
6016,-0.325,-0.065
6017,-0.335,-0.065
6018,-0.325,-0.065
6019,-0.325,-0.065
6020,-0.335,-0.065
6021,-0.325,-0.055
6022,-0.335,-0.065
6023,-0.325,-0.055
6024,-0.325,-0.055
6025,-0.325,-0.055
6026,-0.315,-0.055
6027,-0.315,-0.055
6028,-0.315,-0.055
6029,-0.305,-0.045
6030,-0.305,-0.055
6031,-0.305,-0.055
6032,-0.305,-0.055
6033,-0.315,-0.045
6034,-0.305,-0.055
6035,-0.305,-0.055
6036,-0.295,-0.055
6037,-0.285,-0.045
6038,-0.215,-0.015
6039,-0.155,0.005
6040,-0.175,0.005
6041,-0.155,0.005
6042,-0.135,-0.015
6043,-0.215,-0.065
6044,-0.215,-0.055
6045,-0.255,-0.065
6046,-0.265,-0.095
6047,-0.285,-0.075
6048,-0.325,-0.085
6049,-0.325,-0.085
6050,-0.325,-0.085
6051,-0.325,-0.085
6052,-0.315,-0.065
6053,-0.305,-0.055
6054,-0.295,-0.055
6055,-0.265,-0.045
6056,-0.275,0.045
6057,-0.335,0.465
6058,0.035,0.755
6059,1.645,0.555
6060,2.335,-0.665
6061,0.535,-1.405
6062,-1.645,-0.965
6063,-1.175,-0.275
6064,-0.675,-0.365
6065,-0.315,-0.185
6066,-0.175,0.005
6067,-0.135,0.075
6068,-0.115,0.095
6069,-0.095,0.115
6070,-0.065,0.125
6071,-0.045,0.135
6072,-0.015,0.155
6073,0.015,0.165
6074,0.035,0.175
6075,0.055,0.195
6076,0.085,0.205
6077,0.115,0.235
6078,0.155,0.255
6079,0.195,0.285
6080,0.225,0.325
6081,0.295,0.375
6082,0.345,0.435
6083,0.425,0.505
6084,0.515,0.575
6085,0.605,0.645
6086,0.685,0.695
6087,0.775,0.725
6088,0.845,0.735
6089,0.875,0.715
6090,0.875,0.675
6091,0.855,0.595
6092,0.785,0.495
6093,0.665,0.385
6094,0.485,0.275
6095,0.285,0.175
6096,0.095,0.085
6097,-0.035,0.015
6098,-0.165,-0.045
6099,-0.245,-0.085
6100,-0.315,-0.105
6101,-0.365,-0.135
6102,-0.415,-0.145
6103,-0.415,-0.145
6104,-0.415,-0.155
6105,-0.435,-0.155
6106,-0.435,-0.155
6107,-0.405,-0.145
6108,-0.395,-0.125
6109,-0.385,-0.125
6110,-0.375,-0.115
6111,-0.365,-0.105
6112,-0.355,-0.085
6113,-0.325,-0.085
6114,-0.325,-0.075
6115,-0.315,-0.075
6116,-0.295,-0.075
6117,-0.315,-0.065
6118,-0.315,-0.075
6119,-0.295,-0.075
6120,-0.315,-0.075
6121,-0.315,-0.075
6122,-0.335,-0.085
6123,-0.335,-0.095
6124,-0.335,-0.095
6125,-0.345,-0.095
6126,-0.345,-0.105
6127,-0.355,-0.105
6128,-0.345,-0.095
6129,-0.345,-0.095
6130,-0.345,-0.105
6131,-0.335,-0.105
6132,-0.335,-0.105
6133,-0.335,-0.095
6134,-0.335,-0.105
6135,-0.325,-0.105
6136,-0.335,-0.095
6137,-0.335,-0.095
6138,-0.325,-0.095
6139,-0.315,-0.105
6140,-0.325,-0.105
6141,-0.305,-0.095
6142,-0.325,-0.095
6143,-0.315,-0.095
6144,-0.295,-0.095
6145,-0.295,-0.095
6146,-0.285,-0.085
6147,-0.285,-0.085
6148,-0.285,-0.085
6149,-0.265,-0.075
6150,-0.235,-0.065
6151,-0.165,-0.035
6152,-0.125,-0.015
6153,-0.165,-0.025
6154,-0.115,-0.025
6155,-0.155,-0.065
6156,-0.195,-0.075
6157,-0.215,-0.065
6158,-0.255,-0.105
6159,-0.255,-0.105
6160,-0.295,-0.095
6161,-0.325,-0.105
6162,-0.325,-0.105
6163,-0.325,-0.105
6164,-0.305,-0.095
6165,-0.305,-0.085
6166,-0.295,-0.085
6167,-0.285,-0.075
6168,-0.275,-0.065
6169,-0.305,0.145
6170,-0.305,0.575
6171,0.435,0.675
6172,2.045,0.365
6173,2.325,-1.145
6174,-0.275,-1.495
6175,-1.605,-1.025
6176,-1.085,-0.425
6177,-0.625,-0.445
6178,-0.315,-0.205
6179,-0.185,-0.005
6180,-0.155,0.075
6181,-0.125,0.095
6182,-0.105,0.115
6183,-0.085,0.125
6184,-0.055,0.145
6185,-0.035,0.165
6186,-0.015,0.175
6187,0.015,0.185
6188,0.035,0.215
6189,0.065,0.225
6190,0.085,0.245
6191,0.125,0.285
6192,0.165,0.315
6193,0.225,0.365
6194,0.265,0.425
6195,0.325,0.495
6196,0.405,0.585
6197,0.485,0.665
6198,0.575,0.735
6199,0.655,0.775
6200,0.715,0.805
6201,0.775,0.815
6202,0.805,0.785
6203,0.815,0.715
6204,0.785,0.625
6205,0.695,0.505
6206,0.575,0.385
6207,0.405,0.265
6208,0.225,0.165
6209,0.095,0.075
6210,-0.055,0.005
6211,-0.155,-0.055
6212,-0.245,-0.095
6213,-0.295,-0.115
6214,-0.345,-0.145
6215,-0.365,-0.155
6216,-0.385,-0.165
6217,-0.395,-0.165
6218,-0.395,-0.165
6219,-0.385,-0.165
6220,-0.375,-0.145
6221,-0.365,-0.135
6222,-0.365,-0.125
6223,-0.345,-0.115
6224,-0.325,-0.105
6225,-0.315,-0.095
6226,-0.305,-0.085
6227,-0.295,-0.085
6228,-0.275,-0.075
6229,-0.285,-0.065
6230,-0.275,-0.075
6231,-0.275,-0.075
6232,-0.275,-0.075
6233,-0.285,-0.075
6234,-0.295,-0.085
6235,-0.285,-0.085
6236,-0.305,-0.095
6237,-0.295,-0.095
6238,-0.305,-0.095
6239,-0.305,-0.105
6240,-0.305,-0.105
6241,-0.305,-0.105
6242,-0.305,-0.105
6243,-0.305,-0.105
6244,-0.305,-0.095
6245,-0.295,-0.105
6246,-0.295,-0.105
6247,-0.295,-0.095
6248,-0.295,-0.105
6249,-0.285,-0.095
6250,-0.285,-0.105
6251,-0.275,-0.105
6252,-0.275,-0.105
6253,-0.275,-0.095
6254,-0.275,-0.095
6255,-0.265,-0.095
6256,-0.265,-0.095
6257,-0.255,-0.085
6258,-0.255,-0.085
6259,-0.255,-0.095
6260,-0.235,-0.085
6261,-0.235,-0.075
6262,-0.175,-0.065
6263,-0.115,-0.035
6264,-0.125,-0.025
6265,-0.115,-0.035
6266,-0.085,-0.035
6267,-0.135,-0.095
6268,-0.165,-0.075
6269,-0.205,-0.085
6270,-0.205,-0.105
6271,-0.235,-0.095
6272,-0.255,-0.105
6273,-0.265,-0.105
6274,-0.255,-0.105
6275,-0.265,-0.105
6276,-0.265,-0.095
6277,-0.255,-0.095
6278,-0.245,-0.095
6279,-0.225,-0.085
6280,-0.235,-0.045
6281,-0.275,0.225
6282,-0.175,0.595
6283,1.065,0.535
6284,2.335,0.165
6285,2.065,-0.955
6286,-1.135,-1.055
6287,-1.325,-0.645
6288,-0.925,-0.195
6289,-0.555,-0.365
6290,-0.255,-0.195
6291,-0.115,-0.045
6292,-0.075,0.025
6293,-0.055,0.045
6294,-0.015,0.045
6295,-0.005,0.055
6296,0.025,0.065
6297,0.055,0.085
6298,0.075,0.075
6299,0.105,0.095
6300,0.125,0.105
6301,0.155,0.125
6302,0.185,0.145
6303,0.225,0.165
6304,0.265,0.185
6305,0.325,0.225
6306,0.375,0.265
6307,0.455,0.315
6308,0.545,0.375
6309,0.625,0.435
6310,0.715,0.485
6311,0.805,0.525
6312,0.875,0.555
6313,0.925,0.555
6314,0.935,0.535
6315,0.915,0.485
6316,0.865,0.415
6317,0.755,0.335
6318,0.585,0.245
6319,0.385,0.165
6320,0.215,0.095
6321,0.055,0.025
6322,-0.075,-0.035
6323,-0.165,-0.075
6324,-0.245,-0.105
6325,-0.295,-0.125
6326,-0.335,-0.145
6327,-0.355,-0.155
6328,-0.365,-0.145
6329,-0.355,-0.155
6330,-0.345,-0.145
6331,-0.345,-0.145
6332,-0.325,-0.135
6333,-0.325,-0.125
6334,-0.315,-0.115
6335,-0.295,-0.115
6336,-0.275,-0.105
6337,-0.265,-0.095
6338,-0.275,-0.095
6339,-0.265,-0.085
6340,-0.255,-0.085
6341,-0.255,-0.075
6342,-0.265,-0.085
6343,-0.265,-0.095
6344,-0.275,-0.095
6345,-0.275,-0.095
6346,-0.295,-0.095
6347,-0.295,-0.095
6348,-0.295,-0.095
6349,-0.305,-0.095
6350,-0.305,-0.105
6351,-0.305,-0.105
6352,-0.305,-0.105
6353,-0.295,-0.105
6354,-0.305,-0.105
6355,-0.305,-0.105
6356,-0.305,-0.105
6357,-0.295,-0.105
6358,-0.295,-0.105
6359,-0.295,-0.105
6360,-0.295,-0.105
6361,-0.295,-0.095
6362,-0.295,-0.105
6363,-0.295,-0.095
6364,-0.285,-0.095
6365,-0.285,-0.085
6366,-0.285,-0.095
6367,-0.255,-0.095
6368,-0.265,-0.095
6369,-0.265,-0.085
6370,-0.195,-0.055
6371,-0.135,-0.025
6372,-0.165,-0.025
6373,-0.125,-0.035
6374,-0.125,-0.055
6375,-0.185,-0.085
6376,-0.195,-0.075
6377,-0.235,-0.095
6378,-0.245,-0.105
6379,-0.275,-0.095
6380,-0.285,-0.105
6381,-0.295,-0.105
6382,-0.295,-0.105
6383,-0.295,-0.105
6384,-0.275,-0.095
6385,-0.275,-0.085
6386,-0.275,-0.085
6387,-0.255,-0.085
6388,-0.235,-0.005
6389,-0.285,0.345
6390,0.005,0.675
6391,1.355,0.525
6392,2.265,-0.165
6393,1.485,-1.135
6394,-1.285,-1.015
6395,-1.265,-0.585
6396,-0.835,-0.235
6397,-0.455,-0.325
6398,-0.215,-0.115
6399,-0.125,0.015
6400,-0.105,0.055
6401,-0.065,0.055
6402,-0.045,0.075
6403,-0.025,0.075
6404,-0.005,0.095
6405,0.025,0.095
6406,0.035,0.105
6407,0.065,0.115
6408,0.095,0.135
6409,0.115,0.145
6410,0.155,0.165
6411,0.185,0.185
6412,0.245,0.225
6413,0.285,0.265
6414,0.335,0.305
6415,0.405,0.355
6416,0.485,0.415
6417,0.575,0.485
6418,0.655,0.545
6419,0.765,0.585
6420,0.845,0.605
6421,0.895,0.605
6422,0.895,0.575
6423,0.885,0.525
6424,0.815,0.455
6425,0.715,0.365
6426,0.545,0.275
6427,0.365,0.195
6428,0.185,0.115
6429,0.015,0.045
6430,-0.115,-0.015
6431,-0.225,-0.065
6432,-0.305,-0.095
6433,-0.355,-0.115
6434,-0.375,-0.125
6435,-0.405,-0.145
6436,-0.405,-0.145
6437,-0.415,-0.135
6438,-0.415,-0.145
6439,-0.425,-0.145
6440,-0.405,-0.125
6441,-0.395,-0.115
6442,-0.365,-0.105
6443,-0.355,-0.105
6444,-0.345,-0.095
6445,-0.325,-0.085
6446,-0.315,-0.075
6447,-0.295,-0.075
6448,-0.295,-0.065
6449,-0.285,-0.065
6450,-0.295,-0.065
6451,-0.285,-0.055
6452,-0.285,-0.065
6453,-0.305,-0.065
6454,-0.315,-0.075
6455,-0.315,-0.075
6456,-0.315,-0.075
6457,-0.325,-0.085
6458,-0.335,-0.095
6459,-0.325,-0.085
6460,-0.315,-0.085
6461,-0.315,-0.085
6462,-0.325,-0.085
6463,-0.315,-0.085
6464,-0.325,-0.075
6465,-0.315,-0.075
6466,-0.325,-0.085
6467,-0.315,-0.085
6468,-0.305,-0.085
6469,-0.305,-0.075
6470,-0.315,-0.085
6471,-0.295,-0.085
6472,-0.295,-0.075
6473,-0.295,-0.075
6474,-0.295,-0.075
6475,-0.285,-0.075
6476,-0.275,-0.075
6477,-0.275,-0.075
6478,-0.285,-0.075
6479,-0.275,-0.075
6480,-0.275,-0.065
6481,-0.265,-0.065
6482,-0.255,-0.055
6483,-0.175,-0.035
6484,-0.125,0.005
6485,-0.155,-0.005
6486,-0.125,-0.015
6487,-0.125,-0.025
6488,-0.195,-0.055
6489,-0.195,-0.035
6490,-0.245,-0.065
6491,-0.235,-0.075
6492,-0.265,-0.055
6493,-0.285,-0.065
6494,-0.285,-0.065
6495,-0.285,-0.075
6496,-0.295,-0.075
6497,-0.275,-0.055
6498,-0.265,-0.055
6499,-0.255,-0.055
6500,-0.245,-0.045
6501,-0.245,0.035
6502,-0.285,0.385
6503,0.005,0.695
6504,1.425,0.565
6505,2.365,-0.165
6506,1.735,-1.125
6507,-1.335,-1.045
6508,-1.335,-0.595
6509,-0.865,-0.235
6510,-0.455,-0.305
6511,-0.195,-0.105
6512,-0.115,0.035
6513,-0.085,0.085
6514,-0.065,0.105
6515,-0.045,0.105
6516,-0.025,0.115
6517,0.015,0.135
6518,0.025,0.145
6519,0.045,0.145
6520,0.075,0.155
6521,0.105,0.175
6522,0.125,0.185
6523,0.165,0.205
6524,0.205,0.235
6525,0.245,0.265
6526,0.295,0.305
6527,0.335,0.355
6528,0.405,0.405
6529,0.485,0.485
6530,0.565,0.545
6531,0.665,0.605
6532,0.755,0.645
6533,0.835,0.685
6534,0.885,0.675
6535,0.905,0.655
6536,0.895,0.605
6537,0.855,0.535
6538,0.775,0.445
6539,0.625,0.345
6540,0.445,0.245
6541,0.265,0.165
6542,0.105,0.085
6543,-0.025,0.015
6544,-0.145,-0.035
6545,-0.235,-0.065
6546,-0.295,-0.085
6547,-0.335,-0.115
6548,-0.355,-0.115
6549,-0.365,-0.125
6550,-0.385,-0.125
6551,-0.385,-0.125
6552,-0.385,-0.125
6553,-0.365,-0.105
6554,-0.355,-0.105
6555,-0.335,-0.105
6556,-0.325,-0.085
6557,-0.315,-0.075
6558,-0.285,-0.065
6559,-0.275,-0.055
6560,-0.275,-0.045
6561,-0.255,-0.045
6562,-0.245,-0.045
6563,-0.245,-0.045
6564,-0.255,-0.045
6565,-0.265,-0.045
6566,-0.275,-0.055
6567,-0.285,-0.065
6568,-0.295,-0.065
6569,-0.295,-0.065
6570,-0.305,-0.075
6571,-0.295,-0.075
6572,-0.295,-0.065
6573,-0.305,-0.075
6574,-0.305,-0.075
6575,-0.295,-0.075
6576,-0.305,-0.075
6577,-0.305,-0.075
6578,-0.305,-0.075
6579,-0.295,-0.075
6580,-0.285,-0.075
6581,-0.285,-0.065
6582,-0.295,-0.075
6583,-0.285,-0.075
6584,-0.275,-0.065
6585,-0.285,-0.065
6586,-0.285,-0.065
6587,-0.275,-0.065
6588,-0.285,-0.065
6589,-0.275,-0.055
6590,-0.265,-0.065
6591,-0.265,-0.065
6592,-0.265,-0.055
6593,-0.255,-0.055
6594,-0.245,-0.055
6595,-0.255,-0.055
6596,-0.255,-0.055
6597,-0.245,-0.045
6598,-0.175,-0.035
6599,-0.115,0.005
6600,-0.125,0.025
6601,-0.135,-0.005
6602,-0.105,-0.005
6603,-0.135,-0.045
6604,-0.165,-0.035
6605,-0.195,-0.025
6606,-0.225,-0.075
6607,-0.215,-0.055
6608,-0.255,-0.065
6609,-0.275,-0.065
6610,-0.275,-0.065
6611,-0.265,-0.065
6612,-0.275,-0.055
6613,-0.255,-0.055
6614,-0.255,-0.055
6615,-0.235,-0.045
6616,-0.235,-0.025
6617,-0.265,0.175
6618,-0.245,0.595
6619,0.605,0.675
6620,2.095,0.355
6621,2.335,-0.995
6622,-0.435,-1.315
6623,-1.545,-0.865
6624,-1.015,-0.285
6625,-0.575,-0.375
6626,-0.265,-0.175
6627,-0.135,0.015
6628,-0.095,0.075
6629,-0.075,0.105
6630,-0.045,0.125
6631,-0.025,0.135
6632,-0.005,0.145
6633,0.015,0.155
6634,0.035,0.175
6635,0.065,0.175
6636,0.085,0.185
6637,0.125,0.205
6638,0.145,0.225
6639,0.175,0.245
6640,0.225,0.285
6641,0.285,0.335
6642,0.325,0.385
6643,0.395,0.445
6644,0.475,0.525
6645,0.555,0.595
6646,0.635,0.655
6647,0.725,0.715
6648,0.795,0.735
6649,0.845,0.745
6650,0.865,0.715
6651,0.875,0.665
6652,0.845,0.585
6653,0.745,0.485
6654,0.615,0.375
6655,0.445,0.265
6656,0.265,0.175
6657,0.105,0.085
6658,-0.035,0.015
