'sample interval','ECG1','ECG2'
'0.0078125 sec','mV','mV'
0,-0.075,-0.160
1,-0.165,-0.160
2,-0.225,-0.190
3,-0.175,-0.200
4,-0.225,-0.190
5,-0.225,-0.210
6,-0.215,-0.220
7,-0.185,-0.210
8,-0.235,-0.190
9,-0.215,-0.200
10,-0.215,-0.200
11,-0.195,-0.200
12,-0.275,-0.200
13,-0.585,-0.180
14,-0.515,-0.110
15,0.475,-0.060
16,1.645,0.120
17,1.035,0.060
18,-0.355,-1.010
19,-0.785,-2.060
20,-0.425,-1.890
21,-0.135,-1.140
22,-0.125,-0.390
23,-0.125,-0.130
24,-0.115,-0.020
25,-0.105,0.030
26,-0.115,0.050
27,-0.095,0.070
28,-0.085,0.080
29,-0.055,0.100
30,-0.025,0.120
31,-0.015,0.150
32,-0.005,0.170
33,0.005,0.190
34,0.035,0.200
35,0.115,0.250
36,0.135,0.300
37,0.145,0.340
38,0.215,0.380
39,0.275,0.430
40,0.365,0.490
41,0.385,0.540
42,0.415,0.570
43,0.415,0.580
44,0.415,0.560
45,0.445,0.530
46,0.385,0.490
47,0.275,0.410
48,0.145,0.270
49,0.095,0.150
50,-0.005,0.050
51,-0.055,-0.030
52,-0.105,-0.100
53,-0.105,-0.130
54,-0.125,-0.150
55,-0.165,-0.160
56,-0.145,-0.190
57,-0.155,-0.170
58,-0.125,-0.170
59,-0.125,-0.180
60,-0.155,-0.170
61,-0.165,-0.180
62,-0.155,-0.160
63,-0.135,-0.160
64,-0.135,-0.170
65,-0.115,-0.150
66,-0.125,-0.150
67,-0.125,-0.140
68,-0.115,-0.160
69,-0.125,-0.140
70,-0.105,-0.140
71,-0.015,-0.135
72,-0.045,-0.105
73,-0.035,-0.095
74,-0.015,-0.105
75,0.025,-0.085
76,0.055,-0.085
77,0.025,-0.115
78,0.005,-0.165
79,0.025,-0.165
80,-0.015,-0.145
81,-0.105,-0.155
82,-0.155,-0.185
83,-0.135,-0.195
84,-0.185,-0.215
85,-0.155,-0.225
86,-0.165,-0.205
87,-0.195,-0.215
88,-0.185,-0.215
89,-0.165,-0.205
90,-0.165,-0.185
91,-0.135,-0.185
92,-0.165,-0.185
93,-0.445,-0.175
94,-0.575,-0.135
95,0.025,-0.085
96,1.355,-0.015
97,1.485,0.185
98,0.065,-0.585
99,-0.645,-1.765
100,-0.625,-2.005
101,-0.115,-1.505
102,-0.015,-0.635
103,-0.055,-0.175
104,-0.075,-0.045
105,-0.085,0.015
106,-0.055,0.045
107,-0.045,0.055
108,-0.025,0.075
109,-0.015,0.095
110,-0.005,0.125
111,0.015,0.135
112,0.025,0.145
113,0.045,0.175
114,0.075,0.205
115,0.125,0.235
116,0.155,0.275
117,0.175,0.335
118,0.255,0.385
119,0.295,0.445
120,0.405,0.495
121,0.415,0.545
122,0.405,0.575
123,0.475,0.575
124,0.455,0.575
125,0.425,0.555
126,0.415,0.505
127,0.315,0.415
128,0.205,0.285
129,0.105,0.185
130,-0.005,0.085
131,-0.035,-0.025
132,-0.055,-0.075
133,-0.095,-0.105
134,-0.135,-0.135
135,-0.125,-0.155
136,-0.135,-0.155
137,-0.175,-0.155
138,-0.135,-0.175
139,-0.135,-0.175
140,-0.155,-0.165
141,-0.145,-0.155
142,-0.115,-0.155
143,-0.145,-0.135
144,-0.165,-0.155
145,-0.155,-0.135
146,-0.125,-0.135
147,-0.135,-0.115
148,-0.155,-0.135
149,-0.125,-0.145
150,-0.175,-0.135
151,-0.115,-0.135
152,-0.065,-0.125
153,-0.035,-0.105
154,-0.075,-0.065
155,-0.025,-0.085
156,-0.005,-0.075
157,0.005,-0.075
158,-0.045,-0.115
159,-0.005,-0.165
160,-0.025,-0.145
161,-0.155,-0.135
162,-0.215,-0.165
163,-0.205,-0.205
164,-0.215,-0.205
165,-0.205,-0.215
166,-0.195,-0.205
167,-0.205,-0.195
168,-0.205,-0.205
169,-0.235,-0.195
170,-0.215,-0.205
171,-0.215,-0.175
172,-0.245,-0.195
173,-0.515,-0.155
174,-0.565,-0.085
175,0.215,-0.035
176,1.345,0.085
177,1.075,0.135
178,-0.175,-0.865
179,-0.685,-1.935
180,-0.645,-1.925
181,-0.285,-1.345
182,-0.165,-0.555
183,-0.135,-0.195
184,-0.165,-0.055
185,-0.155,-0.005
186,-0.135,0.025
187,-0.125,0.025
188,-0.115,0.045
189,-0.115,0.085
190,-0.065,0.105
191,-0.045,0.125
192,-0.045,0.125
193,-0.025,0.155
194,0.015,0.185
195,0.045,0.215
196,0.065,0.235
197,0.135,0.285
198,0.195,0.335
199,0.255,0.375
200,0.285,0.425
201,0.325,0.465
202,0.355,0.495
203,0.395,0.485
204,0.385,0.465
205,0.355,0.455
206,0.305,0.405
207,0.245,0.345
208,0.165,0.245
209,0.065,0.165
210,-0.015,0.085
211,-0.085,-0.005
212,-0.135,-0.055
213,-0.175,-0.095
214,-0.175,-0.115
215,-0.185,-0.125
216,-0.195,-0.135
217,-0.195,-0.135
218,-0.175,-0.125
219,-0.175,-0.125
220,-0.175,-0.125
221,-0.175,-0.105
222,-0.175,-0.105
223,-0.185,-0.095
224,-0.195,-0.105
225,-0.125,-0.105
226,-0.135,-0.095
227,-0.155,-0.095
228,-0.145,-0.095
229,-0.125,-0.095
230,-0.095,-0.085
231,-0.065,-0.085
232,-0.065,-0.055
233,-0.065,-0.035
234,0.005,-0.045
235,0.025,-0.025
236,-0.005,-0.055
237,-0.015,-0.105
238,0.005,-0.115
239,-0.015,-0.095
240,-0.165,-0.105
241,-0.185,-0.155
242,-0.165,-0.155
243,-0.165,-0.155
244,-0.185,-0.165
245,-0.195,-0.165
246,-0.165,-0.155
247,-0.185,-0.165
248,-0.185,-0.165
249,-0.125,-0.155
250,-0.155,-0.135
251,-0.195,-0.145
252,-0.495,-0.125
253,-0.475,-0.045
254,0.305,0.045
255,1.515,0.125
256,1.135,0.225
257,-0.135,-0.735
258,-0.665,-1.835
259,-0.555,-1.865
260,-0.185,-1.275
261,-0.095,-0.475
262,-0.055,-0.155
263,-0.055,-0.025
264,-0.055,0.035
265,-0.025,0.055
266,-0.005,0.065
267,-0.015,0.095
268,0.025,0.095
269,0.025,0.125
270,0.045,0.125
271,0.105,0.165
272,0.105,0.175
273,0.145,0.195
274,0.165,0.225
275,0.185,0.255
276,0.215,0.295
277,0.285,0.325
278,0.325,0.385
279,0.375,0.425
280,0.435,0.465
281,0.515,0.495
282,0.505,0.525
283,0.475,0.505
284,0.495,0.475
285,0.455,0.445
286,0.385,0.385
287,0.285,0.305
288,0.175,0.205
289,0.115,0.115
290,0.065,0.045
291,-0.015,-0.005
292,-0.005,-0.065
293,-0.035,-0.085
294,-0.065,-0.105
295,-0.085,-0.115
296,-0.045,-0.125
297,-0.085,-0.115
298,-0.065,-0.125
299,-0.055,-0.115
300,-0.055,-0.105
301,-0.065,-0.095
302,-0.045,-0.095
303,-0.055,-0.095
304,-0.025,-0.085
305,-0.035,-0.085
306,-0.005,-0.075
307,-0.025,-0.085
308,-0.075,-0.085
309,-0.035,-0.095
310,0.045,-0.085
311,0.035,-0.065
312,0.055,-0.045
313,0.095,-0.035
314,0.115,-0.025
315,0.095,-0.035
316,0.085,-0.085
317,0.125,-0.125
318,0.105,-0.095
319,0.005,-0.095
320,-0.095,-0.145
321,-0.085,-0.165
322,-0.085,-0.155
323,-0.095,-0.165
324,-0.115,-0.175
325,-0.115,-0.165
326,-0.075,-0.165
327,-0.115,-0.155
328,-0.095,-0.165
329,-0.055,-0.155
330,-0.095,-0.145
331,-0.385,-0.145
332,-0.505,-0.125
333,0.025,-0.015
334,1.285,0.055
335,1.705,0.315
336,0.485,-0.145
337,-0.465,-1.325
338,-0.595,-2.025
339,-0.195,-1.635
340,-0.045,-0.885
341,-0.015,-0.275
342,-0.025,-0.065
343,-0.045,0.025
344,-0.025,0.025
345,-0.035,0.075
346,-0.015,0.085
347,-0.005,0.105
348,0.035,0.125
349,0.055,0.145
350,0.065,0.165
351,0.075,0.165
352,0.105,0.185
353,0.155,0.225
354,0.155,0.265
355,0.205,0.285
356,0.255,0.325
357,0.295,0.405
358,0.385,0.445
359,0.425,0.505
360,0.445,0.525
361,0.465,0.545
362,0.485,0.555
363,0.475,0.535
364,0.425,0.495
365,0.345,0.435
366,0.275,0.345
367,0.165,0.225
368,0.075,0.125
369,0.005,0.045
370,-0.055,-0.035
371,-0.075,-0.085
372,-0.095,-0.105
373,-0.105,-0.135
374,-0.095,-0.145
375,-0.135,-0.145
376,-0.125,-0.165
377,-0.155,-0.155
378,-0.125,-0.155
379,-0.095,-0.155
380,-0.105,-0.145
381,-0.105,-0.125
382,-0.095,-0.135
383,-0.105,-0.135
384,-0.135,-0.135
385,-0.105,-0.145
386,-0.105,-0.125
387,-0.115,-0.125
388,-0.105,-0.135
389,-0.085,-0.125
390,-0.025,-0.125
391,0.005,-0.105
392,-0.035,-0.085
393,-0.005,-0.085
394,0.075,-0.085
395,0.025,-0.075
396,0.025,-0.115
397,0.035,-0.155
398,-0.005,-0.145
399,-0.075,-0.155
400,-0.155,-0.175
401,-0.155,-0.205
402,-0.175,-0.195
403,-0.175,-0.205
404,-0.175,-0.215
405,-0.165,-0.225
406,-0.185,-0.205
407,-0.165,-0.205
408,-0.155,-0.195
409,-0.155,-0.195
410,-0.175,-0.205
411,-0.435,-0.195
412,-0.605,-0.185
413,-0.145,-0.105
414,1.195,-0.045
415,1.635,0.105
416,0.345,-0.385
417,-0.525,-1.405
418,-0.675,-1.975
419,-0.205,-1.645
420,-0.095,-0.965
421,-0.115,-0.375
422,-0.075,-0.125
423,-0.095,-0.035
424,-0.095,0.005
425,-0.095,0.035
426,-0.085,0.065
427,-0.055,0.085
428,-0.035,0.085
429,-0.005,0.115
430,0.045,0.125
431,0.015,0.145
432,0.045,0.165
433,0.065,0.205
434,0.095,0.255
435,0.165,0.285
436,0.215,0.325
437,0.285,0.395
438,0.325,0.465
439,0.355,0.505
440,0.395,0.525
441,0.415,0.555
442,0.405,0.545
443,0.405,0.515
444,0.375,0.475
445,0.265,0.415
446,0.185,0.305
447,0.095,0.185
448,-0.005,0.065
449,-0.065,-0.015
450,-0.105,-0.085
451,-0.115,-0.125
452,-0.175,-0.155
453,-0.165,-0.185
454,-0.145,-0.185
455,-0.155,-0.185
456,-0.175,-0.205
457,-0.165,-0.195
458,-0.155,-0.185
459,-0.195,-0.185
460,-0.175,-0.205
461,-0.145,-0.185
462,-0.145,-0.175
463,-0.175,-0.165
464,-0.155,-0.185
465,-0.125,-0.165
466,-0.135,-0.165
467,-0.135,-0.175
468,-0.145,-0.185
469,-0.125,-0.175
470,-0.105,-0.165
471,-0.075,-0.135
472,-0.085,-0.115
473,-0.045,-0.125
474,0.005,-0.115
475,0.005,-0.115
476,-0.055,-0.175
477,-0.045,-0.195
478,-0.065,-0.185
479,-0.115,-0.195
480,-0.195,-0.225
481,-0.205,-0.235
482,-0.225,-0.235
483,-0.235,-0.255
484,-0.225,-0.255
485,-0.205,-0.245
486,-0.205,-0.235
487,-0.215,-0.225
488,-0.225,-0.235
489,-0.215,-0.225
490,-0.235,-0.225
491,-0.475,-0.215
492,-0.605,-0.205
493,-0.105,-0.125
494,1.115,-0.055
495,1.255,0.135
496,0.075,-0.695
497,-0.595,-1.865
498,-0.595,-2.095
499,-0.205,-1.515
500,-0.105,-0.665
501,-0.135,-0.205
502,-0.195,-0.065
503,-0.195,-0.035
504,-0.155,-0.005
505,-0.135,0.025
506,-0.125,0.055
507,-0.105,0.065
508,-0.095,0.085
509,-0.095,0.105
510,-0.075,0.125
511,-0.025,0.125
512,-0.005,0.165
513,0.015,0.215
514,0.075,0.235
515,0.075,0.285
516,0.115,0.305
517,0.225,0.365
518,0.265,0.445
519,0.285,0.485
520,0.335,0.515
521,0.375,0.535
522,0.365,0.525
523,0.355,0.485
524,0.355,0.475
525,0.255,0.405
526,0.165,0.295
527,0.045,0.165
528,-0.025,0.065
529,-0.095,-0.035
530,-0.155,-0.085
531,-0.175,-0.145
532,-0.195,-0.165
533,-0.195,-0.175
534,-0.205,-0.185
535,-0.215,-0.195
536,-0.225,-0.215
537,-0.215,-0.195
538,-0.215,-0.195
539,-0.175,-0.185
540,-0.205,-0.175
541,-0.195,-0.165
542,-0.185,-0.175
543,-0.205,-0.165
544,-0.185,-0.175
545,-0.185,-0.155
546,-0.215,-0.165
547,-0.165,-0.175
548,-0.155,-0.165
549,-0.135,-0.165
550,-0.145,-0.165
551,-0.125,-0.135
552,-0.135,-0.115
553,-0.075,-0.135
554,-0.025,-0.105
555,-0.055,-0.095
556,-0.075,-0.145
557,-0.025,-0.185
558,0.005,-0.165
559,-0.115,-0.155
560,-0.215,-0.195
561,-0.215,-0.235
562,-0.255,-0.205
563,-0.225,-0.235
564,-0.245,-0.235
565,-0.225,-0.225
566,-0.205,-0.205
567,-0.255,-0.205
568,-0.265,-0.235
569,-0.205,-0.215
570,-0.175,-0.205
571,-0.435,-0.195
572,-0.625,-0.155
573,-0.285,-0.045
574,0.795,-0.025
575,1.505,0.105
576,0.455,-0.125
577,-0.545,-1.215
578,-0.775,-1.885
579,-0.575,-1.665
580,-0.245,-1.105
581,-0.165,-0.455
582,-0.125,-0.165
583,-0.125,-0.045
584,-0.125,-0.025
585,-0.115,0.005
586,-0.085,0.015
587,-0.035,0.035
588,-0.065,0.055
589,-0.065,0.065
590,-0.015,0.065
591,0.015,0.105
592,0.015,0.115
593,0.065,0.145
594,0.115,0.165
595,0.145,0.205
596,0.165,0.245
597,0.235,0.285
598,0.305,0.325
599,0.365,0.365
600,0.395,0.395
601,0.385,0.415
602,0.425,0.405
603,0.455,0.405
604,0.395,0.385
605,0.325,0.345
606,0.255,0.275
607,0.165,0.195
608,0.045,0.105
609,-0.005,0.025
610,-0.035,-0.045
611,-0.105,-0.085
612,-0.145,-0.125
613,-0.135,-0.135
614,-0.155,-0.135
615,-0.155,-0.155
616,-0.165,-0.155
617,-0.145,-0.165
618,-0.155,-0.145
619,-0.145,-0.135
620,-0.165,-0.135
621,-0.145,-0.135
622,-0.175,-0.125
623,-0.135,-0.135
624,-0.115,-0.135
625,-0.135,-0.115
626,-0.135,-0.105
627,-0.125,-0.125
628,-0.125,-0.135
629,-0.135,-0.125
630,-0.065,-0.115
631,-0.015,-0.095
632,-0.055,-0.075
633,-0.005,-0.065
634,-0.005,-0.065
635,0.005,-0.075
636,-0.015,-0.125
637,0.015,-0.155
638,-0.035,-0.125
639,-0.075,-0.135
640,-0.195,-0.165
641,-0.185,-0.195
642,-0.205,-0.185
643,-0.185,-0.205
644,-0.215,-0.195
645,-0.165,-0.205
646,-0.205,-0.185
647,-0.205,-0.185
648,-0.195,-0.195
649,-0.185,-0.175
650,-0.175,-0.175
651,-0.405,-0.155
652,-0.625,-0.125
653,-0.275,-0.035
654,0.915,0.005
655,1.645,0.215
656,0.565,0.005
657,-0.435,-1.095
658,-0.715,-1.965
659,-0.415,-1.725
660,-0.135,-1.065
661,-0.145,-0.345
662,-0.155,-0.125
663,-0.135,-0.055
664,-0.105,-0.015
665,-0.155,0.025
666,-0.095,0.035
667,-0.095,0.065
668,-0.075,0.065
669,-0.065,0.085
670,-0.045,0.095
671,-0.005,0.125
672,-0.025,0.155
673,0.045,0.165
674,0.025,0.205
675,0.115,0.235
676,0.115,0.255
677,0.165,0.305
678,0.245,0.365
679,0.295,0.425
680,0.305,0.445
681,0.355,0.475
682,0.415,0.505
683,0.355,0.505
684,0.365,0.445
685,0.305,0.425
686,0.235,0.365
687,0.115,0.265
688,0.025,0.155
689,-0.025,0.075
690,-0.065,0.005
691,-0.145,-0.035
692,-0.175,-0.105
693,-0.195,-0.125
694,-0.185,-0.155
695,-0.215,-0.155
696,-0.215,-0.165
697,-0.205,-0.165
698,-0.205,-0.145
699,-0.205,-0.155
700,-0.215,-0.155
701,-0.225,-0.145
702,-0.195,-0.145
703,-0.185,-0.135
704,-0.195,-0.135
705,-0.165,-0.135
706,-0.175,-0.115
707,-0.205,-0.105
708,-0.195,-0.135
709,-0.165,-0.135
710,-0.165,-0.115
711,-0.145,-0.115
712,-0.105,-0.105
713,-0.095,-0.065
714,-0.075,-0.075
715,-0.035,-0.065
716,-0.055,-0.085
717,-0.055,-0.125
718,-0.045,-0.135
719,-0.075,-0.135
720,-0.165,-0.135
721,-0.255,-0.155
722,-0.265,-0.175
723,-0.245,-0.175
724,-0.285,-0.195
725,-0.255,-0.195
726,-0.265,-0.175
727,-0.255,-0.185
728,-0.255,-0.175
729,-0.235,-0.165
730,-0.225,-0.165
731,-0.315,-0.165
732,-0.655,-0.165
733,-0.565,-0.095
734,0.255,-0.025
735,1.465,0.135
736,1.165,0.275
737,-0.225,-0.635
738,-0.735,-1.895
739,-0.625,-1.965
740,-0.205,-1.355
741,-0.165,-0.495
742,-0.155,-0.145
743,-0.195,-0.025
744,-0.185,0.015
745,-0.155,0.045
746,-0.145,0.065
747,-0.135,0.075
748,-0.105,0.095
749,-0.115,0.135
750,-0.085,0.135
751,-0.075,0.145
752,-0.035,0.165
753,-0.045,0.185
754,-0.015,0.225
755,0.035,0.255
756,0.045,0.305
757,0.105,0.345
758,0.125,0.415
759,0.185,0.455
760,0.215,0.515
761,0.235,0.555
762,0.255,0.555
763,0.265,0.565
764,0.285,0.555
765,0.255,0.535
766,0.195,0.465
767,0.155,0.375
768,0.075,0.275
769,-0.015,0.145
770,-0.065,0.055
771,-0.115,-0.025
772,-0.155,-0.085
773,-0.175,-0.115
774,-0.205,-0.145
775,-0.205,-0.155
776,-0.225,-0.165
777,-0.235,-0.165
778,-0.215,-0.175
779,-0.205,-0.175
780,-0.225,-0.165
781,-0.225,-0.165
782,-0.215,-0.155
783,-0.215,-0.145
784,-0.225,-0.155
785,-0.215,-0.145
786,-0.225,-0.145
787,-0.205,-0.135
788,-0.165,-0.145
789,-0.235,-0.125
790,-0.215,-0.155
791,-0.175,-0.135
792,-0.185,-0.135
793,-0.135,-0.125
794,-0.115,-0.095
795,-0.125,-0.075
796,-0.105,-0.095
797,-0.055,-0.085
798,-0.055,-0.105
799,-0.085,-0.145
800,-0.095,-0.155
801,-0.105,-0.155
802,-0.235,-0.165
803,-0.245,-0.205
804,-0.275,-0.195
805,-0.255,-0.215
806,-0.285,-0.195
807,-0.305,-0.215
808,-0.255,-0.215
809,-0.235,-0.195
810,-0.265,-0.195
811,-0.265,-0.185
812,-0.245,-0.185
813,-0.375,-0.185
814,-0.645,-0.155
815,-0.485,-0.095
816,0.465,-0.055
817,1.475,0.175
818,0.965,0.065
819,-0.275,-0.955
820,-0.755,-2.045
821,-0.475,-1.915
822,-0.205,-1.165
823,-0.185,-0.405
824,-0.185,-0.145
825,-0.195,-0.025
826,-0.205,0.015
827,-0.175,0.045
828,-0.175,0.065
829,-0.125,0.085
830,-0.135,0.105
831,-0.125,0.135
832,-0.105,0.105
833,-0.055,0.155
834,0.005,0.195
835,-0.045,0.235
836,0.025,0.225
837,0.035,0.295
838,0.115,0.345
839,0.175,0.395
840,0.205,0.445
841,0.245,0.495
842,0.335,0.545
843,0.355,0.565
844,0.375,0.565
845,0.345,0.575
846,0.335,0.535
847,0.275,0.485
848,0.165,0.375
849,0.055,0.245
850,0.015,0.155
851,-0.095,0.035
852,-0.185,-0.055
853,-0.165,-0.105
854,-0.235,-0.135
855,-0.235,-0.155
856,-0.225,-0.175
857,-0.185,-0.165
858,-0.255,-0.175
859,-0.285,-0.185
860,-0.235,-0.195
861,-0.215,-0.165
862,-0.175,-0.185
863,-0.225,-0.165
864,-0.265,-0.165
865,-0.185,-0.185
866,-0.205,-0.165
867,-0.225,-0.165
868,-0.235,-0.185
869,-0.175,-0.175
870,-0.225,-0.165
871,-0.225,-0.185
872,-0.175,-0.185
873,-0.195,-0.175
874,-0.135,-0.185
875,-0.125,-0.145
876,-0.075,-0.125
877,-0.065,-0.095
878,-0.075,-0.095
879,-0.075,-0.115
880,-0.065,-0.155
881,-0.035,-0.185
882,-0.045,-0.175
883,-0.075,-0.155
884,-0.225,-0.195
885,-0.205,-0.245
886,-0.265,-0.225
887,-0.255,-0.235
888,-0.215,-0.235
889,-0.245,-0.235
890,-0.245,-0.225
891,-0.245,-0.235
892,-0.215,-0.215
893,-0.225,-0.215
894,-0.215,-0.225
895,-0.285,-0.215
896,-0.545,-0.185
897,-0.505,-0.085
898,0.375,-0.045
899,1.445,0.055
900,1.065,0.105
901,-0.205,-0.855
902,-0.745,-1.915
903,-0.655,-1.875
904,-0.255,-1.305
905,-0.185,-0.555
906,-0.165,-0.235
907,-0.155,-0.105
908,-0.135,-0.055
909,-0.105,-0.015
910,-0.095,-0.015
911,-0.085,0.015
912,-0.085,0.025
913,-0.095,0.055
914,-0.085,0.055
915,-0.015,0.065
916,0.005,0.095
917,0.025,0.115
918,0.085,0.165
919,0.145,0.175
920,0.115,0.205
921,0.185,0.265
922,0.245,0.315
923,0.355,0.345
924,0.435,0.395
925,0.365,0.415
926,0.425,0.415
927,0.395,0.405
928,0.415,0.365
929,0.355,0.335
930,0.265,0.265
931,0.125,0.175
932,0.045,0.065
933,-0.035,-0.005
934,-0.095,-0.065
935,-0.105,-0.135
936,-0.155,-0.175
937,-0.175,-0.185
938,-0.165,-0.195
939,-0.155,-0.205
940,-0.225,-0.205
941,-0.155,-0.215
942,-0.185,-0.205
943,-0.175,-0.215
944,-0.155,-0.205
945,-0.135,-0.185
946,-0.145,-0.175
947,-0.145,-0.185
948,-0.115,-0.195
949,-0.115,-0.165
950,-0.115,-0.175
951,-0.165,-0.185
952,-0.135,-0.215
953,-0.155,-0.185
954,-0.145,-0.165
955,-0.075,-0.165
956,-0.045,-0.155
957,-0.015,-0.115
958,-0.015,-0.135
959,0.005,-0.105
960,0.035,-0.145
961,0.025,-0.185
962,-0.015,-0.195
963,0.005,-0.175
964,-0.115,-0.165
965,-0.185,-0.215
966,-0.165,-0.255
967,-0.165,-0.245
968,-0.185,-0.245
969,-0.185,-0.245
970,-0.205,-0.235
971,-0.225,-0.255
972,-0.205,-0.235
973,-0.175,-0.235
974,-0.175,-0.235
975,-0.155,-0.235
976,-0.335,-0.225
977,-0.615,-0.195
978,-0.395,-0.115
979,0.745,-0.075
980,1.585,0.165
981,0.605,-0.045
982,-0.385,-1.255
983,-0.615,-2.085
984,-0.365,-1.745
985,-0.095,-1.065
986,-0.115,-0.395
987,-0.145,-0.175
988,-0.145,-0.095
989,-0.145,-0.035
990,-0.115,-0.005
991,-0.095,0.015
992,-0.105,0.015
993,-0.055,0.035
994,-0.055,0.065
995,-0.035,0.075
996,-0.055,0.085
997,0.005,0.105
998,0.035,0.145
999,0.055,0.185
1000,0.085,0.215
1001,0.125,0.265
1002,0.215,0.295
1003,0.245,0.365
1004,0.285,0.395
1005,0.365,0.445
1006,0.395,0.495
1007,0.395,0.505
1008,0.375,0.495
1009,0.375,0.455
1010,0.335,0.425
1011,0.185,0.335
1012,0.105,0.215
1013,0.045,0.115
1014,-0.015,0.035
1015,-0.085,-0.045
1016,-0.135,-0.105
1017,-0.125,-0.135
1018,-0.185,-0.145
1019,-0.155,-0.175
1020,-0.175,-0.195
1021,-0.225,-0.195
1022,-0.155,-0.185
1023,-0.215,-0.175
1024,-0.175,-0.185
1025,-0.165,-0.165
1026,-0.145,-0.165
1027,-0.135,-0.165
1028,-0.165,-0.155
1029,-0.205,-0.155
1030,-0.175,-0.165
1031,-0.115,-0.145
1032,-0.125,-0.155
1033,-0.135,-0.155
1034,-0.175,-0.145
1035,-0.125,-0.155
1036,-0.095,-0.145
1037,-0.075,-0.105
1038,-0.055,-0.095
1039,-0.045,-0.085
1040,0.015,-0.105
1041,-0.035,-0.095
1042,-0.025,-0.155
1043,0.005,-0.165
1044,-0.035,-0.145
1045,-0.155,-0.155
1046,-0.205,-0.165
1047,-0.225,-0.195
1048,-0.215,-0.205
1049,-0.205,-0.215
1050,-0.225,-0.205
1051,-0.235,-0.205
1052,-0.215,-0.205
1053,-0.215,-0.195
1054,-0.225,-0.185
1055,-0.195,-0.185
1056,-0.205,-0.185
1057,-0.305,-0.175
1058,-0.565,-0.155
1059,-0.415,-0.095
1060,0.635,-0.095
1061,1.485,0.175
1062,0.775,0.075
1063,-0.295,-0.935
1064,-0.615,-2.005
1065,-0.425,-1.875
1066,-0.105,-1.235
1067,-0.125,-0.485
1068,-0.155,-0.195
1069,-0.165,-0.055
1070,-0.125,0.025
1071,-0.115,0.035
1072,-0.075,0.045
1073,-0.095,0.075
1074,-0.095,0.095
1075,-0.085,0.105
1076,-0.035,0.125
1077,-0.045,0.165
1078,-0.025,0.185
1079,0.055,0.195
1080,0.045,0.235
1081,0.095,0.275
1082,0.135,0.345
1083,0.175,0.385
1084,0.235,0.435
1085,0.285,0.505
1086,0.315,0.565
1087,0.335,0.585
1088,0.375,0.575
1089,0.335,0.575
1090,0.375,0.525
1091,0.325,0.515
1092,0.235,0.425
1093,0.125,0.315
1094,0.065,0.205
1095,0.025,0.085
1096,-0.055,-0.005
1097,-0.125,-0.055
1098,-0.135,-0.125
1099,-0.135,-0.135
1100,-0.145,-0.155
1101,-0.195,-0.145
1102,-0.225,-0.155
1103,-0.155,-0.165
1104,-0.145,-0.155
1105,-0.165,-0.155
1106,-0.155,-0.145
1107,-0.165,-0.125
1108,-0.155,-0.135
1109,-0.135,-0.135
1110,-0.175,-0.125
1111,-0.155,-0.145
1112,-0.145,-0.125
1113,-0.145,-0.115
1114,-0.135,-0.125
1115,-0.135,-0.135
1116,-0.145,-0.135
1117,-0.095,-0.115
1118,-0.065,-0.075
1119,-0.065,-0.075
1120,-0.015,-0.085
1121,0.005,-0.065
1122,-0.015,-0.085
1123,-0.045,-0.135
1124,-0.015,-0.165
1125,-0.065,-0.135
1126,-0.155,-0.145
1127,-0.215,-0.175
1128,-0.255,-0.175
1129,-0.205,-0.205
1130,-0.195,-0.195
1131,-0.235,-0.195
1132,-0.225,-0.205
1133,-0.195,-0.185
1134,-0.215,-0.165
1135,-0.215,-0.185
1136,-0.175,-0.175
1137,-0.275,-0.165
1138,-0.565,-0.155
1139,-0.585,-0.095
1140,0.125,-0.065
1141,1.405,0.075
1142,1.255,0.225
1143,-0.075,-0.675
1144,-0.605,-1.965
1145,-0.535,-2.025
1146,-0.155,-1.415
1147,-0.105,-0.565
1148,-0.105,-0.135
1149,-0.145,0.005
1150,-0.145,0.035
1151,-0.115,0.055
1152,-0.095,0.085
1153,-0.095,0.125
1154,-0.085,0.125
1155,-0.045,0.145
1156,-0.015,0.155
1157,-0.045,0.185
1158,-0.015,0.205
1159,0.025,0.235
1160,0.005,0.265
1161,0.115,0.305
1162,0.175,0.345
1163,0.155,0.405
1164,0.235,0.445
1165,0.255,0.515
1166,0.335,0.555
1167,0.345,0.585
1168,0.405,0.585
1169,0.395,0.615
1170,0.375,0.585
1171,0.365,0.525
1172,0.255,0.465
1173,0.185,0.375
1174,0.095,0.275
1175,0.005,0.165
1176,-0.055,0.045
1177,-0.115,-0.005
1178,-0.135,-0.055
1179,-0.135,-0.095
1180,-0.205,-0.115
1181,-0.225,-0.125
1182,-0.195,-0.135
1183,-0.165,-0.135
1184,-0.205,-0.135
1185,-0.205,-0.125
1186,-0.205,-0.115
1187,-0.155,-0.125
1188,-0.175,-0.125
1189,-0.145,-0.105
1190,-0.185,-0.095
1191,-0.175,-0.115
1192,-0.165,-0.115
1193,-0.175,-0.095
1194,-0.205,-0.095
1195,-0.175,-0.125
1196,-0.155,-0.115
1197,-0.115,-0.105
1198,-0.075,-0.075
1199,-0.055,-0.055
1200,-0.045,-0.045
1201,-0.035,-0.035
1202,-0.005,-0.055
1203,-0.065,-0.075
1204,0.005,-0.145
1205,-0.095,-0.095
1206,-0.125,-0.125
1207,-0.155,-0.145
1208,-0.185,-0.175
1209,-0.215,-0.155
1210,-0.235,-0.165
1211,-0.255,-0.165
1212,-0.225,-0.165
1213,-0.205,-0.165
1214,-0.225,-0.155
1215,-0.165,-0.155
1216,-0.225,-0.155
1217,-0.215,-0.155
1218,-0.425,-0.135
1219,-0.605,-0.075
1220,-0.265,-0.005
1221,0.925,0.015
1222,1.535,0.225
1223,0.435,-0.125
1224,-0.545,-1.295
1225,-0.735,-1.945
1226,-0.405,-1.585
1227,-0.175,-0.835
1228,-0.155,-0.275
1229,-0.115,-0.085
1230,-0.085,0.015
1231,-0.145,0.065
1232,-0.125,0.055
1233,-0.055,0.075
1234,-0.065,0.105
1235,-0.075,0.105
1236,-0.045,0.105
1237,-0.035,0.155
1238,-0.015,0.165
1239,-0.025,0.205
1240,0.065,0.205
1241,0.105,0.225
1242,0.135,0.265
1243,0.185,0.315
1244,0.215,0.355
1245,0.315,0.405
1246,0.295,0.465
1247,0.385,0.475
1248,0.385,0.495
1249,0.425,0.505
1250,0.405,0.475
1251,0.375,0.445
1252,0.265,0.395
1253,0.225,0.325
1254,0.125,0.215
1255,0.055,0.135
1256,-0.045,0.055
1257,-0.145,-0.005
1258,-0.115,-0.065
1259,-0.145,-0.095
1260,-0.185,-0.115
1261,-0.205,-0.135
1262,-0.185,-0.125
1263,-0.175,-0.135
1264,-0.205,-0.145
1265,-0.125,-0.125
1266,-0.165,-0.105
1267,-0.175,-0.105
1268,-0.155,-0.125
1269,-0.185,-0.115
1270,-0.165,-0.105
1271,-0.155,-0.115
1272,-0.165,-0.105
1273,-0.115,-0.095
1274,-0.145,-0.095
1275,-0.145,-0.105
1276,-0.175,-0.095
1277,-0.085,-0.085
1278,-0.015,-0.055
1279,-0.085,-0.035
1280,-0.025,-0.055
1281,0.005,-0.035
1282,-0.035,-0.065
1283,0.025,-0.135
1284,-0.015,-0.125
1285,-0.075,-0.105
1286,-0.165,-0.125
1287,-0.145,-0.165
1288,-0.225,-0.155
1289,-0.245,-0.185
1290,-0.175,-0.185
1291,-0.245,-0.165
1292,-0.235,-0.195
1293,-0.195,-0.175
1294,-0.215,-0.175
1295,-0.235,-0.165
1296,-0.185,-0.175
1297,-0.185,-0.175
1298,-0.575,-0.135
1299,-0.555,-0.095
1300,0.155,-0.015
1301,1.435,0.075
1302,1.195,0.225
1303,-0.115,-0.705
1304,-0.625,-1.885
1305,-0.565,-1.945
1306,-0.205,-1.315
1307,-0.125,-0.525
1308,-0.125,-0.135
1309,-0.135,-0.025
1310,-0.135,0.025
1311,-0.135,0.035
1312,-0.075,0.025
1313,-0.095,0.075
1314,-0.085,0.075
1315,-0.035,0.095
1316,-0.025,0.105
1317,-0.025,0.145
1318,-0.015,0.145
1319,-0.005,0.175
1320,0.065,0.215
1321,0.115,0.255
1322,0.155,0.295
1323,0.165,0.325
1324,0.225,0.365
1325,0.345,0.425
1326,0.355,0.475
1327,0.355,0.495
1328,0.395,0.485
1329,0.415,0.485
1330,0.335,0.465
1331,0.285,0.405
1332,0.185,0.325
1333,0.105,0.235
1334,0.025,0.125
1335,-0.035,0.035
1336,-0.115,-0.035
1337,-0.135,-0.085
1338,-0.145,-0.115
1339,-0.185,-0.125
1340,-0.175,-0.155
1341,-0.185,-0.165
1342,-0.175,-0.165
1343,-0.195,-0.165
1344,-0.185,-0.175
1345,-0.155,-0.155
1346,-0.185,-0.155
1347,-0.185,-0.145
1348,-0.165,-0.155
1349,-0.165,-0.145
1350,-0.145,-0.145
1351,-0.145,-0.140
1352,-0.155,-0.140
1353,-0.125,-0.140
1354,-0.165,-0.130
1355,-0.155,-0.140
1356,-0.105,-0.140
1357,-0.055,-0.110
1358,-0.055,-0.090
1359,-0.035,-0.090
1360,0.025,-0.080
1361,-0.015,-0.100
1362,-0.035,-0.140
1363,0.005,-0.165
1364,-0.025,-0.155
1365,-0.095,-0.165
1366,-0.225,-0.185
1367,-0.235,-0.205
1368,-0.235,-0.205
1369,-0.215,-0.215
1370,-0.215,-0.205
1371,-0.225,-0.215
1372,-0.225,-0.215
1373,-0.215,-0.205
1374,-0.175,-0.205
1375,-0.195,-0.185
1376,-0.225,-0.195
1377,-0.275,-0.205
1378,-0.605,-0.185
1379,-0.465,-0.135
1380,0.455,-0.095
1381,1.515,0.075
1382,0.825,-0.135
1383,-0.335,-1.145
1384,-0.635,-1.995
1385,-0.375,-1.765
1386,-0.135,-1.055
1387,-0.095,-0.385
1388,-0.165,-0.125
1389,-0.165,-0.045
1390,-0.145,-0.005
1391,-0.115,0.025
1392,-0.105,0.045
1393,-0.095,0.075
1394,-0.105,0.095
1395,-0.055,0.105
1396,-0.025,0.125
1397,-0.015,0.145
1398,-0.065,0.185
1399,-0.005,0.185
1400,0.055,0.215
1401,0.105,0.265
1402,0.105,0.325
1403,0.175,0.365
1404,0.235,0.425
1405,0.325,0.485
1406,0.345,0.535
1407,0.385,0.545
1408,0.375,0.565
1409,0.345,0.535
1410,0.355,0.505
1411,0.285,0.445
1412,0.175,0.345
1413,0.105,0.225
1414,0.025,0.105
1415,-0.065,0.005
1416,-0.115,-0.075
1417,-0.125,-0.115
1418,-0.155,-0.145
1419,-0.185,-0.175
1420,-0.185,-0.195
1421,-0.185,-0.195
1422,-0.185,-0.175
1423,-0.225,-0.185
1424,-0.195,-0.215
1425,-0.175,-0.185
1426,-0.175,-0.175
1427,-0.185,-0.185
1428,-0.175,-0.185
1429,-0.185,-0.175
1430,-0.145,-0.165
1431,-0.155,-0.155
1432,-0.185,-0.165
1433,-0.195,-0.165
1434,-0.165,-0.165
1435,-0.135,-0.155
1436,-0.075,-0.145
1437,-0.075,-0.105
1438,-0.085,-0.115
1439,-0.045,-0.115
1440,0.005,-0.105
1441,-0.005,-0.135
1442,-0.025,-0.165
1443,-0.045,-0.175
1444,-0.085,-0.175
1445,-0.155,-0.175
1446,-0.235,-0.195
1447,-0.235,-0.215
1448,-0.215,-0.225
1449,-0.275,-0.215
1450,-0.245,-0.225
1451,-0.195,-0.225
1452,-0.195,-0.215
1453,-0.225,-0.205
1454,-0.205,-0.215
1455,-0.205,-0.215
1456,-0.355,-0.215
1457,-0.625,-0.215
1458,-0.535,-0.145
1459,0.475,-0.135
1460,1.505,0.065
1461,0.765,-0.115
1462,-0.315,-1.115
1463,-0.685,-1.985
1464,-0.345,-1.765
1465,-0.105,-1.085
1466,-0.135,-0.435
1467,-0.145,-0.165
1468,-0.155,-0.045
1469,-0.115,0.005
1470,-0.145,0.025
1471,-0.135,0.045
1472,-0.145,0.045
1473,-0.085,0.085
1474,-0.065,0.105
1475,-0.045,0.125
1476,-0.075,0.135
1477,-0.015,0.155
1478,-0.005,0.195
1479,-0.005,0.205
1480,0.085,0.245
1481,0.105,0.325
1482,0.145,0.355
1483,0.195,0.385
1484,0.275,0.425
1485,0.355,0.505
1486,0.335,0.545
1487,0.355,0.545
1488,0.315,0.535
1489,0.365,0.525
1490,0.365,0.485
1491,0.265,0.435
1492,0.185,0.325
1493,0.085,0.205
1494,-0.025,0.085
1495,-0.095,-0.005
1496,-0.145,-0.075
1497,-0.165,-0.105
1498,-0.195,-0.135
1499,-0.175,-0.155
1500,-0.215,-0.185
1501,-0.225,-0.195
1502,-0.165,-0.185
1503,-0.175,-0.165
1504,-0.185,-0.185
1505,-0.215,-0.185
1506,-0.205,-0.185
1507,-0.205,-0.175
1508,-0.225,-0.175
1509,-0.215,-0.165
1510,-0.155,-0.165
1511,-0.165,-0.165
1512,-0.175,-0.175
1513,-0.185,-0.165
1514,-0.235,-0.165
1515,-0.185,-0.175
1516,-0.125,-0.145
1517,-0.115,-0.115
1518,-0.105,-0.115
1519,-0.015,-0.105
1520,-0.085,-0.095
1521,-0.075,-0.135
1522,0.005,-0.185
1523,-0.065,-0.165
1524,-0.115,-0.185
1525,-0.255,-0.185
1526,-0.285,-0.225
1527,-0.225,-0.225
1528,-0.255,-0.225
1529,-0.245,-0.235
1530,-0.265,-0.215
1531,-0.265,-0.225
1532,-0.255,-0.225
1533,-0.235,-0.205
1534,-0.215,-0.215
1535,-0.245,-0.195
1536,-0.465,-0.215
1537,-0.705,-0.185
1538,-0.315,-0.115
1539,0.885,-0.085
1540,1.465,0.105
1541,0.255,-0.375
1542,-0.625,-1.555
1543,-0.715,-1.985
1544,-0.325,-1.585
1545,-0.165,-0.815
1546,-0.145,-0.295
1547,-0.195,-0.105
1548,-0.175,-0.035
1549,-0.145,-0.005
1550,-0.165,0.025
1551,-0.145,0.025
1552,-0.165,0.035
1553,-0.115,0.065
1554,-0.085,0.085
1555,-0.085,0.105
1556,-0.055,0.115
1557,-0.015,0.145
1558,0.015,0.165
1559,0.065,0.205
1560,0.055,0.255
1561,0.135,0.285
1562,0.205,0.325
1563,0.225,0.395
1564,0.265,0.435
1565,0.325,0.445
1566,0.365,0.475
1567,0.335,0.465
1568,0.335,0.445
1569,0.345,0.405
1570,0.245,0.365
1571,0.175,0.265
1572,0.055,0.185
1573,-0.055,0.075
1574,-0.115,0.005
1575,-0.185,-0.055
1576,-0.195,-0.115
1577,-0.255,-0.125
1578,-0.245,-0.145
1579,-0.255,-0.165
1580,-0.265,-0.165
1581,-0.305,-0.165
1582,-0.305,-0.175
1583,-0.265,-0.165
1584,-0.255,-0.155
1585,-0.235,-0.145
1586,-0.275,-0.145
1587,-0.255,-0.155
1588,-0.245,-0.135
1589,-0.295,-0.135
1590,-0.265,-0.145
1591,-0.275,-0.145
1592,-0.305,-0.155
1593,-0.255,-0.145
1594,-0.215,-0.125
1595,-0.165,-0.105
1596,-0.185,-0.095
1597,-0.205,-0.095
1598,-0.105,-0.075
1599,-0.085,-0.065
1600,-0.155,-0.105
1601,-0.155,-0.155
1602,-0.145,-0.145
1603,-0.195,-0.145
1604,-0.325,-0.145
1605,-0.345,-0.195
1606,-0.335,-0.185
1607,-0.355,-0.195
1608,-0.335,-0.195
1609,-0.345,-0.185
1610,-0.355,-0.195
1611,-0.355,-0.205
1612,-0.315,-0.205
1613,-0.305,-0.185
1614,-0.325,-0.175
1615,-0.565,-0.185
1616,-0.795,-0.155
1617,-0.395,-0.065
1618,0.875,-0.035
1619,1.435,0.105
1620,0.065,-0.335
1621,-0.795,-1.485
1622,-0.825,-1.855
1623,-0.485,-1.455
1624,-0.295,-0.785
1625,-0.225,-0.305
1626,-0.245,-0.095
1627,-0.265,-0.025
1628,-0.245,-0.015
1629,-0.215,0.015
1630,-0.175,0.055
1631,-0.175,0.055
1632,-0.175,0.055
1633,-0.155,0.085
1634,-0.105,0.095
1635,-0.075,0.135
1636,-0.065,0.135
1637,-0.045,0.175
1638,0.005,0.205
1639,0.065,0.245
1640,0.115,0.275
1641,0.195,0.345
1642,0.265,0.385
1643,0.275,0.415
1644,0.325,0.425
1645,0.355,0.435
1646,0.325,0.435
1647,0.325,0.405
1648,0.315,0.365
1649,0.225,0.325
1650,0.135,0.245
1651,0.025,0.135
1652,-0.015,0.025
1653,-0.075,-0.025
1654,-0.085,-0.075
1655,-0.125,-0.095
1656,-0.175,-0.135
1657,-0.165,-0.155
1658,-0.155,-0.155
1659,-0.135,-0.155
1660,-0.145,-0.165
1661,-0.145,-0.165
1662,-0.155,-0.145
1663,-0.125,-0.145
1664,-0.125,-0.135
1665,-0.095,-0.135
1666,-0.095,-0.135
1667,-0.095,-0.135
1668,-0.095,-0.145
1669,-0.075,-0.125
1670,-0.075,-0.115
1671,-0.075,-0.125
1672,-0.045,-0.125
1673,-0.045,-0.105
1674,0.015,-0.105
1675,0.025,-0.075
1676,0.025,-0.075
1677,0.065,-0.075
1678,0.095,-0.075
1679,0.075,-0.095
1680,0.065,-0.155
1681,0.065,-0.155
1682,0.035,-0.145
1683,-0.035,-0.155
1684,-0.095,-0.185
1685,-0.065,-0.195
1686,-0.095,-0.195
1687,-0.085,-0.215
1688,-0.095,-0.195
1689,-0.095,-0.185
1690,-0.055,-0.195
1691,-0.055,-0.175
1692,-0.085,-0.175
1693,-0.065,-0.185
1694,-0.195,-0.175
1695,-0.425,-0.165
1696,-0.305,-0.085
1697,0.465,-0.085
1698,1.375,0.165
1699,1.055,0.025
1700,0.035,-1.025
1701,-0.395,-2.015
1702,-0.265,-1.825
1703,-0.025,-1.125
1704,0.005,-0.375
1705,0.055,-0.095
1706,0.025,0.025
1707,0.015,0.025
1708,0.055,0.045
1709,0.055,0.075
1710,0.055,0.095
1711,0.095,0.105
1712,0.075,0.115
1713,0.135,0.125
1714,0.145,0.165
1715,0.165,0.195
1716,0.165,0.205
1717,0.195,0.245
1718,0.235,0.295
1719,0.305,0.335
1720,0.355,0.385
1721,0.355,0.455
1722,0.425,0.495
1723,0.455,0.525
1724,0.495,0.545
1725,0.525,0.565
1726,0.505,0.555
1727,0.485,0.515
1728,0.435,0.445
1729,0.405,0.345
1730,0.295,0.265
1731,0.185,0.135
1732,0.095,0.025
1733,0.065,-0.055
1734,0.045,-0.095
1735,-0.015,-0.125
1736,-0.015,-0.165
1737,-0.035,-0.145
1738,-0.045,-0.165
1739,-0.015,-0.175
1740,0.005,-0.175
1741,-0.035,-0.165
1742,-0.065,-0.175
1743,-0.055,-0.185
1744,-0.035,-0.165
1745,-0.035,-0.145
1746,-0.015,-0.155
1747,-0.035,-0.145
1748,-0.055,-0.155
1749,0.005,-0.155
1750,-0.025,-0.135
1751,-0.025,-0.135
1752,0.035,-0.135
1753,0.055,-0.095
1754,0.035,-0.095
1755,0.075,-0.105
1756,0.095,-0.085
1757,0.085,-0.085
1758,0.075,-0.135
1759,0.095,-0.175
1760,0.085,-0.155
1761,0.015,-0.155
1762,-0.085,-0.185
1763,-0.075,-0.205
1764,-0.125,-0.205
1765,-0.155,-0.225
1766,-0.115,-0.235
1767,-0.135,-0.215
1768,-0.135,-0.225
1769,-0.115,-0.205
1770,-0.135,-0.205
1771,-0.135,-0.205
1772,-0.095,-0.215
1773,-0.205,-0.205
1774,-0.535,-0.195
1775,-0.435,-0.125
1776,0.565,-0.135
1777,1.615,0.135
1778,0.915,-0.085
1779,-0.285,-1.245
1780,-0.585,-2.195
1781,-0.295,-1.865
1782,-0.065,-1.095
1783,-0.045,-0.355
1784,-0.045,-0.115
1785,-0.065,-0.015
1786,-0.075,0.025
1787,-0.085,0.025
1788,-0.045,0.055
1789,-0.035,0.065
1790,-0.005,0.105
1791,-0.045,0.115
1792,0.015,0.125
1793,0.045,0.145
1794,0.085,0.175
1795,0.085,0.205
1796,0.135,0.225
1797,0.185,0.285
1798,0.175,0.325
1799,0.215,0.375
1800,0.325,0.425
1801,0.355,0.485
1802,0.415,0.535
1803,0.435,0.555
1804,0.475,0.555
1805,0.465,0.555
1806,0.435,0.525
1807,0.415,0.465
1808,0.295,0.385
1809,0.185,0.275
1810,0.105,0.155
1811,0.015,0.045
1812,-0.055,-0.045
1813,-0.095,-0.095
1814,-0.095,-0.125
1815,-0.135,-0.155
1816,-0.105,-0.175
1817,-0.165,-0.175
1818,-0.155,-0.185
1819,-0.155,-0.185
1820,-0.155,-0.185
1821,-0.155,-0.185
1822,-0.145,-0.175
1823,-0.115,-0.165
1824,-0.115,-0.155
1825,-0.155,-0.165
1826,-0.155,-0.165
1827,-0.105,-0.165
1828,-0.195,-0.155
1829,-0.185,-0.165
1830,-0.125,-0.165
1831,-0.135,-0.165
1832,-0.135,-0.165
1833,-0.105,-0.155
1834,-0.045,-0.125
1835,-0.035,-0.115
1836,-0.045,-0.105
1837,-0.025,-0.105
1838,0.005,-0.105
1839,-0.005,-0.135
1840,-0.045,-0.175
1841,-0.065,-0.185
1842,-0.095,-0.175
1843,-0.205,-0.195
1844,-0.235,-0.225
1845,-0.255,-0.225
1846,-0.215,-0.225
1847,-0.185,-0.225
1848,-0.255,-0.225
1849,-0.245,-0.215
1850,-0.225,-0.215
1851,-0.215,-0.215
1852,-0.215,-0.215
1853,-0.235,-0.205
1854,-0.455,-0.215
1855,-0.685,-0.195
1856,-0.335,-0.125
1857,1.015,-0.085
1858,1.495,0.105
1859,0.235,-0.595
1860,-0.615,-1.745
1861,-0.695,-2.055
1862,-0.295,-1.635
1863,-0.185,-0.915
1864,-0.165,-0.335
1865,-0.145,-0.115
1866,-0.105,-0.015
1867,-0.205,0.015
1868,-0.165,0.025
1869,-0.105,0.055
1870,-0.115,0.065
1871,-0.115,0.075
1872,-0.125,0.095
1873,-0.105,0.115
1874,-0.005,0.125
1875,-0.025,0.175
1876,-0.015,0.185
1877,0.035,0.225
1878,0.055,0.265
1879,0.145,0.315
1880,0.135,0.365
1881,0.235,0.415
1882,0.345,0.465
1883,0.345,0.505
1884,0.355,0.525
1885,0.335,0.515
1886,0.395,0.505
1887,0.405,0.465
1888,0.285,0.435
1889,0.165,0.325
1890,0.055,0.225
1891,0.005,0.095
1892,-0.065,-0.015
1893,-0.165,-0.065
1894,-0.185,-0.125
1895,-0.185,-0.145
1896,-0.255,-0.165
1897,-0.255,-0.165
1898,-0.235,-0.185
1899,-0.285,-0.185
1900,-0.245,-0.205
1901,-0.225,-0.175
1902,-0.245,-0.175
1903,-0.225,-0.165
1904,-0.225,-0.165
1905,-0.195,-0.165
1906,-0.225,-0.165
1907,-0.215,-0.165
1908,-0.245,-0.155
1909,-0.215,-0.165
1910,-0.255,-0.155
1911,-0.225,-0.155
1912,-0.245,-0.165
1913,-0.175,-0.165
1914,-0.175,-0.125
1915,-0.155,-0.115
1916,-0.135,-0.125
1917,-0.065,-0.115
1918,-0.085,-0.095
1919,-0.135,-0.155
1920,-0.075,-0.195
1921,-0.065,-0.165
1922,-0.165,-0.175
1923,-0.285,-0.205
1924,-0.295,-0.235
1925,-0.285,-0.235
1926,-0.315,-0.225
1927,-0.305,-0.245
1928,-0.295,-0.235
1929,-0.275,-0.235
1930,-0.315,-0.215
1931,-0.265,-0.205
1932,-0.235,-0.235
1933,-0.275,-0.225
1934,-0.445,-0.215
1935,-0.745,-0.155
1936,-0.435,-0.065
1937,0.735,-0.065
1938,1.495,0.085
1939,0.425,-0.265
1940,-0.635,-1.435
1941,-0.855,-1.965
1942,-0.595,-1.665
1943,-0.315,-0.975
1944,-0.245,-0.405
1945,-0.205,-0.175
1946,-0.205,-0.075
1947,-0.195,-0.035
1948,-0.205,-0.015
1949,-0.135,0.025
1950,-0.125,0.025
1951,-0.115,0.035
1952,-0.135,0.055
1953,-0.095,0.065
1954,-0.045,0.085
1955,-0.065,0.105
1956,-0.045,0.115
1957,-0.005,0.145
1958,0.045,0.195
1959,0.085,0.225
1960,0.155,0.265
1961,0.215,0.305
1962,0.205,0.365
1963,0.295,0.385
1964,0.345,0.415
1965,0.345,0.425
1966,0.375,0.415
1967,0.345,0.395
1968,0.315,0.345
1969,0.215,0.305
1970,0.105,0.225
1971,0.055,0.125
1972,-0.025,0.055
1973,-0.085,-0.015
1974,-0.165,-0.075
1975,-0.205,-0.115
1976,-0.205,-0.145
1977,-0.225,-0.165
1978,-0.215,-0.175
1979,-0.225,-0.175
1980,-0.245,-0.185
1981,-0.235,-0.185
1982,-0.225,-0.165
1983,-0.235,-0.155
1984,-0.215,-0.165
1985,-0.235,-0.155
1986,-0.195,-0.145
1987,-0.215,-0.145
1988,-0.185,-0.165
1989,-0.165,-0.135
1990,-0.195,-0.135
1991,-0.185,-0.145
1992,-0.195,-0.155
1993,-0.215,-0.155
1994,-0.165,-0.145
1995,-0.115,-0.115
1996,-0.095,-0.095
1997,-0.085,-0.095
1998,-0.045,-0.095
1999,-0.025,-0.075
2000,-0.075,-0.085
2001,-0.055,-0.145
2002,-0.035,-0.145
2003,-0.075,-0.135
2004,-0.175,-0.155
2005,-0.225,-0.175
2006,-0.225,-0.195
2007,-0.255,-0.195
2008,-0.245,-0.215
2009,-0.235,-0.205
2010,-0.245,-0.205
2011,-0.225,-0.205
2012,-0.225,-0.205
2013,-0.225,-0.185
2014,-0.195,-0.185
2015,-0.295,-0.195
2016,-0.575,-0.185
2017,-0.555,-0.095
2018,0.085,-0.045
2019,1.235,0.045
2020,1.305,0.125
2021,0.115,-0.675
2022,-0.565,-1.785
2023,-0.635,-1.965
2024,-0.285,-1.485
2025,-0.175,-0.705
2026,-0.145,-0.235
2027,-0.135,-0.065
2028,-0.145,-0.005
2029,-0.145,0.025
2030,-0.125,0.045
2031,-0.115,0.055
2032,-0.095,0.065
2033,-0.075,0.085
2034,-0.035,0.125
2035,-0.025,0.125
2036,-0.005,0.145
2037,0.005,0.175
2038,0.035,0.215
2039,0.075,0.245
2040,0.105,0.265
2041,0.145,0.325
2042,0.215,0.385
2043,0.265,0.425
2044,0.305,0.465
2045,0.355,0.485
2046,0.385,0.525
2047,0.385,0.515
2048,0.385,0.495
2049,0.335,0.465
2050,0.285,0.385
2051,0.175,0.285
2052,0.095,0.175
2053,0.015,0.075
2054,-0.065,-0.005
2055,-0.085,-0.065
2056,-0.125,-0.105
2057,-0.155,-0.135
2058,-0.175,-0.155
2059,-0.165,-0.165
2060,-0.175,-0.175
2061,-0.135,-0.185
2062,-0.165,-0.175
2063,-0.175,-0.175
2064,-0.165,-0.175
2065,-0.155,-0.155
2066,-0.135,-0.145
2067,-0.145,-0.145
2068,-0.115,-0.155
2069,-0.125,-0.145
2070,-0.175,-0.135
2071,-0.135,-0.145
2072,-0.145,-0.145
2073,-0.115,-0.145
2074,-0.095,-0.135
2075,-0.085,-0.155
2076,-0.105,-0.135
2077,-0.045,-0.135
2078,-0.025,-0.095
2079,-0.025,-0.085
2080,0.005,-0.085
2081,0.065,-0.075
2082,-0.005,-0.085
2083,0.005,-0.155
2084,-0.015,-0.165
2085,-0.035,-0.135
2086,-0.165,-0.155
2087,-0.185,-0.205
2088,-0.185,-0.185
2089,-0.185,-0.205
2090,-0.185,-0.205
2091,-0.205,-0.205
2092,-0.185,-0.195
2093,-0.195,-0.205
2094,-0.175,-0.185
2095,-0.175,-0.195
2096,-0.185,-0.195
2097,-0.265,-0.195
2098,-0.595,-0.155
2099,-0.455,-0.095
2100,0.555,-0.085
2101,1.585,0.145
2102,0.925,-0.085
2103,-0.285,-1.195
2104,-0.715,-2.095
2105,-0.355,-1.825
2106,-0.065,-0.985
2107,-0.095,-0.325
2108,-0.135,-0.105
2109,-0.125,-0.025
2110,-0.115,0.025
2111,-0.115,0.045
2112,-0.085,0.065
2113,-0.045,0.105
2114,-0.055,0.125
2115,-0.085,0.135
2116,-0.035,0.145
2117,-0.005,0.175
2118,0.045,0.205
2119,0.065,0.225
2120,0.095,0.265
2121,0.095,0.305
2122,0.145,0.355
2123,0.235,0.405
2124,0.305,0.475
2125,0.345,0.545
2126,0.425,0.565
2127,0.415,0.585
2128,0.435,0.575
2129,0.425,0.565
2130,0.385,0.535
2131,0.315,0.465
2132,0.195,0.355
2133,0.115,0.225
2134,0.045,0.105
2135,-0.045,0.005
2136,-0.105,-0.055
2137,-0.145,-0.085
2138,-0.135,-0.135
2139,-0.155,-0.135
2140,-0.175,-0.165
2141,-0.175,-0.165
2142,-0.165,-0.165
2143,-0.135,-0.165
2144,-0.175,-0.145
2145,-0.185,-0.155
2146,-0.155,-0.175
2147,-0.145,-0.145
2148,-0.185,-0.145
2149,-0.135,-0.155
2150,-0.135,-0.125
2151,-0.145,-0.125
2152,-0.155,-0.145
2153,-0.145,-0.135
2154,-0.145,-0.135
2155,-0.135,-0.145
2156,-0.145,-0.135
2157,-0.135,-0.145
2158,-0.125,-0.135
2159,-0.065,-0.135
2160,-0.085,-0.085
2161,-0.055,-0.075
2162,-0.025,-0.085
2163,0.005,-0.065
2164,0.015,-0.085
2165,-0.015,-0.135
2166,0.025,-0.155
2167,-0.055,-0.125
2168,-0.185,-0.155
2169,-0.185,-0.175
2170,-0.165,-0.165
2171,-0.235,-0.185
2172,-0.235,-0.205
2173,-0.215,-0.195
2174,-0.215,-0.185
2175,-0.195,-0.185
2176,-0.175,-0.175
2177,-0.215,-0.175
2178,-0.235,-0.165
2179,-0.255,-0.165
2180,-0.505,-0.165
2181,-0.585,-0.105
2182,0.115,-0.055
2183,1.375,0.015
2184,1.345,0.105
2185,0.035,-0.605
2186,-0.655,-1.595
2187,-0.635,-1.825
2188,-0.165,-1.365
2189,-0.095,-0.615
2190,-0.115,-0.185
2191,-0.145,-0.035
2192,-0.165,0.015
2193,-0.095,0.045
2194,-0.105,0.085
2195,-0.095,0.085
2196,-0.055,0.105
2197,-0.065,0.105
2198,-0.075,0.125
2199,-0.055,0.145
2200,-0.035,0.155
2201,0.035,0.185
2202,0.035,0.235
2203,0.045,0.265
2204,0.085,0.285
2205,0.125,0.325
2206,0.235,0.385
2207,0.275,0.435
2208,0.295,0.495
2209,0.355,0.525
2210,0.375,0.565
2211,0.425,0.585
2212,0.385,0.565
2213,0.375,0.525
2214,0.335,0.485
2215,0.205,0.385
2216,0.105,0.265
2217,0.025,0.145
2218,-0.065,0.055
2219,-0.115,-0.015
2220,-0.135,-0.075
2221,-0.195,-0.095
2222,-0.155,-0.125
2223,-0.165,-0.145
2224,-0.195,-0.145
2225,-0.185,-0.155
2226,-0.185,-0.145
2227,-0.185,-0.145
2228,-0.185,-0.135
2229,-0.175,-0.125
2230,-0.155,-0.125
2231,-0.185,-0.125
2232,-0.165,-0.135
2233,-0.175,-0.115
2234,-0.135,-0.135
2235,-0.165,-0.125
2236,-0.165,-0.135
2237,-0.145,-0.115
2238,-0.175,-0.125
2239,-0.185,-0.135
2240,-0.205,-0.135
2241,-0.115,-0.125
2242,-0.075,-0.095
2243,-0.115,-0.065
2244,-0.085,-0.085
2245,-0.015,-0.055
2246,-0.005,-0.065
2247,-0.055,-0.085
2248,-0.035,-0.135
2249,-0.025,-0.125
2250,-0.105,-0.125
2251,-0.185,-0.145
2252,-0.255,-0.175
2253,-0.255,-0.175
2254,-0.225,-0.185
2255,-0.255,-0.185
2256,-0.255,-0.185
2257,-0.215,-0.185
2258,-0.205,-0.175
2259,-0.225,-0.165
2260,-0.235,-0.165
2261,-0.195,-0.175
2262,-0.325,-0.155
2263,-0.615,-0.145
2264,-0.485,-0.045
2265,0.415,-0.025
2266,1.505,0.055
2267,0.945,0.115
2268,-0.315,-0.845
2269,-0.705,-1.865
2270,-0.605,-1.925
2271,-0.235,-1.405
2272,-0.195,-0.635
2273,-0.165,-0.225
2274,-0.155,-0.055
2275,-0.125,0.005
2276,-0.135,0.025
2277,-0.105,0.055
2278,-0.125,0.065
2279,-0.115,0.085
2280,-0.075,0.105
2281,-0.045,0.135
2282,-0.045,0.145
2283,-0.015,0.155
2284,0.015,0.185
2285,0.055,0.215
2286,0.075,0.255
2287,0.125,0.285
2288,0.175,0.325
2289,0.235,0.375
2290,0.315,0.435
2291,0.305,0.475
2292,0.385,0.495
2293,0.425,0.505
2294,0.435,0.505
2295,0.395,0.485
2296,0.325,0.425
2297,0.255,0.385
2298,0.185,0.305
2299,0.115,0.225
2300,0.035,0.125
2301,-0.025,0.045
2302,-0.115,-0.005
2303,-0.165,-0.065
2304,-0.175,-0.095
2305,-0.175,-0.105
2306,-0.205,-0.105
2307,-0.195,-0.145
2308,-0.185,-0.145
2309,-0.185,-0.125
2310,-0.205,-0.125
2311,-0.215,-0.125
2312,-0.175,-0.125
2313,-0.135,-0.115
2314,-0.155,-0.105
2315,-0.185,-0.105
2316,-0.195,-0.125
2317,-0.195,-0.105
2318,-0.165,-0.115
2319,-0.155,-0.115
2320,-0.145,-0.115
2321,-0.155,-0.115
2322,-0.175,-0.115
2323,-0.185,-0.135
2324,-0.145,-0.125
2325,-0.105,-0.105
2326,-0.095,-0.095
2327,-0.085,-0.065
2328,-0.005,-0.065
2329,0.005,-0.035
2330,-0.025,-0.065
2331,-0.035,-0.105
2332,-0.025,-0.135
2333,-0.055,-0.115
2334,-0.165,-0.115
2335,-0.175,-0.155
2336,-0.265,-0.165
2337,-0.235,-0.195
2338,-0.205,-0.185
2339,-0.205,-0.175
2340,-0.235,-0.185
2341,-0.235,-0.185
2342,-0.215,-0.175
2343,-0.235,-0.175
2344,-0.185,-0.175
2345,-0.245,-0.175
2346,-0.495,-0.135
2347,-0.495,-0.055
2348,0.245,-0.005
2349,1.255,0.065
2350,0.965,0.135
2351,-0.115,-0.745
2352,-0.585,-1.805
2353,-0.545,-1.915
2354,-0.245,-1.375
2355,-0.155,-0.625
2356,-0.145,-0.225
2357,-0.125,-0.065
2358,-0.105,0.015
2359,-0.105,0.045
2360,-0.075,0.045
2361,-0.065,0.085
2362,-0.075,0.095
2363,-0.045,0.105
2364,-0.035,0.125
2365,-0.035,0.145
2366,0.005,0.155
2367,0.035,0.185
2368,0.045,0.205
2369,0.055,0.235
2370,0.105,0.295
2371,0.135,0.335
2372,0.185,0.365
2373,0.195,0.445
2374,0.215,0.485
2375,0.235,0.485
2376,0.245,0.495
2377,0.275,0.485
2378,0.275,0.465
2379,0.225,0.445
2380,0.185,0.375
2381,0.135,0.285
2382,0.055,0.185
2383,0.005,0.085
2384,-0.025,-0.005
2385,-0.055,-0.045
2386,-0.105,-0.085
2387,-0.105,-0.125
2388,-0.125,-0.145
2389,-0.135,-0.155
2390,-0.145,-0.165
2391,-0.135,-0.165
2392,-0.135,-0.155
2393,-0.145,-0.145
2394,-0.115,-0.145
2395,-0.115,-0.135
2396,-0.145,-0.135
2397,-0.145,-0.145
2398,-0.135,-0.135
2399,-0.115,-0.135
2400,-0.145,-0.135
2401,-0.125,-0.125
2402,-0.145,-0.135
2403,-0.145,-0.145
2404,-0.155,-0.145
2405,-0.125,-0.135
2406,-0.115,-0.125
2407,-0.085,-0.115
2408,-0.095,-0.095
2409,-0.055,-0.085
2410,-0.005,-0.085
2411,-0.025,-0.065
2412,-0.055,-0.135
2413,-0.025,-0.175
2414,-0.045,-0.145
2415,-0.145,-0.145
2416,-0.215,-0.195
2417,-0.185,-0.205
2418,-0.215,-0.195
2419,-0.215,-0.205
2420,-0.245,-0.215
2421,-0.215,-0.215
2422,-0.195,-0.205
2423,-0.205,-0.195
2424,-0.245,-0.185
2425,-0.235,-0.195
2426,-0.185,-0.195
2427,-0.275,-0.185
2428,-0.585,-0.165
2429,-0.495,-0.115
2430,0.295,-0.065
2431,1.335,0.075
2432,0.995,0.045
2433,-0.135,-0.925
2434,-0.615,-1.995
2435,-0.465,-1.975
2436,-0.145,-1.335
2437,-0.145,-0.505
2438,-0.145,-0.155
2439,-0.135,-0.035
2440,-0.155,0.005
2441,-0.145,0.015
2442,-0.095,0.055
2443,-0.105,0.085
2444,-0.095,0.085
2445,-0.085,0.105
2446,-0.075,0.115
2447,-0.045,0.125
2448,-0.025,0.165
2449,0.025,0.185
2450,0.035,0.235
2451,0.055,0.265
2452,0.125,0.285
2453,0.185,0.355
2454,0.225,0.415
2455,0.275,0.465
2456,0.325,0.495
2457,0.375,0.525
2458,0.355,0.545
2459,0.335,0.525
2460,0.345,0.495
2461,0.325,0.465
2462,0.265,0.405
2463,0.145,0.315
2464,0.055,0.195
2465,-0.005,0.075
2466,-0.085,0.015
2467,-0.125,-0.055
2468,-0.185,-0.115
2469,-0.185,-0.155
2470,-0.185,-0.165
2471,-0.175,-0.175
2472,-0.225,-0.175
2473,-0.215,-0.185
2474,-0.205,-0.185
2475,-0.205,-0.175
2476,-0.195,-0.185
2477,-0.215,-0.165
2478,-0.205,-0.175
2479,-0.185,-0.165
2480,-0.175,-0.175
2481,-0.155,-0.155
2482,-0.185,-0.145
2483,-0.215,-0.145
2484,-0.185,-0.165
2485,-0.185,-0.165
2486,-0.155,-0.155
2487,-0.165,-0.155
2488,-0.115,-0.155
2489,-0.115,-0.115
2490,-0.095,-0.105
2491,-0.045,-0.105
2492,-0.015,-0.095
2493,-0.055,-0.115
2494,-0.065,-0.175
2495,-0.095,-0.185
2496,-0.125,-0.175
2497,-0.205,-0.175
2498,-0.235,-0.195
2499,-0.225,-0.215
2500,-0.265,-0.215
2501,-0.225,-0.235
2502,-0.235,-0.215
2503,-0.285,-0.205
2504,-0.255,-0.235
2505,-0.215,-0.215
2506,-0.255,-0.195
2507,-0.245,-0.205
2508,-0.265,-0.215
2509,-0.455,-0.205
2510,-0.695,-0.165
2511,-0.215,-0.105
2512,1.135,-0.065
2513,1.375,0.105
2514,0.035,-0.575
2515,-0.665,-1.735
2516,-0.615,-2.055
2517,-0.185,-1.495
2518,-0.115,-0.675
2519,-0.165,-0.215
2520,-0.235,-0.065
2521,-0.195,-0.015
2522,-0.145,0.025
2523,-0.155,0.055
2524,-0.175,0.065
2525,-0.115,0.085
2526,-0.085,0.105
2527,-0.125,0.135
2528,-0.075,0.145
2529,-0.065,0.165
2530,-0.055,0.205
2531,-0.045,0.225
2532,0.035,0.255
2533,0.075,0.305
2534,0.115,0.375
2535,0.145,0.425
2536,0.235,0.455
2537,0.235,0.515
2538,0.315,0.555
2539,0.345,0.575
2540,0.345,0.555
2541,0.325,0.545
2542,0.325,0.505
2543,0.175,0.445
2544,0.125,0.345
2545,0.075,0.225
2546,-0.075,0.145
2547,-0.175,0.055
2548,-0.235,-0.035
2549,-0.225,-0.095
2550,-0.225,-0.125
2551,-0.235,-0.155
2552,-0.215,-0.175
2553,-0.225,-0.165
2554,-0.265,-0.155
2555,-0.235,-0.175
2556,-0.285,-0.175
2557,-0.255,-0.165
2558,-0.245,-0.155
2559,-0.285,-0.165
2560,-0.245,-0.155
2561,-0.195,-0.155
2562,-0.295,-0.155
2563,-0.265,-0.165
2564,-0.215,-0.155
2565,-0.275,-0.155
2566,-0.255,-0.165
2567,-0.235,-0.155
2568,-0.245,-0.165
2569,-0.215,-0.165
2570,-0.225,-0.145
2571,-0.175,-0.125
2572,-0.185,-0.115
2573,-0.145,-0.115
2574,-0.075,-0.105
2575,-0.105,-0.095
2576,-0.175,-0.145
2577,-0.165,-0.175
2578,-0.125,-0.155
2579,-0.215,-0.155
2580,-0.295,-0.175
2581,-0.295,-0.215
2582,-0.345,-0.215
2583,-0.325,-0.225
2584,-0.345,-0.235
2585,-0.315,-0.225
2586,-0.315,-0.225
2587,-0.335,-0.225
2588,-0.325,-0.225
2589,-0.295,-0.215
2590,-0.295,-0.215
2591,-0.575,-0.185
2592,-0.705,-0.155
2593,-0.125,-0.055
2594,1.045,-0.035
2595,1.125,0.025
2596,-0.045,-0.585
2597,-0.685,-1.595
2598,-0.785,-1.905
2599,-0.475,-1.565
2600,-0.315,-0.915
2601,-0.295,-0.375
2602,-0.265,-0.145
2603,-0.245,-0.045
2604,-0.235,-0.015
2605,-0.305,0.005
2606,-0.225,0.025
2607,-0.205,0.055
2608,-0.255,0.055
2609,-0.155,0.075
2610,-0.175,0.105
2611,-0.155,0.115
2612,-0.085,0.125
2613,-0.045,0.165
2614,-0.065,0.205
2615,-0.055,0.235
2616,0.085,0.265
2617,0.135,0.325
2618,0.125,0.365
2619,0.205,0.385
2620,0.255,0.405
2621,0.215,0.405
2622,0.245,0.405
2623,0.245,0.365
2624,0.145,0.335
2625,0.125,0.265
2626,-0.035,0.205
2627,-0.105,0.105
2628,-0.155,0.045
2629,-0.195,-0.015
2630,-0.285,-0.065
2631,-0.335,-0.095
2632,-0.325,-0.125
2633,-0.355,-0.125
2634,-0.335,-0.125
2635,-0.345,-0.135
2636,-0.365,-0.145
2637,-0.335,-0.135
2638,-0.355,-0.115
2639,-0.355,-0.115
2640,-0.335,-0.115
2641,-0.325,-0.105
2642,-0.355,-0.095
2643,-0.285,-0.105
2644,-0.315,-0.095
2645,-0.335,-0.095
2646,-0.305,-0.085
2647,-0.305,-0.095
2648,-0.315,-0.095
2649,-0.275,-0.085
2650,-0.215,-0.075
2651,-0.215,-0.065
2652,-0.225,-0.065
2653,-0.195,-0.055
2654,-0.145,-0.045
2655,-0.185,-0.055
2656,-0.175,-0.075
2657,-0.175,-0.085
2658,-0.175,-0.075
2659,-0.275,-0.075
2660,-0.345,-0.095
2661,-0.345,-0.115
2662,-0.365,-0.115
2663,-0.335,-0.125
2664,-0.345,-0.125
2665,-0.345,-0.125
2666,-0.345,-0.115
2667,-0.335,-0.125
2668,-0.375,-0.135
2669,-0.315,-0.135
2670,-0.295,-0.135
2671,-0.535,-0.135
2672,-0.715,-0.115
2673,-0.345,-0.025
2674,0.665,-0.015
2675,1.475,0.075
2676,0.495,0.005
2677,-0.535,-0.865
2678,-0.845,-1.575
2679,-0.585,-1.525
2680,-0.295,-1.075
2681,-0.235,-0.475
2682,-0.235,-0.195
2683,-0.215,-0.055
2684,-0.165,-0.005
2685,-0.215,0.035
2686,-0.215,0.045
2687,-0.155,0.065
2688,-0.135,0.075
2689,-0.085,0.085
2690,-0.095,0.125
2691,-0.075,0.125
2692,-0.035,0.145
2693,-0.015,0.165
2694,0.045,0.205
2695,0.085,0.225
2696,0.115,0.285
2697,0.125,0.325
2698,0.195,0.385
2699,0.295,0.425
2700,0.345,0.475
2701,0.355,0.485
2702,0.385,0.505
2703,0.375,0.485
2704,0.355,0.445
2705,0.345,0.405
2706,0.225,0.355
2707,0.125,0.265
2708,0.065,0.165
2709,0.015,0.075
2710,-0.055,0.005
2711,-0.105,-0.055
2712,-0.135,-0.085
2713,-0.155,-0.115
2714,-0.145,-0.135
2715,-0.145,-0.135
2716,-0.225,-0.155
2717,-0.205,-0.155
2718,-0.135,-0.145
2719,-0.155,-0.125
2720,-0.105,-0.135
2721,-0.105,-0.135
2722,-0.145,-0.125
2723,-0.125,-0.125
2724,-0.115,-0.125
2725,-0.105,-0.105
2726,-0.125,-0.115
2727,-0.125,-0.115
2728,-0.105,-0.125
2729,-0.085,-0.115
2730,-0.045,-0.095
2731,-0.015,-0.065
2732,-0.005,-0.065
2733,0.005,-0.065
2734,0.075,-0.045
2735,0.025,-0.045
2736,0.015,-0.105
2737,0.025,-0.135
2738,0.035,-0.125
2739,-0.015,-0.115
2740,-0.105,-0.135
2741,-0.125,-0.165
2742,-0.155,-0.165
2743,-0.185,-0.195
2744,-0.125,-0.195
2745,-0.115,-0.175
2746,-0.135,-0.175
2747,-0.145,-0.175
2748,-0.125,-0.175
2749,-0.095,-0.165
2750,-0.085,-0.155
2751,-0.205,-0.155
2752,-0.495,-0.155
2753,-0.425,-0.085
2754,0.575,-0.035
2755,1.665,0.185
2756,1.045,-0.015
2757,-0.175,-1.125
2758,-0.545,-2.095
2759,-0.315,-1.895
2760,-0.025,-1.145
2761,-0.005,-0.365
2762,-0.025,-0.105
2763,-0.035,-0.005
2764,-0.045,0.035
2765,-0.025,0.075
2766,-0.055,0.115
2767,-0.015,0.105
2768,-0.035,0.125
2769,0.045,0.145
2770,0.075,0.165
2771,0.085,0.205
2772,0.115,0.215
2773,0.085,0.265
2774,0.145,0.275
2775,0.225,0.305
2776,0.215,0.345
2777,0.255,0.405
2778,0.305,0.465
2779,0.365,0.505
2780,0.385,0.545
2781,0.475,0.595
2782,0.495,0.625
2783,0.525,0.605
2784,0.465,0.575
2785,0.455,0.535
2786,0.375,0.475
2787,0.265,0.345
2788,0.145,0.215
2789,0.115,0.115
2790,0.005,0.035
2791,-0.005,-0.035
2792,-0.065,-0.095
2793,-0.075,-0.115
2794,-0.035,-0.135
2795,-0.075,-0.135
2796,-0.075,-0.135
2797,-0.115,-0.145
2798,-0.105,-0.145
2799,-0.055,-0.155
2800,-0.035,-0.135
2801,-0.075,-0.135
2802,-0.055,-0.135
2803,-0.075,-0.135
2804,-0.065,-0.145
2805,-0.035,-0.125
2806,-0.025,-0.115
2807,-0.045,-0.125
2808,-0.065,-0.125
2809,-0.065,-0.125
2810,0.015,-0.125
2811,0.085,-0.105
2812,0.035,-0.065
2813,0.065,-0.065
2814,0.095,-0.055
2815,0.125,-0.065
2816,0.095,-0.105
2817,0.115,-0.145
2818,0.065,-0.125
2819,0.045,-0.135
2820,-0.055,-0.145
2821,-0.115,-0.185
2822,-0.095,-0.185
2823,-0.105,-0.195
2824,-0.085,-0.195
2825,-0.105,-0.195
2826,-0.095,-0.185
2827,-0.065,-0.175
2828,-0.105,-0.195
2829,-0.055,-0.185
2830,-0.075,-0.175
2831,-0.155,-0.175
2832,-0.485,-0.175
2833,-0.465,-0.125
2834,0.435,-0.075
2835,1.645,0.125
2836,1.165,0.065
2837,-0.065,-1.055
2838,-0.515,-2.115
2839,-0.305,-1.925
2840,0.035,-1.215
2841,0.065,-0.435
2842,-0.005,-0.125
2843,-0.035,-0.015
2844,-0.005,0.035
2845,-0.005,0.075
2846,0.025,0.085
2847,0.045,0.105
2848,0.045,0.135
2849,0.055,0.155
2850,0.095,0.145
2851,0.105,0.185
2852,0.125,0.205
2853,0.155,0.235
2854,0.185,0.245
2855,0.225,0.295
2856,0.245,0.355
2857,0.305,0.385
2858,0.355,0.445
2859,0.415,0.505
2860,0.475,0.565
2861,0.515,0.605
2862,0.505,0.605
2863,0.515,0.595
2864,0.485,0.565
2865,0.435,0.535
2866,0.425,0.475
2867,0.345,0.365
2868,0.235,0.245
2869,0.095,0.125
2870,0.045,0.015
2871,0.015,-0.045
2872,-0.015,-0.095
2873,-0.055,-0.115
2874,-0.045,-0.145
2875,-0.075,-0.155
2876,-0.075,-0.175
2877,-0.065,-0.175
2878,-0.085,-0.165
2879,-0.095,-0.165
2880,-0.085,-0.175
2881,-0.075,-0.155
2882,-0.065,-0.155
2883,-0.075,-0.155
2884,-0.085,-0.155
2885,-0.075,-0.165
2886,-0.055,-0.155
2887,-0.085,-0.145
2888,-0.065,-0.165
2889,-0.035,-0.145
2890,-0.045,-0.135
2891,-0.025,-0.135
2892,-0.015,-0.105
2893,-0.025,-0.085
2894,0.035,-0.115
2895,0.075,-0.085
2896,0.045,-0.095
2897,0.015,-0.135
2898,0.045,-0.165
2899,0.035,-0.145
2900,-0.055,-0.175
2901,-0.105,-0.205
2902,-0.145,-0.215
2903,-0.155,-0.225
2904,-0.135,-0.235
2905,-0.185,-0.215
2906,-0.115,-0.225
2907,-0.115,-0.225
2908,-0.135,-0.215
2909,-0.175,-0.215
2910,-0.155,-0.215
2911,-0.135,-0.195
2912,-0.335,-0.195
2913,-0.485,-0.155
2914,-0.125,-0.075
2915,0.965,-0.055
2916,1.485,0.135
2917,0.555,-0.345
2918,-0.375,-1.445
2919,-0.605,-2.055
2920,-0.355,-1.725
2921,-0.145,-1.015
2922,-0.105,-0.385
2923,-0.085,-0.135
2924,-0.085,-0.045
2925,-0.055,-0.005
2926,-0.085,0.015
2927,-0.095,0.035
2928,-0.025,0.045
2929,-0.035,0.075
2930,-0.065,0.095
2931,-0.015,0.085
2932,0.015,0.115
2933,0.095,0.145
2934,0.085,0.175
2935,0.095,0.205
2936,0.135,0.235
2937,0.175,0.285
2938,0.255,0.355
2939,0.335,0.395
2940,0.365,0.445
2941,0.385,0.465
2942,0.465,0.465
2943,0.415,0.485
2944,0.425,0.455
2945,0.455,0.425
2946,0.355,0.385
2947,0.255,0.295
2948,0.145,0.205
2949,0.035,0.115
2950,-0.015,0.025
2951,-0.125,-0.055
2952,-0.085,-0.105
2953,-0.165,-0.135
2954,-0.165,-0.145
2955,-0.175,-0.165
2956,-0.205,-0.175
2957,-0.205,-0.175
2958,-0.145,-0.175
2959,-0.175,-0.155
2960,-0.215,-0.175
2961,-0.225,-0.155
2962,-0.205,-0.145
2963,-0.155,-0.155
2964,-0.185,-0.155
2965,-0.195,-0.135
2966,-0.155,-0.135
2967,-0.165,-0.125
2968,-0.135,-0.145
2969,-0.185,-0.135
2970,-0.125,-0.145
2971,-0.115,-0.105
2972,-0.095,-0.095
2973,-0.125,-0.075
2974,-0.045,-0.085
2975,0.025,-0.065
2976,-0.035,-0.085
2977,-0.055,-0.145
2978,-0.065,-0.165
2979,-0.025,-0.135
2980,-0.085,-0.135
2981,-0.245,-0.165
2982,-0.255,-0.215
2983,-0.215,-0.195
2984,-0.225,-0.205
2985,-0.225,-0.205
2986,-0.225,-0.195
2987,-0.225,-0.205
2988,-0.195,-0.195
2989,-0.215,-0.195
2990,-0.245,-0.195
2991,-0.215,-0.185
2992,-0.255,-0.175
2993,-0.565,-0.165
2994,-0.545,-0.045
2995,0.225,0.015
2996,1.405,0.105
2997,1.245,0.145
2998,-0.145,-0.875
2999,-0.705,-1.945
3000,-0.605,-1.925
3001,-0.225,-1.245
3002,-0.155,-0.445
3003,-0.165,-0.155
3004,-0.145,-0.025
3005,-0.165,0.015
3006,-0.135,0.035
3007,-0.095,0.035
3008,-0.095,0.055
3009,-0.055,0.075
3010,-0.085,0.105
3011,-0.055,0.115
3012,-0.015,0.125
3013,0.015,0.145
3014,0.045,0.185
3015,0.055,0.225
3016,0.085,0.245
3017,0.135,0.295
3018,0.165,0.345
3019,0.245,0.385
3020,0.315,0.425
3021,0.355,0.475
3022,0.395,0.485
3023,0.405,0.485
3024,0.345,0.465
3025,0.355,0.445
3026,0.285,0.395
3027,0.195,0.315
3028,0.105,0.205
3029,0.035,0.135
3030,-0.045,0.045
3031,-0.105,-0.015
3032,-0.185,-0.075
3033,-0.165,-0.115
3034,-0.195,-0.125
3035,-0.235,-0.145
3036,-0.195,-0.155
3037,-0.195,-0.145
3038,-0.215,-0.145
3039,-0.195,-0.135
3040,-0.185,-0.135
3041,-0.185,-0.125
3042,-0.205,-0.125
3043,-0.165,-0.125
3044,-0.195,-0.115
3045,-0.185,-0.115
3046,-0.225,-0.105
3047,-0.185,-0.115
3048,-0.155,-0.115
3049,-0.135,-0.105
3050,-0.135,-0.105
3051,-0.105,-0.085
3052,-0.085,-0.065
3053,-0.075,-0.055
3054,-0.065,-0.045
3055,-0.005,-0.045
3056,-0.065,-0.085
3057,-0.065,-0.145
3058,-0.045,-0.135
3059,-0.085,-0.125
3060,-0.185,-0.135
3061,-0.195,-0.165
3062,-0.235,-0.145
3063,-0.285,-0.175
3064,-0.245,-0.195
3065,-0.235,-0.185
3066,-0.205,-0.175
3067,-0.255,-0.165
3068,-0.265,-0.175
3069,-0.205,-0.175
3070,-0.195,-0.155
3071,-0.245,-0.145
3072,-0.525,-0.165
3073,-0.635,-0.115
3074,-0.025,-0.045
3075,1.275,0.075
3076,1.485,0.265
3077,0.085,-0.555
3078,-0.635,-1.875
3079,-0.625,-2.035
3080,-0.105,-1.375
3081,-0.075,-0.475
3082,-0.125,-0.105
3083,-0.165,0.015
3084,-0.125,0.045
3085,-0.125,0.085
3086,-0.105,0.095
3087,-0.135,0.105
3088,-0.085,0.115
3089,-0.035,0.145
3090,-0.045,0.165
3091,-0.075,0.175
3092,-0.015,0.185
3093,0.005,0.225
3094,0.045,0.265
3095,0.095,0.295
3096,0.095,0.335
3097,0.145,0.385
3098,0.185,0.445
3099,0.295,0.505
3100,0.325,0.525
3101,0.395,0.585
3102,0.365,0.605
3103,0.355,0.595
3104,0.415,0.585
3105,0.365,0.565
3106,0.285,0.495
3107,0.175,0.405
3108,0.145,0.275
3109,0.015,0.175
3110,0.005,0.065
3111,-0.075,-0.005
3112,-0.135,-0.075
3113,-0.175,-0.095
3114,-0.135,-0.125
3115,-0.205,-0.115
3116,-0.135,-0.135
3117,-0.175,-0.125
3118,-0.195,-0.155
3119,-0.185,-0.145
3120,-0.165,-0.135
3121,-0.195,-0.125
3122,-0.165,-0.125
3123,-0.135,-0.115
3124,-0.165,-0.125
3125,-0.195,-0.115
3126,-0.145,-0.115
3127,-0.145,-0.105
3128,-0.145,-0.115
3129,-0.125,-0.105
3130,-0.095,-0.095
3131,-0.085,-0.075
3132,-0.065,-0.055
3133,-0.055,-0.055
3134,0.005,-0.025
3135,-0.005,-0.055
3136,-0.085,-0.095
3137,-0.005,-0.155
3138,-0.055,-0.115
3139,-0.095,-0.115
3140,-0.185,-0.135
3141,-0.175,-0.175
3142,-0.195,-0.155
3143,-0.215,-0.185
3144,-0.205,-0.185
3145,-0.205,-0.165
3146,-0.255,-0.165
3147,-0.205,-0.175
3148,-0.225,-0.175
3149,-0.185,-0.155
3150,-0.185,-0.155
3151,-0.305,-0.155
3152,-0.595,-0.155
3153,-0.445,-0.085
3154,0.445,-0.045
3155,1.505,0.185
3156,1.055,0.145
3157,-0.165,-0.895
3158,-0.605,-2.015
3159,-0.465,-1.855
3160,-0.115,-1.235
3161,-0.105,-0.465
3162,-0.145,-0.135
3163,-0.165,-0.005
3164,-0.105,0.025
3165,-0.095,0.065
3166,-0.085,0.105
3167,-0.095,0.125
3168,-0.115,0.125
3169,-0.085,0.145
3170,-0.035,0.165
3171,-0.045,0.185
3172,-0.015,0.205
3173,0.035,0.225
3174,0.055,0.275
3175,0.065,0.315
3176,0.125,0.335
3177,0.165,0.395
3178,0.215,0.455
3179,0.245,0.505
3180,0.315,0.535
3181,0.355,0.575
3182,0.375,0.595
3183,0.415,0.615
3184,0.385,0.585
3185,0.375,0.545
3186,0.305,0.505
3187,0.215,0.375
3188,0.055,0.265
3189,-0.045,0.125
3190,-0.095,0.035
3191,-0.165,-0.025
3192,-0.165,-0.085
3193,-0.215,-0.095
3194,-0.215,-0.115
3195,-0.205,-0.135
3196,-0.195,-0.135
3197,-0.165,-0.125
3198,-0.215,-0.125
3199,-0.215,-0.145
3200,-0.215,-0.125
3201,-0.205,-0.135
3202,-0.205,-0.115
3203,-0.205,-0.115
3204,-0.195,-0.105
3205,-0.185,-0.095
3206,-0.155,-0.105
3207,-0.235,-0.105
3208,-0.155,-0.125
3209,-0.135,-0.115
3210,-0.105,-0.085
3211,-0.115,-0.045
3212,-0.075,-0.055
3213,-0.065,-0.055
3214,-0.045,-0.045
3215,-0.045,-0.065
3216,-0.055,-0.125
3217,-0.045,-0.125
3218,-0.075,-0.115
3219,-0.225,-0.125
3220,-0.215,-0.175
3221,-0.255,-0.165
3222,-0.285,-0.185
3223,-0.255,-0.185
3224,-0.225,-0.175
3225,-0.265,-0.175
3226,-0.265,-0.175
3227,-0.245,-0.175
3228,-0.245,-0.175
3229,-0.205,-0.165
3230,-0.255,-0.165
3231,-0.625,-0.145
3232,-0.675,-0.115
3233,-0.045,-0.065
3234,1.205,0.025
3235,1.445,0.185
3236,0.115,-0.525
3237,-0.635,-1.655
3238,-0.665,-1.905
3239,-0.215,-1.405
3240,-0.185,-0.615
3241,-0.165,-0.195
3242,-0.145,-0.045
3243,-0.145,0.025
3244,-0.185,0.045
3245,-0.155,0.065
3246,-0.155,0.085
3247,-0.115,0.095
3248,-0.135,0.105
3249,-0.125,0.125
3250,-0.035,0.165
3251,-0.035,0.185
3252,-0.035,0.185
3253,0.035,0.215
3254,0.065,0.265
3255,0.055,0.305
3256,0.105,0.325
3257,0.205,0.385
3258,0.245,0.455
3259,0.355,0.505
3260,0.345,0.525
3261,0.385,0.525
3262,0.335,0.545
3263,0.435,0.505
3264,0.365,0.485
3265,0.315,0.445
3266,0.245,0.375
3267,0.085,0.265
3268,0.035,0.135
3269,-0.045,0.065
3270,-0.085,0.005
3271,-0.175,-0.055
3272,-0.185,-0.105
3273,-0.205,-0.125
3274,-0.195,-0.125
3275,-0.225,-0.135
3276,-0.245,-0.145
3277,-0.235,-0.145
3278,-0.215,-0.145
3279,-0.225,-0.125
3280,-0.235,-0.145
3281,-0.205,-0.135
3282,-0.175,-0.105
3283,-0.205,-0.105
3284,-0.225,-0.125
3285,-0.195,-0.115
3286,-0.185,-0.095
3287,-0.205,-0.115
3288,-0.185,-0.125
3289,-0.135,-0.115
3290,-0.125,-0.075
3291,-0.115,-0.065
3292,-0.095,-0.075
3293,-0.095,-0.065
3294,-0.045,-0.045
3295,-0.065,-0.065
3296,-0.045,-0.135
3297,-0.035,-0.125
3298,-0.085,-0.115
3299,-0.235,-0.145
3300,-0.235,-0.185
3301,-0.245,-0.165
3302,-0.275,-0.175
3303,-0.265,-0.185
3304,-0.285,-0.185
3305,-0.255,-0.185
3306,-0.235,-0.175
3307,-0.255,-0.175
3308,-0.225,-0.175
3309,-0.235,-0.155
3310,-0.325,-0.165
3311,-0.635,-0.135
3312,-0.545,-0.045
3313,0.385,0.005
3314,1.545,0.105
3315,0.875,0.005
3316,-0.415,-1.025
3317,-0.815,-1.795
3318,-0.655,-1.655
3319,-0.245,-1.115
3320,-0.165,-0.455
3321,-0.215,-0.185
3322,-0.185,-0.065
3323,-0.135,-0.005
3324,-0.125,0.025
3325,-0.115,0.045
3326,-0.135,0.065
3327,-0.145,0.085
3328,-0.095,0.085
3329,-0.105,0.105
3330,-0.035,0.135
3331,-0.015,0.145
3332,0.005,0.165
3333,0.045,0.185
3334,0.065,0.225
3335,0.125,0.265
3336,0.185,0.315
3337,0.205,0.365
3338,0.295,0.405
3339,0.335,0.445
3340,0.375,0.465
3341,0.365,0.475
3342,0.355,0.455
3343,0.365,0.445
3344,0.285,0.385
3345,0.215,0.325
3346,0.105,0.235
3347,0.055,0.145
3348,-0.055,0.045
3349,-0.085,-0.015
3350,-0.125,-0.065
3351,-0.155,-0.095
3352,-0.175,-0.135
3353,-0.205,-0.145
3354,-0.245,-0.155
3355,-0.215,-0.175
3356,-0.225,-0.175
3357,-0.215,-0.175
3358,-0.225,-0.155
3359,-0.185,-0.155
3360,-0.195,-0.135
3361,-0.215,-0.145
3362,-0.175,-0.135
3363,-0.185,-0.135
3364,-0.195,-0.145
3365,-0.235,-0.145
3366,-0.215,-0.135
3367,-0.165,-0.125
3368,-0.155,-0.125
3369,-0.105,-0.115
3370,-0.065,-0.085
3371,-0.105,-0.065
3372,-0.075,-0.085
3373,-0.025,-0.065
3374,-0.085,-0.085
3375,-0.095,-0.135
3376,-0.035,-0.175
3377,-0.075,-0.125
3378,-0.145,-0.145
3379,-0.245,-0.155
3380,-0.245,-0.205
3381,-0.265,-0.195
3382,-0.275,-0.195
3383,-0.245,-0.205
3384,-0.285,-0.195
3385,-0.265,-0.205
3386,-0.225,-0.195
3387,-0.265,-0.185
3388,-0.255,-0.205
3389,-0.255,-0.195
3390,-0.395,-0.185
3391,-0.665,-0.185
3392,-0.495,-0.115
3393,0.535,-0.085
3394,1.545,0.175
3395,0.855,-0.035
3396,-0.335,-1.125
3397,-0.705,-2.065
3398,-0.465,-1.825
3399,-0.145,-1.115
3400,-0.165,-0.385
3401,-0.195,-0.125
3402,-0.145,-0.045
3403,-0.135,0.005
3404,-0.205,0.005
3405,-0.165,0.015
3406,-0.135,0.055
3407,-0.095,0.065
3408,-0.095,0.095
3409,-0.115,0.085
3410,-0.115,0.105
3411,-0.025,0.145
3412,-0.015,0.175
3413,0.005,0.205
3414,0.015,0.255
3415,0.095,0.295
3416,0.145,0.355
3417,0.205,0.405
3418,0.275,0.445
3419,0.305,0.485
3420,0.315,0.495
3421,0.365,0.515
3422,0.345,0.515
3423,0.315,0.475
3424,0.275,0.415
3425,0.195,0.345
3426,0.085,0.205
3427,-0.015,0.095
3428,-0.135,-0.005
3429,-0.165,-0.085
3430,-0.175,-0.135
3431,-0.205,-0.175
3432,-0.195,-0.195
3433,-0.235,-0.185
3434,-0.265,-0.215
3435,-0.265,-0.215
3436,-0.275,-0.215
3437,-0.235,-0.215
3438,-0.235,-0.205
3439,-0.235,-0.205
3440,-0.215,-0.205
3441,-0.225,-0.185
3442,-0.225,-0.185
3443,-0.215,-0.195
3444,-0.225,-0.195
3445,-0.205,-0.175
3446,-0.205,-0.185
3447,-0.215,-0.185
3448,-0.175,-0.175
3449,-0.125,-0.135
3450,-0.165,-0.115
3451,-0.115,-0.145
3452,-0.045,-0.135
3453,-0.055,-0.145
3454,-0.105,-0.185
3455,-0.095,-0.215
3456,-0.125,-0.205
3457,-0.185,-0.205
3458,-0.295,-0.225
3459,-0.285,-0.255
3460,-0.265,-0.245
3461,-0.315,-0.265
3462,-0.345,-0.265
3463,-0.295,-0.265
3464,-0.305,-0.255
3465,-0.295,-0.245
3466,-0.335,-0.245
3467,-0.295,-0.235
3468,-0.245,-0.255
3469,-0.435,-0.245
3470,-0.735,-0.225
3471,-0.605,-0.145
3472,0.445,-0.145
3473,1.515,0.125
3474,0.845,-0.115
3475,-0.375,-1.225
3476,-0.765,-2.185
3477,-0.525,-1.915
3478,-0.175,-1.175
3479,-0.215,-0.445
3480,-0.245,-0.195
3481,-0.225,-0.085
3482,-0.245,-0.015
3483,-0.255,-0.015
3484,-0.205,-0.005
3485,-0.215,0.045
3486,-0.195,0.065
3487,-0.185,0.065
3488,-0.165,0.075
3489,-0.115,0.105
3490,-0.105,0.145
3491,-0.115,0.155
3492,-0.065,0.175
3493,-0.015,0.225
3494,0.015,0.295
3495,0.025,0.325
3496,0.095,0.375
3497,0.185,0.445
3498,0.235,0.495
3499,0.245,0.525
3500,0.285,0.535
3501,0.285,0.535
3502,0.285,0.515
3503,0.215,0.485
3504,0.135,0.385
3505,0.065,0.275
3506,-0.045,0.165
3507,-0.145,0.045
3508,-0.225,-0.055
3509,-0.255,-0.105
3510,-0.265,-0.145
3511,-0.305,-0.185
3512,-0.295,-0.215
3513,-0.295,-0.215
3514,-0.315,-0.205
3515,-0.355,-0.225
3516,-0.345,-0.225
3517,-0.285,-0.205
3518,-0.305,-0.185
3519,-0.295,-0.215
3520,-0.305,-0.205
3521,-0.325,-0.205
3522,-0.285,-0.185
3523,-0.265,-0.185
3524,-0.255,-0.175
3525,-0.295,-0.175
3526,-0.275,-0.195
3527,-0.255,-0.175
3528,-0.255,-0.175
3529,-0.215,-0.155
3530,-0.175,-0.135
3531,-0.205,-0.125
3532,-0.145,-0.125
3533,-0.115,-0.125
3534,-0.175,-0.135
3535,-0.145,-0.195
3536,-0.145,-0.205
3537,-0.175,-0.185
3538,-0.295,-0.205
3539,-0.335,-0.245
3540,-0.375,-0.255
3541,-0.315,-0.255
3542,-0.355,-0.235
3543,-0.345,-0.245
3544,-0.355,-0.245
3545,-0.285,-0.255
3546,-0.305,-0.225
3547,-0.335,-0.215
3548,-0.285,-0.225
3549,-0.435,-0.225
3550,-0.755,-0.195
3551,-0.595,-0.145
3552,0.365,-0.115
3553,1.505,0.115
3554,0.855,-0.025
3555,-0.445,-1.235
3556,-0.815,-2.185
3557,-0.585,-1.905
3558,-0.205,-1.155
3559,-0.195,-0.375
3560,-0.245,-0.125
3561,-0.215,-0.025
3562,-0.215,0.015
3563,-0.205,0.005
3564,-0.225,0.025
3565,-0.185,0.045
3566,-0.185,0.075
3567,-0.185,0.085
3568,-0.105,0.115
3569,-0.125,0.145
3570,-0.085,0.155
3571,-0.085,0.175
3572,-0.055,0.205
3573,0.045,0.225
3574,0.095,0.295
3575,0.115,0.345
3576,0.175,0.385
3577,0.265,0.445
3578,0.325,0.495
3579,0.305,0.520
3580,0.295,0.500
3581,0.385,0.490
3582,0.365,0.480
3583,0.275,0.400
3584,0.195,0.320
3585,0.115,0.240
3586,0.035,0.130
3587,-0.075,0.050
3588,-0.185,-0.040
3589,-0.215,-0.100
3590,-0.235,-0.130
3591,-0.265,-0.150
3592,-0.255,-0.170
3593,-0.245,-0.170
3594,-0.235,-0.170
3595,-0.215,-0.180
3596,-0.255,-0.160
3597,-0.245,-0.170
3598,-0.235,-0.160
3599,-0.225,-0.150
3600,-0.225,-0.160
3601,-0.225,-0.140
3602,-0.215,-0.150
3603,-0.205,-0.150
3604,-0.245,-0.140
3605,-0.245,-0.150
3606,-0.215,-0.160
3607,-0.195,-0.150
3608,-0.115,-0.140
3609,-0.115,-0.110
3610,-0.125,-0.090
3611,-0.105,-0.090
3612,-0.065,-0.080
3613,-0.025,-0.080
3614,-0.085,-0.130
3615,-0.055,-0.170
3616,-0.085,-0.140
3617,-0.155,-0.150
3618,-0.255,-0.170
3619,-0.215,-0.220
3620,-0.265,-0.190
3621,-0.245,-0.220
3622,-0.265,-0.210
3623,-0.275,-0.210
3624,-0.235,-0.210
3625,-0.225,-0.200
3626,-0.235,-0.210
3627,-0.235,-0.200
3628,-0.215,-0.180
3629,-0.395,-0.180
3630,-0.665,-0.120
3631,-0.315,-0.020
3632,0.875,0.000
3633,1.535,0.150
3634,0.415,-0.280
3635,-0.645,-1.490
3636,-0.785,-2.010
3637,-0.455,-1.610
3638,-0.255,-0.850
3639,-0.145,-0.290
3640,-0.115,-0.090
3641,-0.125,-0.020
3642,-0.125,0.020
3643,-0.115,0.030
3644,-0.105,0.040
3645,-0.085,0.060
3646,-0.075,0.070
3647,-0.005,0.090
3648,-0.005,0.120
3649,-0.035,0.140
3650,0.035,0.150
3651,0.085,0.180
3652,0.115,0.210
3653,0.155,0.250
3654,0.195,0.280
3655,0.225,0.330
3656,0.265,0.360
3657,0.365,0.410
3658,0.395,0.440
3659,0.435,0.460
3660,0.435,0.470
3661,0.435,0.460
3662,0.465,0.440
3663,0.385,0.400
3664,0.295,0.330
3665,0.225,0.260
3666,0.125,0.180
3667,0.025,0.080
3668,-0.025,0.020
3669,-0.085,-0.050
3670,-0.135,-0.100
3671,-0.095,-0.120
3672,-0.095,-0.130
3673,-0.155,-0.140
3674,-0.155,-0.160
3675,-0.135,-0.135
3676,-0.105,-0.135
3677,-0.135,-0.135
3678,-0.135,-0.125
3679,-0.145,-0.125
3680,-0.125,-0.125
3681,-0.125,-0.115
3682,-0.125,-0.105
3683,-0.105,-0.115
3684,-0.105,-0.105
3685,-0.135,-0.095
3686,-0.125,-0.115
3687,-0.125,-0.115
3688,-0.075,-0.095
3689,-0.005,-0.075
3690,0.015,-0.055
3691,0.005,-0.055
3692,0.025,-0.055
3693,0.065,-0.045
3694,-0.005,-0.075
3695,-0.015,-0.125
3696,0.015,-0.125
3697,0.025,-0.105
3698,-0.115,-0.125
3699,-0.235,-0.135
3700,-0.155,-0.175
3701,-0.115,-0.155
3702,-0.155,-0.155
3703,-0.175,-0.175
3704,-0.185,-0.175
3705,-0.165,-0.165
3706,-0.175,-0.165
3707,-0.155,-0.155
3708,-0.175,-0.155
3709,-0.125,-0.165
3710,-0.345,-0.145
3711,-0.565,-0.125
3712,-0.155,-0.045
3713,1.095,-0.005
3714,1.535,0.225
3715,0.255,-0.245
3716,-0.485,-1.425
3717,-0.535,-1.875
3718,-0.145,-1.425
3719,-0.075,-0.715
3720,-0.065,-0.245
3721,-0.125,-0.075
3722,-0.135,-0.005
3723,-0.065,0.025
3724,-0.015,0.055
3725,-0.025,0.075
3726,-0.025,0.085
3727,-0.075,0.105
3728,-0.005,0.105
3729,-0.005,0.135
3730,0.035,0.145
3731,0.045,0.185
3732,0.065,0.205
3733,0.125,0.255
3734,0.195,0.305
3735,0.245,0.325
3736,0.285,0.375
3737,0.325,0.445
3738,0.365,0.485
3739,0.405,0.525
3740,0.425,0.545
3741,0.465,0.545
3742,0.475,0.545
3743,0.415,0.515
3744,0.325,0.435
3745,0.215,0.355
3746,0.145,0.225
3747,0.105,0.125
3748,0.025,0.035
3749,-0.045,-0.035
3750,-0.115,-0.095
3751,-0.135,-0.125
3752,-0.115,-0.145
3753,-0.145,-0.145
3754,-0.115,-0.155
3755,-0.155,-0.165
3756,-0.155,-0.165
3757,-0.105,-0.165
3758,-0.155,-0.155
3759,-0.135,-0.155
3760,-0.095,-0.155
3761,-0.135,-0.145
3762,-0.105,-0.145
3763,-0.105,-0.135
3764,-0.095,-0.135
3765,-0.095,-0.115
3766,-0.095,-0.135
3767,-0.135,-0.125
3768,-0.095,-0.135
3769,-0.005,-0.115
3770,-0.015,-0.085
3771,-0.065,-0.085
3772,0.005,-0.075
3773,0.075,-0.085
3774,0.035,-0.085
3775,-0.025,-0.125
3776,0.025,-0.165
3777,-0.015,-0.135
3778,-0.065,-0.145
3779,-0.145,-0.165
3780,-0.165,-0.185
3781,-0.185,-0.195
3782,-0.175,-0.195
3783,-0.185,-0.205
3784,-0.175,-0.205
3785,-0.175,-0.195
3786,-0.205,-0.195
3787,-0.165,-0.185
3788,-0.165,-0.195
3789,-0.185,-0.185
3790,-0.515,-0.165
3791,-0.535,-0.135
3792,0.145,-0.065
3793,1.465,0.075
3794,1.135,0.175
3795,-0.135,-0.885
3796,-0.645,-2.045
3797,-0.435,-1.915
3798,-0.035,-1.275
3799,0.005,-0.445
3800,-0.105,-0.115
3801,-0.115,-0.025
3802,-0.095,-0.005
3803,-0.115,0.035
3804,-0.105,0.055
3805,-0.095,0.075
3806,-0.055,0.105
3807,-0.045,0.125
3808,-0.025,0.145
3809,0.025,0.175
3810,0.055,0.185
3811,0.035,0.205
3812,0.035,0.235
3813,0.125,0.275
3814,0.155,0.335
3815,0.205,0.395
3816,0.265,0.425
3817,0.315,0.495
3818,0.355,0.525
3819,0.375,0.575
3820,0.405,0.575
3821,0.445,0.585
3822,0.435,0.565
3823,0.365,0.525
3824,0.265,0.445
3825,0.195,0.345
3826,0.105,0.225
3827,0.015,0.095
3828,-0.065,-0.005
3829,-0.125,-0.055
3830,-0.125,-0.105
3831,-0.145,-0.135
3832,-0.145,-0.155
3833,-0.185,-0.145
3834,-0.205,-0.165
3835,-0.215,-0.165
3836,-0.135,-0.195
3837,-0.145,-0.155
3838,-0.165,-0.165
3839,-0.135,-0.175
3840,-0.205,-0.165
3841,-0.155,-0.165
3842,-0.195,-0.145
3843,-0.175,-0.155
3844,-0.135,-0.155
3845,-0.155,-0.135
3846,-0.165,-0.155
3847,-0.145,-0.165
3848,-0.135,-0.145
3849,-0.145,-0.115
3850,-0.085,-0.095
3851,-0.035,-0.095
3852,-0.045,-0.095
3853,0.015,-0.075
3854,0.025,-0.115
3855,-0.005,-0.165
3856,-0.025,-0.175
3857,-0.045,-0.165
3858,-0.185,-0.155
3859,-0.205,-0.195
3860,-0.225,-0.195
3861,-0.275,-0.215
3862,-0.245,-0.225
3863,-0.215,-0.205
3864,-0.205,-0.215
3865,-0.235,-0.215
3866,-0.235,-0.215
3867,-0.185,-0.215
3868,-0.185,-0.195
3869,-0.235,-0.185
3870,-0.565,-0.175
3871,-0.515,-0.115
3872,0.205,-0.065
3873,1.305,0.055
3874,1.245,0.175
3875,-0.055,-0.665
3876,-0.735,-1.875
3877,-0.575,-1.985
3878,-0.195,-1.365
3879,-0.135,-0.565
3880,-0.125,-0.205
3881,-0.145,-0.055
3882,-0.165,-0.015
3883,-0.155,0.005
3884,-0.165,0.015
3885,-0.125,0.025
3886,-0.085,0.055
3887,-0.105,0.065
3888,-0.045,0.085
3889,-0.065,0.105
3890,-0.035,0.125
3891,0.025,0.145
3892,0.045,0.185
3893,0.085,0.205
3894,0.135,0.255
3895,0.135,0.305
3896,0.225,0.345
3897,0.295,0.405
3898,0.285,0.455
3899,0.365,0.485
3900,0.425,0.465
3901,0.445,0.465
3902,0.415,0.445
3903,0.355,0.405
3904,0.185,0.335
3905,0.145,0.245
3906,0.075,0.145
3907,-0.055,0.045
3908,-0.125,-0.035
3909,-0.195,-0.085
3910,-0.195,-0.125
3911,-0.235,-0.155
3912,-0.245,-0.195
3913,-0.205,-0.185
3914,-0.225,-0.175
3915,-0.255,-0.185
3916,-0.225,-0.185
3917,-0.175,-0.165
3918,-0.195,-0.135
3919,-0.245,-0.165
3920,-0.225,-0.165
3921,-0.195,-0.155
3922,-0.155,-0.145
3923,-0.205,-0.135
3924,-0.235,-0.155
3925,-0.195,-0.155
3926,-0.185,-0.145
3927,-0.195,-0.145
3928,-0.125,-0.145
3929,-0.105,-0.115
3930,-0.125,-0.085
3931,-0.105,-0.085
3932,-0.095,-0.095
3933,-0.055,-0.095
3934,-0.025,-0.125
3935,-0.025,-0.165
3936,-0.065,-0.155
3937,-0.075,-0.155
3938,-0.195,-0.155
3939,-0.225,-0.225
3940,-0.245,-0.215
3941,-0.185,-0.215
3942,-0.225,-0.195
3943,-0.225,-0.215
3944,-0.205,-0.225
3945,-0.185,-0.215
3946,-0.195,-0.185
3947,-0.195,-0.205
3948,-0.155,-0.205
3949,-0.185,-0.195
3950,-0.335,-0.165
3951,-0.365,-0.065
3952,-0.025,-0.005
3953,0.695,0.035
3954,0.815,0.185
3955,0.075,-0.625
3956,-0.335,-1.845
3957,-0.355,-1.905
3958,-0.165,-1.325
3959,-0.085,-0.545
3960,-0.085,-0.185
3961,-0.055,-0.055
3962,-0.045,0.005
3963,-0.055,0.025
3964,-0.015,0.015
3965,-0.015,0.045
3966,-0.005,0.055
3967,0.005,0.065
3968,0.015,0.085
3969,0.025,0.125
3970,0.045,0.145
3971,0.045,0.165
3972,0.045,0.185
3973,0.065,0.205
3974,0.085,0.255
3975,0.115,0.305
3976,0.135,0.335
3977,0.185,0.375
3978,0.195,0.445
3979,0.215,0.475
3980,0.245,0.465
3981,0.245,0.465
3982,0.255,0.435
3983,0.235,0.415
3984,0.185,0.345
3985,0.155,0.255
3986,0.085,0.165
3987,0.045,0.075
3988,0.005,-0.015
3989,-0.025,-0.045
3990,-0.035,-0.085
3991,-0.075,-0.115
3992,-0.095,-0.145
3993,-0.125,-0.135
3994,-0.125,-0.155
3995,-0.115,-0.145
3996,-0.115,-0.135
3997,-0.095,-0.125
3998,-0.125,-0.125
3999,-0.155,-0.135
4000,-0.145,-0.135
4001,-0.105,-0.125
4002,-0.105,-0.115
4003,-0.135,-0.105
4004,-0.085,-0.105
4005,-0.075,-0.105
4006,-0.115,-0.095
4007,-0.085,-0.105
4008,-0.075,-0.095
4009,-0.035,-0.085
4010,-0.045,-0.055
4011,-0.005,-0.055
4012,0.025,-0.055
4013,-0.025,-0.045
4014,0.015,-0.095
4015,0.005,-0.125
4016,-0.035,-0.105
4017,-0.075,-0.115
4018,-0.145,-0.135
4019,-0.185,-0.175
4020,-0.215,-0.185
4021,-0.165,-0.195
4022,-0.195,-0.175
4023,-0.205,-0.175
4024,-0.245,-0.175
4025,-0.195,-0.175
4026,-0.175,-0.175
4027,-0.175,-0.165
4028,-0.185,-0.155
4029,-0.425,-0.145
4030,-0.655,-0.105
4031,-0.175,-0.055
4032,1.235,-0.005
4033,1.545,0.255
4034,0.085,-0.345
4035,-0.675,-1.655
4036,-0.515,-2.005
4037,-0.125,-1.355
4038,-0.105,-0.445
4039,-0.085,-0.105
4040,-0.115,0.005
4041,-0.095,0.045
4042,-0.125,0.055
4043,-0.085,0.065
4044,-0.055,0.085
4045,0.025,0.125
4046,-0.105,0.125
4047,-0.015,-0.055
4048,-0.035,0.165
4049,0.005,0.185
4050,0.035,0.205
4051,0.055,0.235
4052,0.105,0.275
4053,0.165,0.305
4054,0.235,0.365
4055,0.235,0.425
4056,0.305,0.465
4057,0.365,0.505
4058,0.405,0.545
4059,0.415,0.565
4060,0.415,0.565
4061,0.405,0.545
4062,0.375,0.515
4063,0.255,0.445
4064,0.205,0.335
4065,0.115,0.225
4066,0.055,0.125
4067,-0.045,0.045
4068,-0.095,-0.035
4069,-0.115,-0.075
4070,-0.135,-0.105
4071,-0.165,-0.135
4072,-0.185,-0.135
4073,-0.165,-0.145
4074,-0.175,-0.145
4075,-0.155,-0.145
4076,-0.105,-0.135
4077,-0.145,-0.125
4078,-0.165,-0.135
4079,-0.145,-0.145
4080,-0.175,-0.135
4081,-0.145,-0.135
4082,-0.115,-0.115
4083,-0.135,-0.115
4084,-0.135,-0.125
4085,-0.205,-0.115
4086,-0.095,-0.105
4087,-0.065,-0.115
4088,-0.035,-0.085
4089,-0.055,-0.055
4090,0.015,-0.065
4091,0.025,-0.035
4092,-0.005,-0.045
4093,-0.025,-0.095
4094,0.015,-0.135
4095,-0.015,-0.115
4096,-0.055,-0.125
4097,-0.165,-0.125
4098,-0.215,-0.165
4099,-0.215,-0.175
4100,-0.165,-0.175
4101,-0.165,-0.175
4102,-0.185,-0.165
4103,-0.175,-0.155
4104,-0.175,-0.175
4105,-0.135,-0.165
4106,-0.165,-0.135
4107,-0.185,-0.145
4108,-0.345,-0.165
4109,-0.595,-0.125
4110,-0.295,-0.065
4111,0.865,-0.065
4112,1.525,0.215
4113,0.525,-0.025
4114,-0.425,-1.095
4115,-0.585,-1.905
4116,-0.155,-1.585
4117,-0.045,-0.805
4118,-0.085,-0.215
4119,-0.145,-0.045
4120,-0.105,0.015
4121,-0.065,0.055
4122,-0.115,0.095
4123,-0.115,0.105
4124,-0.095,0.105
4125,-0.065,0.125
4126,0.005,0.165
4127,0.005,0.175
4128,-0.025,0.185
4129,0.005,0.205
4130,0.065,0.245
4131,0.085,0.275
4132,0.155,0.315
4133,0.185,0.365
4134,0.205,0.425
4135,0.285,0.485
4136,0.305,0.535
4137,0.425,0.565
4138,0.415,0.615
4139,0.415,0.625
4140,0.385,0.605
4141,0.365,0.575
4142,0.325,0.505
4143,0.225,0.415
4144,0.105,0.295
4145,0.055,0.185
4146,-0.065,0.095
4147,-0.125,0.005
4148,-0.125,-0.065
4149,-0.185,-0.075
4150,-0.205,-0.085
4151,-0.185,-0.115
4152,-0.165,-0.145
4153,-0.175,-0.135
4154,-0.195,-0.125
4155,-0.195,-0.115
4156,-0.165,-0.135
4157,-0.175,-0.105
4158,-0.185,-0.125
4159,-0.215,-0.105
4160,-0.215,-0.115
4161,-0.195,-0.105
4162,-0.175,-0.115
4163,-0.205,-0.105
4164,-0.175,-0.105
4165,-0.135,-0.115
4166,-0.185,-0.105
4167,-0.075,-0.105
4168,-0.075,-0.075
4169,-0.095,-0.055
4170,-0.065,-0.065
4171,-0.005,-0.055
4172,-0.075,-0.045
4173,-0.065,-0.115
4174,-0.055,-0.125
4175,-0.095,-0.115
4176,-0.175,-0.135
4177,-0.225,-0.135
4178,-0.225,-0.185
4179,-0.245,-0.165
4180,-0.275,-0.175
4181,-0.255,-0.185
4182,-0.195,-0.185
4183,-0.235,-0.165
4184,-0.255,-0.175
4185,-0.265,-0.165
4186,-0.195,-0.145
4187,-0.165,-0.155
4188,-0.455,-0.135
4189,-0.645,-0.105
4190,-0.235,-0.025
4191,1.035,-0.015
4192,1.485,0.185
4193,0.125,-0.255
4194,-0.625,-1.565
4195,-0.805,-2.005
4196,-0.375,-1.625
4197,-0.135,-0.995
4198,-0.145,-0.285
4199,-0.175,-0.065
4200,-0.135,0.015
4201,-0.115,0.035
4202,-0.175,0.065
4203,-0.115,0.075
4204,-0.035,0.095
4205,-0.055,0.115
4206,-0.045,0.145
4207,-0.045,0.145
4208,-0.035,0.155
4209,0.005,0.165
4210,0.055,0.215
4211,0.055,0.245
4212,0.085,0.255
4213,0.185,0.325
4214,0.195,0.375
4215,0.245,0.425
4216,0.335,0.445
4217,0.385,0.485
4218,0.435,0.525
4219,0.445,0.515
4220,0.435,0.505
4221,0.405,0.465
4222,0.305,0.405
4223,0.215,0.325
4224,0.055,0.225
4225,0.005,0.145
4226,-0.045,0.045
4227,-0.105,0.005
4228,-0.135,-0.075
4229,-0.145,-0.075
4230,-0.185,-0.105
4231,-0.215,-0.125
4232,-0.225,-0.145
4233,-0.245,-0.125
4234,-0.215,-0.145
4235,-0.175,-0.125
4236,-0.175,-0.135
4237,-0.165,-0.135
4238,-0.185,-0.095
4239,-0.195,-0.105
4240,-0.205,-0.115
4241,-0.185,-0.095
4242,-0.175,-0.095
4243,-0.185,-0.095
4244,-0.135,-0.125
4245,-0.195,-0.105
4246,-0.175,-0.105
4247,-0.085,-0.085
4248,-0.095,-0.045
4249,-0.125,-0.045
4250,-0.065,-0.065
4251,-0.025,-0.045
4252,-0.075,-0.075
4253,-0.045,-0.125
4254,-0.075,-0.115
4255,-0.085,-0.095
4256,-0.215,-0.115
4257,-0.255,-0.175
4258,-0.245,-0.185
4259,-0.285,-0.165
4260,-0.265,-0.175
4261,-0.235,-0.155
4262,-0.255,-0.145
4263,-0.255,-0.155
4264,-0.265,-0.155
4265,-0.225,-0.145
4266,-0.245,-0.135
4267,-0.375,-0.135
4268,-0.635,-0.125
4269,-0.445,-0.025
4270,0.445,0.025
4271,1.565,0.085
4272,1.145,0.055
4273,-0.225,-0.615
4274,-0.825,-1.265
4275,-0.785,-1.325
4276,-0.355,-0.985
4277,-0.185,-0.465
4278,-0.175,-0.155
4279,-0.185,-0.035
4280,-0.165,-0.015
4281,-0.125,0.015
4282,-0.165,0.035
4283,-0.125,0.035
4284,-0.085,0.055
4285,-0.065,0.065
4286,-0.075,0.075
4287,-0.085,0.085
4288,-0.045,0.095
4289,0.035,0.125
4290,0.045,0.145
4291,0.085,0.145
4292,0.075,0.185
4293,0.145,0.205
4294,0.205,0.235
4295,0.315,0.275
4296,0.315,0.295
4297,0.365,0.315
4298,0.365,0.335
4299,0.385,0.325
4300,0.365,0.305
4301,0.345,0.285
4302,0.285,0.255
4303,0.135,0.205
4304,0.025,0.125
4305,-0.055,0.055
4306,-0.065,0.005
4307,-0.095,-0.035
4308,-0.155,-0.065
4309,-0.185,-0.085
4310,-0.215,-0.105
4311,-0.245,-0.115
4312,-0.225,-0.125
4313,-0.175,-0.125
4314,-0.155,-0.125
4315,-0.205,-0.095
4316,-0.225,-0.105
4317,-0.185,-0.125
4318,-0.155,-0.115
4319,-0.195,-0.085
4320,-0.155,-0.105
4321,-0.155,-0.105
4322,-0.115,-0.095
4323,-0.145,-0.095
4324,-0.155,-0.105
4325,-0.145,-0.105
4326,-0.045,-0.085
4327,-0.005,-0.065
4328,-0.055,-0.055
4329,0.015,-0.055
4330,0.075,-0.045
4331,0.005,-0.065
4332,0.015,-0.135
4333,0.075,-0.145
4334,0.045,-0.105
4335,-0.095,-0.125
4336,-0.155,-0.175
4337,-0.145,-0.195
4338,-0.145,-0.175
4339,-0.165,-0.185
4340,-0.125,-0.195
4341,-0.095,-0.195
4342,-0.115,-0.195
4343,-0.105,-0.185
4344,-0.085,-0.195
4345,-0.075,-0.185
4346,-0.195,-0.185
4347,-0.495,-0.175
4348,-0.365,-0.095
4349,0.725,-0.045
4350,1.805,0.195
4351,1.225,0.135
4352,-0.065,-0.885
4353,-0.565,-1.935
4354,-0.415,-1.865
4355,0.005,-1.245
4356,0.015,-0.465
4357,-0.005,-0.175
4358,0.055,-0.055
4359,0.045,0.005
4360,0.065,0.015
4361,0.095,0.045
4362,0.085,0.045
4363,0.075,0.065
4364,0.105,0.075
4365,0.125,0.095
4366,0.155,0.125
4367,0.165,0.145
4368,0.195,0.165
4369,0.215,0.195
4370,0.255,0.235
4371,0.285,0.265
4372,0.385,0.305
4373,0.405,0.385
4374,0.465,0.445
4375,0.535,0.475
4376,0.585,0.505
4377,0.585,0.525
4378,0.585,0.525
4379,0.595,0.505
4380,0.485,0.455
4381,0.445,0.385
4382,0.375,0.315
4383,0.275,0.205
4384,0.205,0.105
4385,0.115,0.015
4386,0.055,-0.035
4387,0.055,-0.085
4388,0.015,-0.115
4389,0.015,-0.145
4390,-0.005,-0.135
4391,0.015,-0.175
4392,-0.045,-0.175
4393,-0.065,-0.165
4394,-0.035,-0.155
4395,-0.055,-0.145
4396,0.025,-0.155
4397,-0.005,-0.145
4398,0.005,-0.135
4399,0.005,-0.135
4400,-0.025,-0.135
4401,-0.015,-0.125
4402,-0.005,-0.135
4403,0.015,-0.135
4404,0.075,-0.115
4405,0.095,-0.075
4406,0.085,-0.065
4407,0.085,-0.075
4408,0.115,-0.065
4409,0.125,-0.095
4410,0.105,-0.135
4411,0.125,-0.165
4412,0.115,-0.145
4413,0.035,-0.135
4414,-0.085,-0.175
4415,-0.085,-0.195
4416,-0.075,-0.215
4417,-0.135,-0.215
4418,-0.185,-0.215
4419,-0.175,-0.205
4420,-0.175,-0.215
4421,-0.095,-0.225
4422,-0.085,-0.205
4423,-0.115,-0.205
4424,-0.105,-0.215
4425,-0.305,-0.205
4426,-0.585,-0.185
4427,-0.225,-0.125
4428,0.995,-0.045
4429,1.715,0.225
4430,0.665,-0.305
4431,-0.425,-1.505
4432,-0.645,-2.215
4433,-0.225,-1.765
4434,-0.015,-0.985
4435,-0.065,-0.335
4436,-0.055,-0.125
4437,-0.095,-0.025
4438,-0.085,0.005
4439,-0.045,0.025
4440,-0.065,0.045
4441,-0.025,0.075
4442,0.045,0.095
4443,0.045,0.105
4444,-0.005,0.125
4445,0.015,0.125
4446,0.055,0.155
4447,0.065,0.205
4448,0.085,0.235
4449,0.105,0.275
4450,0.135,0.325
4451,0.255,0.355
4452,0.285,0.405
4453,0.295,0.465
4454,0.445,0.525
4455,0.445,0.565
4456,0.435,0.575
4457,0.465,0.575
4458,0.435,0.565
4459,0.375,0.465
4460,0.265,0.385
4461,0.175,0.295
4462,0.075,0.155
4463,0.035,0.025
4464,-0.075,-0.045
4465,-0.135,-0.085
4466,-0.135,-0.145
4467,-0.165,-0.175
4468,-0.175,-0.185
4469,-0.185,-0.195
4470,-0.195,-0.205
4471,-0.205,-0.195
4472,-0.205,-0.215
4473,-0.195,-0.195
4474,-0.155,-0.185
4475,-0.175,-0.165
4476,-0.195,-0.215
4477,-0.205,-0.195
4478,-0.185,-0.185
4479,-0.185,-0.175
4480,-0.195,-0.195
4481,-0.185,-0.175
4482,-0.165,-0.175
4483,-0.125,-0.165
4484,-0.075,-0.145
4485,-0.115,-0.125
4486,-0.085,-0.135
4487,-0.095,-0.115
4488,-0.055,-0.125
4489,-0.055,-0.185
4490,0.015,-0.205
4491,-0.045,-0.175
4492,-0.185,-0.205
4493,-0.255,-0.235
4494,-0.205,-0.265
4495,-0.265,-0.245
4496,-0.255,-0.275
4497,-0.275,-0.265
4498,-0.265,-0.255
4499,-0.275,-0.245
4500,-0.275,-0.255
4501,-0.255,-0.265
4502,-0.245,-0.245
4503,-0.255,-0.245
4504,-0.575,-0.205
4505,-0.605,-0.135
4506,-0.145,-0.065
4507,1.115,-0.015
4508,1.515,0.135
4509,0.185,-0.605
4510,-0.755,-1.745
4511,-0.725,-2.055
4512,-0.355,-1.575
4513,-0.235,-0.805
4514,-0.215,-0.315
4515,-0.145,-0.145
4516,-0.125,-0.065
4517,-0.365,-0.035
4518,-0.235,-0.075
4519,-0.125,-0.015
4520,-0.015,-0.005
4521,-0.115,0.025
4522,-0.095,0.045
4523,-0.095,0.055
4524,-0.055,0.085
4525,-0.015,0.085
4526,0.055,0.115
4527,0.065,0.145
4528,-0.055,0.155
4529,0.125,0.235
4530,0.255,0.295
4531,0.325,0.345
4532,0.355,0.375
4533,0.375,0.415
4534,0.375,0.445
4535,0.435,0.415
4536,0.415,0.425
4537,0.395,0.405
4538,0.395,0.345
4539,0.275,0.255
4540,0.165,0.155
4541,0.025,0.075
4542,-0.075,-0.025
4543,-0.125,-0.095
4544,-0.145,-0.165
4545,-0.195,-0.185
4546,-0.185,-0.195
4547,-0.255,-0.205
4548,-0.205,-0.215
4549,-0.165,-0.215
4550,-0.145,-0.195
4551,-0.175,-0.175
4552,-0.195,-0.205
4553,-0.235,-0.205
4554,-0.215,-0.165
4555,-0.165,-0.185
4556,-0.245,-0.165
4557,-0.195,-0.165
4558,-0.255,-0.165
4559,-0.095,-0.165
4560,-0.175,-0.155
4561,-0.065,-0.155
4562,-0.085,-0.135
4563,-0.105,-0.105
4564,-0.075,-0.125
4565,-0.035,-0.105
4566,-0.045,-0.095
4567,-0.085,-0.115
4568,-0.055,-0.185
4569,-0.015,-0.165
4570,0.035,-0.165
4571,-0.125,-0.185
4572,-0.275,-0.205
4573,-0.265,-0.245
4574,-0.205,-0.205
4575,-0.105,-0.225
4576,-0.185,-0.245
4577,-0.265,-0.235
4578,-0.235,-0.225
4579,-0.235,-0.215
4580,-0.225,-0.225
4581,-0.205,-0.235
4582,-0.165,-0.205
4583,-0.455,-0.215
4584,-0.715,-0.165
4585,-0.105,-0.095
4586,1.095,0.005
4587,1.635,0.245
4588,0.205,-0.545
4589,-0.445,-1.795
4590,-0.605,-1.955
4591,-0.245,-1.395
4592,-0.165,-0.635
4593,-0.105,-0.265
4594,-0.215,-0.125
4595,-0.055,-0.035
4596,-0.155,-0.025
4597,-0.205,0.015
4598,-0.055,0.005
4599,-0.195,0.025
4600,-0.095,0.045
4601,-0.005,0.055
4602,-0.115,0.085
4603,-0.065,0.105
4604,0.055,0.125
4605,0.075,0.155
4606,0.005,0.225
4607,0.145,0.245
4608,0.145,0.265
4609,0.125,0.315
4610,0.315,0.375
4611,0.335,0.405
4612,0.255,0.455
4613,0.385,0.465
4614,0.575,0.475
4615,0.475,0.465
4616,0.275,0.435
4617,0.305,0.385
4618,0.145,0.285
4619,-0.025,0.175
4620,0.105,0.025
4621,0.045,-0.055
4622,-0.195,-0.105
4623,-0.015,-0.145
4624,-0.165,-0.185
4625,-0.145,-0.165
4626,-0.335,-0.155
4627,-0.195,-0.185
4628,-0.075,-0.225
4629,-0.275,-0.205
4630,-0.195,-0.175
4631,-0.225,-0.195
4632,-0.105,-0.195
4633,-0.155,-0.175
4634,-0.135,-0.155
4635,-0.035,-0.165
4636,-0.165,-0.145
4637,-0.275,-0.135
4638,-0.175,-0.135
4639,-0.085,-0.165
4640,-0.025,-0.155
4641,0.125,-0.105
4642,-0.115,-0.075
4643,-0.105,-0.065
4644,-0.125,-0.045
4645,-0.065,-0.065
4646,-0.125,-0.125
4647,0.015,-0.185
4648,0.135,-0.165
4649,-0.185,-0.135
4650,-0.255,-0.155
4651,-0.165,-0.205
4652,-0.175,-0.215
4653,-0.265,-0.215
4654,-0.195,-0.215
4655,-0.155,-0.215
4656,-0.275,-0.215
4657,-0.165,-0.195
4658,-0.065,-0.215
4659,-0.255,-0.215
4660,-0.245,-0.205
4661,-0.455,-0.165
4662,-0.595,-0.145
4663,-0.535,-0.085
4664,0.275,-0.085
4665,1.505,0.235
4666,1.525,0.135
4667,-0.075,-0.935
4668,-0.525,-2.045
4669,-0.585,-1.855
4670,-0.255,-1.165
4671,-0.235,-0.455
4672,-0.245,-0.195
4673,-0.145,-0.075
4674,-0.205,-0.025
4675,-0.105,-0.025
4676,-0.175,0.025
4677,-0.255,0.045
4678,0.045,0.025
4679,-0.105,0.055
4680,-0.325,0.105
4681,-0.145,0.105
4682,-0.125,0.115
4683,-0.165,0.165
4684,0.055,0.175
4685,0.075,0.225
4686,-0.095,0.275
4687,0.005,0.325
4688,-0.045,0.345
4689,0.185,0.405
4690,0.185,0.495
4691,0.195,0.505
4692,0.305,0.525
4693,0.355,0.535
4694,0.185,0.515
4695,0.345,0.445
4696,0.105,0.395
4697,0.105,0.285
4698,-0.015,0.165
4699,-0.145,0.055
4700,-0.185,-0.025
4701,-0.145,-0.105
4702,-0.265,-0.115
4703,-0.195,-0.145
4704,-0.275,-0.175
4705,-0.205,-0.185
4706,-0.265,-0.175
4707,-0.345,-0.175
4708,-0.295,-0.195
4709,-0.295,-0.185
4710,-0.315,-0.185
4711,-0.285,-0.165
4712,-0.305,-0.175
4713,-0.415,-0.165
4714,-0.295,-0.155
4715,-0.185,-0.155
4716,-0.245,-0.155
4717,-0.305,-0.155
4718,-0.225,-0.145
4719,-0.205,-0.135
4720,-0.095,-0.115
4721,-0.185,-0.085
4722,-0.295,-0.105
4723,-0.165,-0.085
4724,-0.065,-0.105
4725,-0.015,-0.115
4726,-0.115,-0.155
4727,-0.085,-0.155
4728,-0.205,-0.165
4729,-0.315,-0.185
4730,-0.335,-0.215
4731,-0.305,-0.205
4732,-0.215,-0.225
4733,-0.335,-0.215
4734,-0.365,-0.215
4735,-0.415,-0.225
4736,-0.255,-0.205
4737,-0.415,-0.205
4738,-0.195,-0.185
4739,-0.425,-0.195
4740,-0.725,-0.235
4741,-0.705,-0.185
4742,-0.295,-0.095
4743,0.715,-0.025
4744,1.715,0.325
4745,0.745,-0.175
4746,-0.515,-1.505
4747,-0.575,-2.165
4748,-0.385,-1.705
4749,-0.345,-0.835
4750,-0.285,-0.255
4751,-0.175,-0.105
4752,-0.515,-0.045
4753,0.055,-0.015
4754,-0.195,0.005
4755,-0.175,0.075
4756,-0.215,0.065
4757,-0.265,0.095
4758,-0.205,0.105
4759,-0.515,0.135
4760,-0.015,0.115
4761,-0.255,0.155
4762,-0.415,0.185
4763,0.115,0.185
4764,-0.125,0.295
4765,0.085,0.365
4766,0.085,0.385
4767,-0.265,0.425
4768,0.195,0.475
4769,0.235,0.525
4770,0.005,0.575
4771,0.295,0.565
4772,0.125,0.555
4773,0.155,0.515
4774,-0.085,0.445
4775,0.345,0.375
4776,0.155,0.255
4777,-0.235,0.115
4778,-0.415,0.025
4779,-0.255,-0.065
4780,-0.805,-0.135
4781,-0.265,-0.175
4782,-0.145,-0.135
4783,-0.165,-0.175
4784,-0.295,-0.195
4785,-0.365,-0.195
4786,-0.265,-0.175
4787,-0.405,-0.155
4788,-0.295,-0.175
4789,-0.345,-0.185
4790,-0.455,-0.175
4791,-0.415,-0.185
4792,-0.225,-0.155
4793,-0.675,-0.145
4794,-0.115,-0.185
4795,-0.115,-0.175
4796,-0.415,-0.145
4797,-0.215,-0.135
4798,-0.165,-0.125
4799,-0.185,-0.095
4800,-0.215,-0.125
4801,-0.305,-0.115
4802,-0.165,-0.085
4803,-0.215,-0.085
4804,-0.185,-0.155
4805,-0.275,-0.195
4806,-0.215,-0.145
4807,-0.175,-0.185
4808,-0.215,-0.165
4809,-0.335,-0.215
4810,-0.275,-0.185
4811,-0.275,-0.225
4812,-0.395,-0.225
4813,-0.365,-0.205
4814,-0.545,-0.215
4815,-0.305,-0.215
4816,-0.375,-0.205
4817,-0.305,-0.215
4818,-0.295,-0.185
4819,-0.345,-0.185
4820,-0.865,-0.195
4821,-0.575,-0.115
4822,0.625,-0.095
4823,1.475,0.125
4824,0.405,-0.465
4825,-0.445,-1.675
4826,-0.735,-2.155
4827,-0.295,-1.735
4828,-0.125,-0.885
4829,-0.205,-0.305
4830,-0.305,-0.115
4831,-0.285,-0.030
4832,-0.245,0.020
4833,-0.315,0.040
4834,-0.155,0.080
4835,-0.205,0.110
4836,-0.105,0.100
4837,-0.275,0.140
4838,-0.135,0.130
4839,-0.105,0.170
4840,-0.215,0.180
4841,-0.175,0.230
4842,0.055,0.260
4843,0.125,0.310
4844,0.005,0.360
4845,0.115,0.400
4846,0.145,0.460
4847,0.235,0.530
4848,0.025,0.560
4849,0.295,0.560
4850,0.455,0.560
4851,0.435,0.580
4852,0.335,0.530
4853,0.255,0.440
4854,-0.085,0.360
4855,0.125,0.270
4856,0.025,0.170
4857,-0.095,0.050
4858,-0.095,-0.030
4859,-0.355,-0.090
4860,-0.235,-0.130
4861,-0.155,-0.140
4862,-0.225,-0.150
4863,-0.275,-0.160
4864,-0.295,-0.170
4865,-0.235,-0.150
4866,-0.215,-0.150
4867,-0.175,-0.160
4868,-0.165,-0.150
4869,-0.305,-0.120
4870,-0.285,-0.150
4871,-0.205,-0.150
4872,-0.135,-0.150
4873,-0.205,-0.140
4874,-0.165,-0.130
4875,-0.185,-0.140
4876,-0.225,-0.150
4877,-0.185,-0.120
4878,-0.055,-0.090
4879,-0.165,-0.080
4880,-0.155,-0.110
4881,-0.155,-0.080
4882,-0.035,-0.090
4883,0.005,-0.150
4884,-0.075,-0.170
4885,-0.075,-0.170
4886,-0.185,-0.170
4887,-0.275,-0.190
4888,-0.295,-0.190
4889,-0.255,-0.230
4890,-0.255,-0.210
4891,-0.225,-0.230
4892,-0.275,-0.200
4893,-0.295,-0.210
4894,-0.225,-0.200
4895,-0.295,-0.180
4896,-0.285,-0.220
4897,-0.285,-0.190
4898,-0.585,-0.180
4899,-0.705,-0.125
4900,-0.055,-0.115
4901,1.105,0.005
4902,1.115,0.015
4903,-0.035,-1.065
4904,-0.615,-2.065
4905,-0.495,-1.985
4906,-0.155,-1.415
4907,-0.195,-0.605
4908,-0.085,-0.245
4909,-0.175,-0.075
4910,-0.415,-0.005
4911,-0.165,0.015
4912,-0.115,0.055
4913,-0.135,0.075
4914,-0.135,0.115
4915,-0.225,0.115
4916,-0.145,0.115
4917,-0.205,0.175
4918,-0.065,0.185
4919,-0.015,0.215
4920,0.005,0.245
4921,-0.005,0.275
4922,0.035,0.315
4923,0.095,0.355
4924,0.115,0.415
4925,0.135,0.475
4926,0.295,0.525
4927,0.325,0.565
4928,0.205,0.575
4929,0.305,0.555
4930,0.355,0.545
4931,0.125,0.505
4932,0.225,0.445
4933,0.115,0.345
4934,0.115,0.235
4935,-0.015,0.125
4936,-0.155,0.035
4937,-0.175,-0.065
4938,-0.265,-0.075
4939,-0.225,-0.135
4940,-0.215,-0.125
4941,-0.315,-0.135
4942,-0.325,-0.175
4943,-0.225,-0.165
4944,-0.295,-0.135
4945,-0.285,-0.155
4946,-0.285,-0.145
4947,-0.225,-0.135
4948,-0.305,-0.145
4949,-0.245,-0.145
4950,-0.155,-0.125
4951,-0.245,-0.115
4952,-0.205,-0.135
4953,-0.255,-0.145
4954,-0.225,-0.135
4955,-0.195,-0.115
4956,-0.155,-0.105
4957,-0.185,-0.075
4958,-0.285,-0.085
4959,-0.135,-0.085
4960,-0.095,-0.095
4961,-0.155,-0.115
4962,-0.105,-0.145
4963,-0.075,-0.165
4964,-0.185,-0.155
4965,-0.325,-0.175
4966,-0.275,-0.205
4967,-0.325,-0.195
4968,-0.405,-0.225
4969,-0.345,-0.225
4970,-0.305,-0.215
4971,-0.255,-0.215
4972,-0.335,-0.215
4973,-0.305,-0.205
4974,-0.325,-0.205
4975,-0.325,-0.205
4976,-0.495,-0.215
4977,-0.705,-0.185
4978,-0.565,-0.125
4979,0.105,-0.095
4980,1.275,0.045
4981,1.005,0.025
4982,-0.205,-1.115
4983,-0.685,-2.095
4984,-0.605,-2.005
4985,-0.195,-1.455
4986,-0.235,-0.635
4987,-0.235,-0.245
4988,-0.275,-0.055
4989,-0.285,-0.015
4990,-0.255,0.025
4991,-0.245,0.045
4992,-0.235,0.075
4993,-0.125,0.095
4994,-0.165,0.115
4995,-0.145,0.115
4996,-0.205,0.135
4997,-0.175,0.185
4998,-0.115,0.205
4999,-0.135,0.235
5000,0.055,0.275
5001,0.105,0.305
5002,0.155,0.375
5003,0.135,0.435
5004,0.135,0.465
5005,0.235,0.505
5006,0.145,0.535
5007,0.335,0.535
5008,0.255,0.515
5009,0.375,0.505
5010,0.295,0.455
5011,0.165,0.395
5012,0.045,0.315
5013,-0.035,0.215
5014,-0.045,0.105
5015,-0.115,0.015
5016,-0.215,-0.055
5017,-0.295,-0.105
5018,-0.235,-0.115
5019,-0.235,-0.145
5020,-0.305,-0.155
5021,-0.265,-0.165
5022,-0.255,-0.145
5023,-0.295,-0.135
5024,-0.325,-0.165
5025,-0.255,-0.155
5026,-0.215,-0.135
5027,-0.225,-0.145
5028,-0.275,-0.135
5029,-0.215,-0.125
5030,-0.175,-0.125
5031,-0.225,-0.135
5032,-0.235,-0.135
5033,-0.225,-0.125
5034,-0.185,-0.115
5035,-0.195,-0.095
5036,-0.195,-0.075
5037,-0.205,-0.065
5038,-0.015,-0.065
5039,0.005,-0.065
5040,-0.175,-0.135
5041,-0.065,-0.175
5042,-0.145,-0.135
5043,-0.155,-0.125
5044,-0.205,-0.135
5045,-0.235,-0.155
5046,-0.265,-0.165
5047,-0.285,-0.175
5048,-0.345,-0.175
5049,-0.285,-0.165
5050,-0.235,-0.165
5051,-0.215,-0.165
5052,-0.255,-0.145
5053,-0.295,-0.155
5054,-0.325,-0.145
5055,-0.405,-0.145
5056,-0.605,-0.115
5057,-0.485,-0.055
5058,0.725,-0.035
5059,1.635,0.095
5060,0.645,-0.145
5061,-0.375,-0.905
5062,-0.735,-1.315
5063,-0.425,-1.135
5064,-0.135,-0.725
5065,-0.195,-0.285
5066,-0.175,-0.095
5067,-0.155,-0.015
5068,-0.105,0.005
5069,-0.165,0.025
5070,-0.185,0.045
5071,-0.095,0.065
5072,-0.075,0.065
5073,-0.065,0.085
5074,-0.065,0.095
5075,-0.125,0.105
5076,0.015,0.105
5077,0.045,0.135
5078,0.065,0.175
5079,0.115,0.195
5080,0.105,0.205
5081,0.215,0.255
5082,0.165,0.305
5083,0.195,0.325
5084,0.375,0.355
5085,0.375,0.385
5086,0.385,0.405
5087,0.425,0.395
5088,0.345,0.375
5089,0.285,0.345
5090,0.195,0.295
5091,0.015,0.205
5092,-0.075,0.115
5093,-0.075,0.065
5094,-0.065,-0.015
5095,-0.085,-0.055
5096,-0.115,-0.085
5097,-0.135,-0.085
5098,-0.215,-0.105
5099,-0.175,-0.135
5100,-0.165,-0.125
5101,-0.155,-0.135
5102,-0.205,-0.125
5103,-0.205,-0.125
5104,-0.255,-0.115
5105,-0.235,-0.135
5106,-0.085,-0.115
5107,-0.095,-0.105
5108,-0.155,-0.115
5109,-0.065,-0.125
5110,-0.105,-0.085
5111,-0.195,-0.105
5112,-0.135,-0.115
5113,-0.115,-0.075
5114,-0.015,-0.045
5115,0.045,-0.065
5116,0.015,-0.075
5117,0.005,-0.055
5118,-0.035,-0.095
5119,-0.115,-0.145
5120,-0.055,-0.145
5121,0.015,-0.125
5122,-0.135,-0.155
5123,-0.145,-0.185
5124,-0.195,-0.175
5125,-0.245,-0.195
5126,-0.165,-0.195
5127,-0.265,-0.175
5128,-0.225,-0.195
5129,-0.205,-0.195
5130,-0.085,-0.175
5131,-0.175,-0.185
5132,-0.235,-0.185
5133,-0.295,-0.175
5134,-0.515,-0.175
5135,-0.355,-0.105
5136,0.915,-0.075
5137,1.535,0.255
5138,0.585,-0.145
5139,-0.205,-1.465
5140,-0.415,-2.195
5141,-0.155,-1.795
5142,-0.005,-1.055
5143,0.005,-0.355
5144,-0.195,-0.105
5145,-0.165,-0.025
5146,-0.045,0.035
5147,-0.135,0.065
5148,-0.025,0.075
5149,0.005,0.105
5150,-0.005,0.105
5151,-0.075,0.145
5152,-0.045,0.155
5153,0.025,0.165
5154,0.055,0.185
5155,0.015,0.245
5156,0.145,0.265
5157,0.155,0.325
5158,0.155,0.365
5159,0.205,0.405
5160,0.245,0.475
5161,0.325,0.535
5162,0.415,0.575
5163,0.455,0.605
5164,0.435,0.605
5165,0.475,0.605
5166,0.355,0.575
5167,0.355,0.515
5168,0.255,0.425
5169,0.125,0.315
5170,0.105,0.205
5171,0.135,0.085
5172,-0.015,0.015
5173,-0.015,-0.055
5174,-0.095,-0.075
5175,-0.105,-0.105
5176,-0.185,-0.145
5177,-0.175,-0.155
5178,-0.105,-0.145
5179,-0.045,-0.125
5180,-0.085,-0.135
5181,-0.135,-0.125
5182,-0.205,-0.135
5183,-0.085,-0.135
5184,-0.075,-0.115
5185,-0.085,-0.125
5186,-0.135,-0.105
5187,-0.065,-0.115
5188,-0.105,-0.135
5189,-0.055,-0.115
5190,-0.075,-0.085
5191,-0.025,-0.075
5192,-0.055,-0.055
5193,0.015,-0.055
5194,0.085,-0.055
5195,0.065,-0.045
5196,0.005,-0.095
5197,0.055,-0.155
5198,0.075,-0.125
5199,0.005,-0.115
5200,-0.155,-0.145
5201,-0.155,-0.175
5202,-0.175,-0.165
5203,-0.145,-0.195
5204,-0.115,-0.205
5205,-0.185,-0.175
5206,-0.145,-0.195
5207,-0.185,-0.185
5208,-0.215,-0.165
5209,-0.085,-0.165
5210,-0.075,-0.165
5211,-0.125,-0.165
5212,-0.335,-0.175
5213,-0.665,-0.165
5214,0.045,-0.105
5215,1.415,0.005
5216,1.435,0.335
5217,0.225,-0.365
5218,-0.385,-1.745
5219,-0.385,-1.945
5220,-0.085,-1.395
5221,-0.075,-0.595
5222,-0.015,-0.175
5223,0.015,-0.035
5224,-0.085,0.045
5225,-0.095,0.045
5226,-0.065,0.065
5227,-0.005,0.105
5228,-0.005,0.125
5229,-0.015,0.125
5230,0.065,0.145
5231,0.105,0.175
5232,0.115,0.195
5233,0.035,0.235
5234,0.105,0.245
5235,0.215,0.315
5236,0.225,0.375
5237,0.235,0.395
5238,0.325,0.435
5239,0.355,0.515
5240,0.425,0.565
5241,0.485,0.575
5242,0.475,0.585
5243,0.475,0.575
5244,0.465,0.535
5245,0.325,0.485
5246,0.425,0.385
5247,0.275,0.295
5248,0.155,0.185
5249,0.115,0.105
5250,-0.035,0.025
5251,-0.065,-0.035
5252,-0.105,-0.085
5253,0.015,-0.095
5254,-0.055,-0.115
5255,-0.195,-0.125
5256,-0.065,-0.155
5257,-0.185,-0.125
5258,-0.215,-0.125
5259,0.045,-0.125
5260,-0.015,-0.115
5261,-0.055,-0.115
5262,-0.085,-0.125
5263,-0.015,-0.115
5264,-0.065,-0.115
5265,-0.225,-0.095
5266,0.005,-0.125
5267,-0.085,-0.105
5268,0.005,-0.115
5269,0.015,-0.095
5270,0.015,-0.055
5271,0.085,-0.055
5272,0.055,-0.055
5273,0.015,-0.055
5274,0.005,-0.055
5275,0.045,-0.115
5276,0.155,-0.145
5277,0.055,-0.115
5278,-0.015,-0.125
5279,-0.065,-0.145
5280,-0.125,-0.185
5281,-0.165,-0.185
5282,-0.305,-0.185
5283,-0.045,-0.195
5284,-0.065,-0.185
5285,-0.065,-0.175
5286,-0.115,-0.165
5287,-0.205,-0.165
5288,-0.165,-0.155
5289,-0.225,-0.165
5290,-0.225,-0.145
5291,-0.425,-0.085
5292,-0.015,-0.005
5293,1.185,0.025
5294,1.595,0.235
5295,0.255,-0.235
5296,-0.485,-1.465
5297,-0.485,-1.935
5298,-0.115,-1.465
5299,-0.075,-0.725
5300,-0.085,-0.265
5301,-0.135,-0.075
5302,0.005,0.025
5303,0.015,0.055
5304,-0.015,0.065
5305,-0.025,0.085
5306,0.005,0.095
5307,-0.035,0.115
5308,0.085,0.125
5309,0.085,0.135
5310,0.015,0.145
5311,0.125,0.175
5312,0.225,0.205
5313,0.155,0.255
5314,0.165,0.275
5315,0.085,0.315
5316,0.215,0.365
5317,0.505,0.385
5318,0.525,0.465
5319,0.355,0.495
5320,0.385,0.495
5321,0.485,0.495
5322,0.565,0.505
5323,0.435,0.455
5324,0.345,0.385
5325,0.245,0.315
5326,0.165,0.235
5327,0.105,0.135
5328,-0.005,0.055
5329,-0.105,-0.015
5330,0.015,-0.055
5331,0.005,-0.075
5332,-0.065,-0.095
5333,-0.045,-0.105
5334,-0.125,-0.115
5335,-0.075,-0.105
5336,-0.045,-0.105
5337,-0.225,-0.095
5338,-0.115,-0.105
5339,-0.015,-0.100
5340,-0.095,-0.080
5341,-0.125,-0.080
5342,-0.075,-0.080
5343,-0.065,-0.080
5344,-0.005,-0.070
5345,-0.115,-0.060
5346,-0.045,-0.060
5347,0.015,-0.060
5348,-0.005,-0.050
5349,0.045,-0.040
5350,0.105,-0.020
5351,0.075,-0.040
5352,-0.045,-0.090
5353,0.105,-0.110
5354,-0.005,-0.090
5355,-0.075,-0.100
5356,-0.125,-0.130
5357,-0.185,-0.150
5358,-0.145,-0.160
5359,-0.105,-0.160
5360,-0.195,-0.170
5361,-0.175,-0.160
5362,-0.165,-0.170
5363,-0.155,-0.160
5364,-0.115,-0.160
5365,-0.235,-0.150
5366,-0.165,-0.160
5367,-0.555,-0.145
5368,-0.505,-0.125
5369,0.305,-0.085
5370,1.315,0.035
5371,1.185,0.175
5372,0.155,-0.485
5373,-0.355,-1.495
5374,-0.365,-1.655
5375,-0.055,-1.265
5376,-0.035,-0.645
5377,-0.085,-0.255
5378,-0.065,-0.085
5379,-0.035,-0.005
5380,-0.025,0.025
5381,-0.085,0.055
5382,-0.105,0.075
5383,-0.085,0.085
5384,-0.045,0.085
5385,0.015,0.115
5386,-0.035,0.145
5387,-0.015,0.165
5388,0.085,0.185
5389,0.095,0.215
5390,0.055,0.235
5391,-0.015,0.265
5392,0.185,0.285
5393,0.305,0.335
5394,0.365,0.385
5395,0.315,0.425
5396,0.315,0.445
5397,0.415,0.475
5398,0.405,0.485
5399,0.295,0.475
5400,0.335,0.445
5401,0.305,0.405
5402,0.345,0.355
5403,0.165,0.275
5404,0.055,0.165
5405,0.055,0.105
5406,-0.005,0.005
5407,-0.085,-0.055
5408,-0.125,-0.085
5409,-0.195,-0.125
5410,-0.245,-0.125
5411,-0.065,-0.145
5412,-0.085,-0.155
5413,-0.135,-0.145
5414,-0.155,-0.155
5415,-0.135,-0.145
5416,-0.165,-0.145
5417,-0.225,-0.165
5418,-0.315,-0.145
5419,-0.025,-0.145
5420,-0.065,-0.125
5421,-0.135,-0.125
5422,-0.105,-0.135
5423,-0.085,-0.125
5424,-0.065,-0.105
5425,-0.075,-0.095
5426,0.005,-0.085
5427,0.025,-0.075
5428,-0.055,-0.085
5429,-0.035,-0.135
5430,0.015,-0.175
5431,-0.085,-0.155
5432,-0.055,-0.175
5433,-0.165,-0.175
5434,-0.175,-0.205
5435,-0.155,-0.205
5436,-0.215,-0.235
5437,-0.235,-0.225
5438,-0.285,-0.225
5439,-0.225,-0.235
5440,-0.185,-0.225
5441,-0.245,-0.225
5442,-0.165,-0.185
5443,-0.135,-0.205
5444,-0.465,-0.215
5445,-0.625,-0.225
5446,-0.135,-0.165
5447,1.085,-0.065
5448,1.475,0.255
5449,0.245,-0.345
5450,-0.345,-1.675
5451,-0.365,-2.055
5452,0.065,-1.565
5453,-0.055,-0.695
5454,-0.095,-0.245
5455,-0.155,-0.055
5456,-0.155,-0.005
5457,-0.165,-0.005
5458,-0.125,0.025
5459,-0.025,0.065
5460,-0.075,0.085
5461,-0.115,0.105
5462,-0.165,0.115
5463,-0.035,0.145
5464,0.045,0.165
5465,0.055,0.195
5466,0.045,0.225
5467,0.075,0.265
5468,0.165,0.315
5469,0.135,0.365
5470,0.255,0.435
5471,0.185,0.495
5472,0.255,0.525
5473,0.305,0.575
5474,0.375,0.585
5475,0.415,0.565
5476,0.425,0.545
5477,0.385,0.505
5478,0.275,0.445
5479,0.085,0.315
5480,0.085,0.195
5481,-0.115,0.085
5482,-0.095,-0.005
5483,0.015,-0.065
5484,-0.055,-0.105
5485,-0.055,-0.125
5486,-0.155,-0.145
5487,-0.135,-0.165
5488,-0.215,-0.165
5489,-0.215,-0.175
5490,-0.125,-0.145
5491,-0.095,-0.145
5492,-0.055,-0.165
5493,-0.175,-0.145
5494,-0.115,-0.135
5495,-0.235,-0.145
5496,-0.175,-0.145
5497,-0.085,-0.135
5498,-0.075,-0.115
5499,-0.055,-0.135
5500,-0.015,-0.125
5501,-0.055,-0.075
5502,-0.095,-0.085
5503,-0.015,-0.085
5504,0.065,-0.075
5505,0.025,-0.075
5506,-0.045,-0.145
5507,-0.015,-0.165
5508,-0.005,-0.135
5509,-0.095,-0.165
5510,-0.215,-0.185
5511,-0.235,-0.205
5512,-0.215,-0.185
5513,-0.165,-0.205
5514,-0.155,-0.195
5515,-0.115,-0.205
5516,-0.165,-0.205
5517,-0.225,-0.195
5518,-0.235,-0.185
5519,-0.245,-0.185
5520,-0.135,-0.200
5521,-0.365,-0.190
5522,-0.585,-0.140
5523,0.005,-0.070
5524,1.205,0.020
5525,1.235,0.160
5526,0.025,-0.670
5527,-0.575,-1.780
5528,-0.455,-1.880
5529,-0.155,-1.340
5530,-0.125,-0.570
5531,-0.095,-0.230
5532,-0.075,-0.090
5533,-0.115,0.000
5534,-0.075,0.000
5535,-0.165,0.030
5536,-0.165,0.040
5537,-0.065,0.060
5538,0.035,0.090
5539,0.045,0.100
5540,0.015,0.100
5541,-0.035,0.140
5542,0.115,0.150
5543,0.075,0.200
5544,0.055,0.200
5545,0.235,0.260
5546,0.115,0.310
5547,0.225,0.340
5548,0.285,0.370
5549,0.435,0.410
5550,0.525,0.430
5551,0.455,0.415
5552,0.445,0.395
5553,0.415,0.375
5554,0.295,0.345
5555,0.215,0.275
5556,0.195,0.195
5557,0.015,0.115
5558,0.015,0.045
5559,-0.015,-0.015
5560,-0.075,-0.045
5561,-0.165,-0.085
5562,-0.095,-0.095
5563,-0.165,-0.115
5564,-0.145,-0.115
5565,-0.255,-0.115
5566,-0.105,-0.105
5567,-0.125,-0.095
5568,-0.055,-0.095
5569,-0.105,-0.085
5570,-0.115,-0.065
5571,-0.155,-0.085
5572,-0.425,-0.085
5573,-0.075,-0.075
5574,0.045,-0.075
5575,0.005,-0.065
5576,-0.035,-0.075
5577,-0.015,-0.055
5578,-0.025,-0.045
5579,0.035,-0.045
5580,-0.005,-0.045
5581,-0.025,-0.035
5582,-0.155,-0.045
5583,0.115,-0.065
5584,-0.035,-0.065
5585,0.045,-0.065
5586,-0.095,-0.055
5587,-0.125,-0.055
5588,-0.215,-0.065
5589,-0.185,-0.065
5590,-0.145,-0.065
5591,-0.175,-0.065
5592,-0.235,-0.065
5593,-0.155,-0.065
5594,-0.135,-0.065
5595,-0.235,-0.055
5596,-0.105,-0.065
5597,-0.315,-0.065
5598,-0.575,-0.055
5599,-0.345,-0.035
5600,0.765,-0.035
5601,1.615,0.005
5602,0.715,0.005
5603,-0.295,-0.215
5604,-0.525,-0.465
5605,-0.285,-0.445
5606,-0.025,-0.305
5607,-0.095,-0.155
5608,-0.165,-0.085
5609,-0.095,-0.055
5610,-0.115,-0.035
5611,-0.125,-0.025
5612,-0.115,-0.015
5613,-0.015,-0.015
5614,-0.005,-0.005
5615,0.045,0.005
5616,-0.015,-0.015
5617,-0.025,0.005
5618,0.025,0.015
5619,0.075,0.025
5620,-0.025,0.035
5621,0.195,0.045
5622,0.235,0.075
5623,0.215,0.095
5624,0.265,0.115
5625,0.245,0.145
5626,0.445,0.185
5627,0.365,0.215
5628,0.335,0.215
5629,0.485,0.245
5630,0.445,0.255
5631,0.345,0.245
5632,0.305,0.215
5633,0.075,0.175
5634,0.085,0.115
5635,0.095,0.065
5636,0.065,-0.005
5637,-0.035,-0.065
5638,-0.365,-0.105
5639,0.005,-0.135
5640,-0.075,-0.155
5641,-0.145,-0.165
5642,-0.085,-0.155
5643,-0.095,-0.165
5644,-0.205,-0.185
5645,-0.155,-0.165
5646,-0.145,-0.175
5647,-0.165,-0.155
5648,-0.025,-0.145
5649,-0.095,-0.165
5650,-0.105,-0.135
5651,-0.055,-0.165
5652,-0.125,-0.155
5653,-0.105,-0.145
5654,-0.025,-0.095
5655,0.065,-0.075
5656,0.085,-0.095
5657,0.055,-0.105
5658,0.055,-0.115
5659,0.015,-0.185
5660,0.085,-0.205
5661,-0.225,-0.175
5662,0.015,-0.175
5663,-0.085,-0.235
5664,-0.075,-0.245
5665,-0.305,-0.255
5666,-0.205,-0.275
5667,-0.095,-0.265
5668,-0.105,-0.265
5669,-0.235,-0.225
5670,-0.205,-0.215
5671,-0.155,-0.245
5672,-0.175,-0.275
5673,-0.205,-0.235
5674,-0.815,-0.245
5675,-0.355,-0.245
5676,0.235,-0.245
5677,1.675,0.035
5678,1.075,0.145
5679,-0.285,-1.015
5680,-0.375,-2.085
5681,-0.265,-1.825
5682,-0.065,-1.085
5683,-0.075,-0.445
5684,-0.045,-0.225
5685,-0.055,-0.095
5686,-0.115,-0.045
5687,-0.175,-0.015
5688,-0.115,-0.005
5689,0.005,0.015
5690,0.115,0.065
5691,0.055,0.065
5692,-0.055,0.115
5693,-0.085,0.145
5694,0.185,0.135
5695,-0.055,0.165
5696,0.115,0.205
5697,-0.025,0.275
5698,-0.025,0.315
5699,0.345,0.375
5700,0.265,0.395
5701,0.235,0.485
5702,0.265,0.495
5703,0.475,0.555
5704,0.245,0.535
5705,0.295,0.525
5706,0.345,0.515
5707,0.555,0.485
5708,0.265,0.385
5709,0.175,0.305
5710,0.035,0.195
5711,-0.155,0.075
5712,-0.255,-0.035
5713,-0.175,-0.085
5714,0.035,-0.125
5715,-0.155,-0.155
5716,-0.255,-0.185
5717,-0.155,-0.165
5718,-0.125,-0.185
5719,-0.275,-0.185
5720,-0.365,-0.145
5721,-0.155,-0.185
5722,-0.225,-0.175
5723,-0.155,-0.145
5724,-0.225,-0.155
5725,0.005,-0.165
5726,-0.355,-0.145
5727,-0.045,-0.125
5728,-0.245,-0.135
5729,-0.265,-0.095
5730,-0.265,-0.085
5731,0.005,-0.105
5732,-0.075,-0.095
5733,-0.015,-0.055
5734,-0.165,-0.105
5735,-0.025,-0.175
5736,0.065,-0.165
5737,-0.115,-0.185
5738,-0.435,-0.145
5739,-0.235,-0.205
5740,-0.205,-0.235
5741,-0.275,-0.235
5742,-0.445,-0.255
5743,-0.365,-0.215
5744,-0.265,-0.205
5745,-0.315,-0.195
5746,-0.315,-0.225
5747,-0.185,-0.215
5748,-0.365,-0.215
5749,-0.875,-0.215
5750,-0.495,-0.245
5751,-0.365,-0.215
5752,1.085,-0.005
5753,1.405,0.495
5754,0.395,-0.005
5755,-0.295,-1.545
5756,-0.575,-2.065
5757,-0.175,-1.585
5758,-0.015,-0.895
5759,-0.245,-0.365
5760,-0.085,-0.135
5761,-0.355,-0.065
5762,-0.295,-0.015
5763,-0.295,0.035
5764,-0.255,0.025
5765,-0.125,0.055
5766,-0.275,0.075
5767,-0.165,0.095
5768,-0.205,0.105
5769,-0.175,0.145
5770,-0.165,0.155
5771,-0.105,0.175
5772,-0.075,0.215
5773,0.035,0.265
5774,0.015,0.315
5775,-0.055,0.365
5776,0.015,0.435
5777,0.075,0.465
5778,0.085,0.515
5779,0.155,0.545
5780,0.215,0.525
5781,0.175,0.535
5782,0.205,0.495
5783,0.115,0.425
5784,-0.005,0.315
5785,0.035,0.215
5786,-0.115,0.095
5787,-0.205,0.005
5788,-0.125,-0.095
5789,-0.265,-0.135
5790,-0.285,-0.165
5791,-0.235,-0.175
5792,-0.205,-0.195
5793,-0.215,-0.205
5794,-0.275,-0.215
5795,-0.335,-0.225
5796,-0.125,-0.215
5797,-0.235,-0.215
5798,-0.365,-0.185
5799,-0.415,-0.185
5800,-0.285,-0.205
5801,-0.165,-0.195
5802,-0.195,-0.175
5803,-0.305,-0.165
5804,-0.305,-0.165
5805,-0.075,-0.135
5806,-0.145,-0.115
5807,-0.295,-0.105
5808,0.055,-0.135
5809,-0.105,-0.105
5810,-0.205,-0.085
5811,-0.115,-0.175
5812,-0.045,-0.195
5813,-0.125,-0.195
5814,-0.195,-0.195
5815,-0.255,-0.235
5816,-0.345,-0.225
5817,-0.195,-0.245
5818,-0.315,-0.265
5819,-0.365,-0.225
5820,-0.315,-0.245
5821,-0.335,-0.245
5822,-0.375,-0.235
5823,-0.405,-0.235
5824,-0.185,-0.225
5825,-0.135,-0.225
5826,-0.865,-0.215
5827,-0.685,-0.245
5828,-0.045,-0.215
5829,1.255,0.005
5830,1.125,0.335
5831,0.035,-0.525
5832,-0.355,-1.935
5833,-0.345,-1.965
5834,-0.045,-1.365
5835,-0.145,-0.625
5836,-0.285,-0.245
5837,-0.315,-0.095
5838,-0.145,-0.035
5839,-0.095,0.005
5840,-0.205,0.015
5841,-0.235,0.045
5842,-0.085,0.075
5843,-0.185,0.075
5844,-0.145,0.125
5845,-0.125,0.135
5846,-0.125,0.165
5847,-0.025,0.205
5848,-0.115,0.255
5849,0.045,0.265
5850,0.015,0.325
5851,-0.105,0.395
5852,0.185,0.425
5853,0.285,0.485
5854,0.305,0.565
5855,0.265,0.575
5856,0.345,0.605
5857,0.285,0.575
5858,0.175,0.535
5859,0.075,0.475
5860,0.215,0.355
5861,0.055,0.225
5862,-0.115,0.095
5863,-0.245,-0.015
5864,-0.105,-0.065
5865,-0.025,-0.125
5866,-0.285,-0.175
5867,-0.385,-0.175
5868,-0.125,-0.195
5869,-0.115,-0.195
5870,-0.235,-0.205
5871,-0.195,-0.205
5872,-0.225,-0.195
5873,-0.245,-0.185
5874,-0.205,-0.205
5875,-0.155,-0.195
5876,-0.165,-0.185
5877,-0.175,-0.195
5878,-0.355,-0.175
5879,0.035,-0.175
5880,-0.215,-0.175
5881,-0.175,-0.155
5882,-0.095,-0.145
5883,-0.075,-0.115
5884,-0.275,-0.105
5885,-0.045,-0.105
5886,0.025,-0.175
5887,0.015,-0.215
5888,-0.015,-0.195
5889,0.035,-0.195
5890,-0.235,-0.235
5891,-0.195,-0.255
5892,-0.335,-0.245
5893,-0.295,-0.265
5894,-0.205,-0.265
5895,-0.215,-0.265
5896,-0.225,-0.235
5897,-0.205,-0.245
5898,-0.325,-0.225
5899,-0.165,-0.245
5900,-0.305,-0.245
5901,-0.615,-0.245
5902,-0.655,-0.245
5903,-0.015,-0.225
5904,1.135,0.025
5905,1.315,0.435
5906,0.475,-0.235
5907,-0.215,-1.775
5908,-0.395,-2.305
5909,-0.095,-1.805
5910,-0.055,-0.985
5911,-0.095,-0.335
5912,-0.075,-0.135
5913,-0.215,-0.035
5914,-0.255,-0.005
5915,-0.075,0.025
5916,-0.055,0.035
5917,-0.095,0.085
5918,-0.115,0.105
5919,-0.015,0.095
5920,-0.115,0.135
5921,-0.095,0.165
5922,-0.065,0.185
5923,-0.015,0.225
5924,0.005,0.265
5925,0.045,0.325
5926,0.205,0.385
5927,0.155,0.405
5928,0.195,0.475
5929,0.295,0.535
5930,0.315,0.555
5931,0.265,0.555
5932,0.285,0.575
5933,0.355,0.565
5934,0.305,0.525
5935,0.235,0.455
5936,0.195,0.355
5937,0.115,0.235
5938,0.035,0.125
5939,-0.065,0.025
5940,-0.165,-0.075
5941,-0.195,-0.145
5942,-0.125,-0.165
5943,-0.155,-0.185
5944,-0.155,-0.195
5945,-0.155,-0.205
5946,-0.235,-0.205
5947,-0.215,-0.185
5948,-0.165,-0.205
5949,-0.145,-0.195
5950,-0.175,-0.185
5951,-0.235,-0.185
5952,-0.075,-0.175
5953,-0.175,-0.175
5954,-0.155,-0.175
5955,-0.145,-0.155
5956,-0.225,-0.175
5957,-0.195,-0.165
5958,-0.115,-0.145
5959,-0.095,-0.115
5960,-0.145,-0.115
5961,0.035,-0.105
5962,0.075,-0.095
5963,-0.065,-0.145
5964,-0.125,-0.215
5965,-0.295,-0.195
5966,-0.205,-0.185
5967,-0.025,-0.205
5968,-0.355,-0.225
5969,-0.295,-0.245
5970,-0.365,-0.245
5971,-0.455,-0.255
5972,-0.185,-0.255
5973,-0.265,-0.235
5974,-0.105,-0.215
5975,-0.105,-0.205
5976,-0.185,-0.235
5977,-0.095,-0.215
5978,-0.405,-0.215
5979,-0.635,-0.235
5980,-0.305,-0.205
5981,0.905,-0.135
5982,1.515,0.235
5983,0.545,-0.125
5984,-0.225,-1.425
5985,-0.555,-2.125
5986,-0.225,-1.725
5987,0.035,-1.035
5988,-0.055,-0.425
5989,-0.135,-0.195
5990,-0.375,-0.085
5991,-0.225,-0.025
5992,-0.075,-0.005
5993,-0.095,0.025
5994,-0.075,0.045
5995,-0.165,0.055
5996,-0.045,0.105
5997,-0.035,0.115
5998,-0.305,0.135
5999,0.025,0.145
6000,-0.025,0.175
6001,-0.085,0.235
6002,0.055,0.285
6003,0.125,0.315
6004,0.175,0.355
6005,0.235,0.425
6006,0.265,0.495
6007,0.275,0.525
6008,0.295,0.545
6009,0.365,0.535
6010,0.275,0.555
6011,0.255,0.525
6012,0.355,0.435
6013,0.175,0.375
6014,0.115,0.265
6015,-0.045,0.145
6016,-0.135,0.035
6017,-0.185,-0.045
6018,-0.125,-0.105
6019,-0.165,-0.125
6020,-0.205,-0.175
6021,-0.055,-0.165
6022,-0.165,-0.155
6023,-0.195,-0.175
6024,-0.235,-0.195
6025,-0.235,-0.165
6026,-0.275,-0.155
6027,-0.245,-0.195
6028,-0.205,-0.155
6029,-0.265,-0.165
6030,-0.085,-0.155
6031,-0.235,-0.145
6032,-0.175,-0.125
6033,-0.205,-0.145
6034,-0.065,-0.155
6035,-0.055,-0.125
6036,-0.195,-0.105
6037,-0.235,-0.065
6038,-0.045,-0.095
6039,-0.065,-0.055
6040,-0.125,-0.115
6041,-0.025,-0.175
6042,-0.225,-0.175
6043,0.035,-0.205
6044,-0.095,-0.215
6045,-0.345,-0.205
6046,-0.425,-0.175
6047,-0.515,-0.215
6048,-0.355,-0.215
6049,-0.165,-0.215
6050,-0.405,-0.195
6051,-0.295,-0.215
6052,-0.345,-0.215
6053,-0.245,-0.225
6054,-0.215,-0.215
6055,-0.635,-0.185
6056,-0.855,-0.195
6057,-0.625,-0.175
6058,0.555,-0.105
6059,1.545,0.135
6060,0.555,-0.185
6061,-0.335,-1.345
6062,-0.785,-2.145
6063,-0.355,-1.845
6064,-0.105,-1.085
6065,-0.075,-0.365
6066,-0.235,-0.105
6067,-0.395,-0.015
6068,-0.265,0.005
6069,-0.165,0.045
6070,-0.175,0.105
6071,-0.315,0.125
6072,-0.155,0.105
6073,-0.275,0.165
6074,-0.075,0.185
6075,-0.135,0.185
6076,-0.055,0.205
6077,-0.015,0.275
6078,-0.035,0.305
6079,-0.075,0.325
6080,0.035,0.375
6081,0.005,0.445
6082,0.005,0.505
6083,0.185,0.565
6084,0.215,0.615
6085,0.325,0.625
6086,0.325,0.685
6087,0.435,0.655
6088,0.415,0.645
6089,0.385,0.595
6090,0.205,0.505
6091,0.135,0.385
6092,0.005,0.225
6093,-0.095,0.135
6094,-0.115,0.045
6095,-0.135,-0.025
6096,-0.165,-0.095
6097,-0.245,-0.095
6098,-0.285,-0.135
6099,-0.215,-0.135
6100,-0.315,-0.125
6101,-0.225,-0.135
6102,-0.165,-0.125
6103,-0.275,-0.115
6104,-0.175,-0.135
6105,-0.225,-0.105
6106,-0.165,-0.115
6107,-0.245,-0.105
6108,-0.185,-0.095
6109,-0.305,-0.075
6110,-0.375,-0.075
6111,-0.275,-0.095
6112,-0.235,-0.105
6113,-0.215,-0.115
6114,-0.325,-0.085
6115,-0.165,-0.045
6116,-0.035,-0.045
6117,-0.125,-0.045
6118,0.035,-0.025
6119,-0.095,-0.055
6120,-0.135,-0.115
6121,0.015,-0.115
6122,-0.105,-0.095
6123,-0.235,-0.135
6124,-0.375,-0.155
6125,-0.265,-0.165
6126,-0.265,-0.155
6127,-0.255,-0.155
6128,-0.285,-0.145
6129,-0.265,-0.155
6130,-0.295,-0.155
6131,-0.345,-0.135
6132,-0.295,-0.125
6133,-0.155,-0.125
6134,-0.405,-0.115
6135,-0.855,-0.095
6136,-0.425,-0.065
6137,0.765,-0.015
6138,1.395,0.165
6139,0.475,-0.205
6140,-0.345,-1.095
6141,-0.495,-1.525
6142,-0.265,-1.295
6143,-0.095,-0.845
6144,-0.225,-0.355
6145,-0.375,-0.105
6146,-0.225,0.025
6147,-0.165,0.075
6148,-0.185,0.085
6149,-0.235,0.115
6150,-0.185,0.125
6151,-0.145,0.125
6152,-0.135,0.145
6153,-0.165,0.175
6154,-0.105,0.185
6155,-0.055,0.225
6156,-0.035,0.235
6157,-0.035,0.265
6158,0.015,0.315
6159,0.045,0.365
6160,0.065,0.385
6161,0.135,0.435
6162,0.055,0.465
6163,0.215,0.475
6164,0.295,0.465
6165,0.205,0.495
6166,0.245,0.475
6167,0.165,0.445
6168,0.185,0.385
6169,0.115,0.305
6170,-0.025,0.235
6171,-0.095,0.135
6172,-0.215,0.065
6173,-0.205,0.025
6174,-0.345,-0.025
6175,-0.215,-0.055
6176,-0.265,-0.065
6177,-0.315,-0.065
6178,-0.305,-0.075
6179,-0.315,-0.085
6180,-0.275,-0.085
6181,-0.285,-0.075
6182,-0.365,-0.065
6183,-0.345,-0.075
6184,-0.265,-0.075
6185,-0.255,-0.065
6186,-0.235,-0.065
6187,-0.285,-0.055
6188,-0.305,-0.075
6189,-0.305,-0.065
6190,-0.325,-0.055
6191,-0.295,-0.065
6192,-0.275,-0.065
6193,-0.235,-0.045
6194,-0.255,-0.015
6195,-0.225,-0.025
6196,-0.165,-0.025
6197,-0.195,-0.015
6198,-0.235,-0.055
6199,-0.175,-0.075
6200,-0.245,-0.085
6201,-0.315,-0.085
6202,-0.385,-0.095
6203,-0.485,-0.095
6204,-0.405,-0.115
6205,-0.395,-0.115
6206,-0.435,-0.115
6207,-0.385,-0.115
6208,-0.475,-0.115
6209,-0.485,-0.115
6210,-0.365,-0.125
6211,-0.335,-0.105
6212,-0.475,-0.105
6213,-0.775,-0.105
6214,-0.695,-0.055
6215,-0.055,-0.025
6216,1.095,0.015
6217,0.795,-0.025
6218,-0.265,-0.735
6219,-0.735,-1.465
6220,-0.705,-1.605
6221,-0.335,-1.305
6222,-0.255,-0.685
6223,-0.345,-0.235
6224,-0.345,-0.035
6225,-0.335,0.045
6226,-0.315,0.095
6227,-0.285,0.115
6228,-0.225,0.125
6229,-0.275,0.165
6230,-0.285,0.165
6231,-0.235,0.185
6232,-0.275,0.205
6233,-0.215,0.225
6234,-0.135,0.265
6235,-0.075,0.285
6236,-0.085,0.315
6237,-0.095,0.365
6238,0.035,0.425
6239,0.075,0.465
6240,0.105,0.525
6241,0.155,0.565
6242,0.195,0.595
6243,0.225,0.615
6244,0.215,0.605
6245,0.255,0.595
6246,0.215,0.555
6247,0.095,0.485
6248,0.045,0.365
6249,-0.025,0.245
6250,-0.125,0.145
6251,-0.225,0.075
6252,-0.235,0.005
6253,-0.255,-0.035
6254,-0.275,-0.055
6255,-0.265,-0.075
6256,-0.265,-0.105
6257,-0.325,-0.085
6258,-0.295,-0.085
6259,-0.255,-0.085
6260,-0.185,-0.075
6261,-0.215,-0.065
6262,-0.255,-0.075
6263,-0.235,-0.075
6264,-0.215,-0.085
6265,-0.235,-0.065
6266,-0.235,-0.085
6267,-0.215,-0.085
6268,-0.255,-0.095
6269,-0.235,-0.085
6270,-0.205,-0.085
6271,-0.175,-0.075
6272,-0.205,-0.055
6273,-0.165,-0.045
6274,-0.085,-0.035
6275,-0.065,-0.045
6276,-0.125,-0.085
6277,-0.125,-0.135
6278,-0.135,-0.095
6279,-0.185,-0.115
6280,-0.245,-0.135
6281,-0.315,-0.175
6282,-0.325,-0.155
6283,-0.305,-0.195
6284,-0.305,-0.195
6285,-0.235,-0.185
6286,-0.235,-0.145
6287,-0.355,-0.165
6288,-0.305,-0.185
6289,-0.305,-0.165
6290,-0.315,-0.175
6291,-0.445,-0.165
6292,-0.585,-0.125
6293,-0.365,0.005
6294,0.735,0.025
6295,1.445,0.175
6296,0.535,-0.255
6297,-0.405,-1.455
6298,-0.715,-2.045
6299,-0.565,-1.785
6300,-0.225,-1.135
6301,-0.245,-0.425
6302,-0.265,-0.195
6303,-0.275,-0.065
6304,-0.255,0.005
6305,-0.165,0.025
6306,-0.035,0.045
6307,-0.045,0.065
6308,-0.085,0.065
6309,-0.125,0.105
6310,-0.095,0.125
6311,-0.035,0.125
6312,-0.005,0.155
6313,-0.125,0.195
6314,-0.075,0.215
6315,0.155,0.245
6316,0.155,0.275
6317,0.215,0.325
6318,0.235,0.405
6319,0.175,0.445
6320,0.285,0.475
6321,0.415,0.495
6322,0.375,0.495
6323,0.345,0.465
6324,0.325,0.455
6325,0.245,0.415
6326,0.185,0.355
6327,0.155,0.275
6328,0.065,0.155
6329,-0.025,0.065
6330,-0.105,0.005
6331,-0.085,-0.055
6332,-0.115,-0.095
6333,-0.165,-0.105
6334,-0.225,-0.125
6335,-0.175,-0.145
6336,-0.245,-0.135
6337,-0.205,-0.135
6338,-0.135,-0.125
6339,-0.145,-0.125
6340,-0.145,-0.135
6341,-0.155,-0.125
6342,-0.195,-0.125
6343,-0.115,-0.125
6344,-0.155,-0.135
6345,-0.135,-0.125
6346,-0.105,-0.095
6347,-0.145,-0.105
6348,-0.125,-0.115
6349,-0.095,-0.095
6350,-0.105,-0.065
6351,-0.125,-0.065
6352,0.025,-0.085
6353,0.075,-0.075
6354,-0.035,-0.105
6355,0.015,-0.165
6356,-0.055,-0.165
6357,-0.035,-0.155
6358,-0.225,-0.185
6359,-0.245,-0.215
6360,-0.225,-0.215
6361,-0.215,-0.215
6362,-0.185,-0.215
6363,-0.225,-0.215
6364,-0.215,-0.225
6365,-0.185,-0.215
6366,-0.165,-0.205
6367,-0.215,-0.205
6368,-0.215,-0.225
6369,-0.605,-0.195
6370,-0.665,-0.175
6371,-0.155,-0.105
6372,1.065,-0.055
6373,1.635,0.105
6374,0.385,-0.425
6375,-0.415,-1.505
6376,-0.615,-2.015
6377,-0.255,-1.625
6378,-0.145,-0.855
6379,-0.085,-0.325
6380,-0.085,-0.135
6381,-0.165,-0.055
6382,-0.165,-0.025
6383,-0.065,0.005
6384,-0.125,0.015
6385,-0.045,0.045
6386,-0.135,0.065
6387,-0.035,0.075
6388,-0.025,0.095
6389,-0.005,0.115
6390,-0.005,0.145
6391,0.035,0.165
6392,0.065,0.195
6393,0.145,0.245
6394,0.185,0.305
6395,0.185,0.355
6396,0.105,0.395
6397,0.365,0.445
6398,0.425,0.485
6399,0.335,0.515
6400,0.275,0.485
6401,0.345,0.465
6402,0.385,0.445
6403,0.325,0.395
6404,0.275,0.325
6405,0.085,0.225
6406,0.015,0.085
6407,-0.015,-0.005
6408,-0.025,-0.085
6409,-0.075,-0.125
6410,-0.085,-0.155
6411,-0.115,-0.185
6412,-0.255,-0.205
6413,-0.165,-0.225
6414,-0.125,-0.205
6415,-0.185,-0.205
6416,-0.095,-0.205
6417,-0.195,-0.185
6418,-0.145,-0.185
6419,-0.115,-0.185
6420,-0.165,-0.205
6421,-0.195,-0.185
6422,-0.135,-0.175
6423,-0.095,-0.195
6424,-0.095,-0.185
6425,-0.085,-0.185
6426,-0.075,-0.165
6427,-0.115,-0.145
6428,-0.195,-0.145
6429,-0.035,-0.145
6430,0.115,-0.125
6431,0.025,-0.135
6432,-0.095,-0.195
6433,-0.065,-0.225
6434,-0.045,-0.215
6435,-0.115,-0.205
6436,-0.205,-0.245
6437,-0.225,-0.265
6438,-0.205,-0.265
6439,-0.235,-0.265
6440,-0.245,-0.275
6441,-0.215,-0.265
6442,-0.225,-0.255
6443,-0.215,-0.255
6444,-0.275,-0.255
6445,-0.245,-0.255
6446,-0.285,-0.255
6447,-0.555,-0.245
6448,-0.595,-0.235
6449,0.175,-0.165
6450,1.355,-0.005
6451,1.275,0.115
6452,0.035,-0.745
6453,-0.505,-1.865
6454,-0.465,-2.045
6455,-0.135,-1.515
6456,-0.135,-0.695
6457,-0.095,-0.255
6458,-0.125,-0.105
6459,-0.175,-0.045
6460,-0.175,-0.025
6461,-0.165,0.015
6462,-0.115,0.035
6463,-0.105,0.035
6464,-0.055,0.075
6465,-0.085,0.105
6466,-0.085,0.115
6467,-0.055,0.115
6468,-0.045,0.155
6469,-0.035,0.185
6470,0.025,0.225
6471,0.075,0.285
6472,0.095,0.335
6473,0.215,0.405
6474,0.255,0.445
6475,0.325,0.505
6476,0.295,0.525
6477,0.335,0.545
6478,0.385,0.535
6479,0.345,0.525
6480,0.255,0.465
6481,0.235,0.405
6482,0.225,0.325
6483,0.075,0.215
6484,-0.075,0.085
6485,-0.095,-0.015
6486,-0.055,-0.085
6487,-0.095,-0.125
6488,-0.185,-0.185
6489,-0.185,-0.225
6490,-0.205,-0.215
6491,-0.215,-0.225
6492,-0.185,-0.235
6493,-0.185,-0.215
6494,-0.145,-0.205
6495,-0.145,-0.215
6496,-0.225,-0.225
6497,-0.155,-0.215
6498,-0.115,-0.205
6499,-0.125,-0.205
6500,-0.155,-0.205
6501,-0.125,-0.215
6502,-0.145,-0.185
6503,-0.145,-0.195
6504,-0.095,-0.175
6505,-0.105,-0.145
6506,0.035,-0.135
6507,0.015,-0.135
6508,-0.005,-0.145
6509,0.025,-0.185
6510,0.045,-0.225
6511,-0.065,-0.205
6512,-0.065,-0.235
6513,-0.205,-0.245
6514,-0.215,-0.275
6515,-0.205,-0.255
6516,-0.145,-0.285
6517,-0.215,-0.275
6518,-0.175,-0.265
6519,-0.165,-0.265
6520,-0.195,-0.255
6521,-0.165,-0.255
6522,-0.185,-0.245
6523,-0.185,-0.265
6524,-0.405,-0.265
6525,-0.695,-0.245
6526,-0.345,-0.185
6527,1.035,-0.155
6528,1.455,0.125
6529,0.255,-0.425
6530,-0.425,-1.735
6531,-0.395,-2.205
6532,-0.065,-1.785
6533,-0.025,-0.975
6534,-0.085,-0.355
6535,-0.105,-0.145
6536,-0.105,-0.065
6537,-0.135,-0.015
6538,-0.135,0.025
6539,-0.045,0.025
6540,-0.055,0.065
6541,0.015,0.065
6542,-0.035,0.085
6543,-0.135,0.095
6544,0.035,0.125
6545,0.095,0.145
6546,0.085,0.205
6547,0.085,0.225
6548,0.115,0.245
6549,0.135,0.315
6550,0.205,0.375
6551,0.275,0.425
6552,0.345,0.465
6553,0.355,0.515
6554,0.395,0.525
6555,0.405,0.535
6556,0.375,0.505
6557,0.375,0.475
6558,0.325,0.445
6559,0.285,0.355
6560,0.075,0.255
6561,0.055,0.125
6562,0.015,0.035
6563,-0.035,-0.045
6564,-0.115,-0.095
6565,-0.135,-0.125
6566,-0.125,-0.155
6567,-0.155,-0.155
6568,-0.125,-0.175
6569,-0.105,-0.185
6570,-0.135,-0.165
6571,-0.225,-0.165
6572,-0.135,-0.165
6573,-0.075,-0.155
6574,-0.075,-0.145
6575,-0.135,-0.145
6576,-0.145,-0.155
6577,-0.165,-0.155
6578,-0.115,-0.155
6579,-0.155,-0.145
6580,-0.055,-0.145
6581,-0.005,-0.105
6582,-0.015,-0.085
6583,0.005,-0.105
6584,0.055,-0.085
6585,0.025,-0.075
6586,0.015,-0.125
6587,-0.015,-0.185
6588,-0.025,-0.175
