'sample interval','ECG1','ECG2'
'0.0078125 sec','mV','mV'
0,-0.215,-0.015
1,-0.195,-0.005
2,-0.185,0.015
3,-0.175,0.025
4,-0.185,0.025
5,-0.145,0.055
6,-0.125,0.055
7,-0.095,0.065
8,-0.055,0.075
9,-0.025,0.085
10,0.025,0.105
11,0.075,0.105
12,0.105,0.095
13,0.155,0.085
14,0.175,0.095
15,0.195,0.075
16,0.215,0.075
17,0.215,0.055
18,0.165,0.045
19,0.105,0.025
20,0.045,-0.015
21,0.005,-0.025
22,-0.045,-0.055
23,-0.075,-0.075
24,-0.085,-0.085
25,-0.115,-0.085
26,-0.115,-0.085
27,-0.125,-0.085
28,-0.115,-0.095
29,-0.115,-0.085
30,-0.105,-0.085
31,-0.105,-0.085
32,-0.095,-0.075
33,-0.065,-0.045
34,-0.035,-0.045
35,-0.025,-0.035
36,-0.005,-0.035
37,0.035,-0.015
38,0.115,-0.055
39,0.155,-0.075
40,0.155,-0.085
41,0.155,-0.095
42,0.115,-0.115
43,0.065,-0.115
44,0.015,-0.145
45,-0.035,-0.165
46,-0.085,-0.195
47,-0.115,-0.195
48,-0.115,-0.195
49,-0.105,-0.195
50,-0.105,-0.135
51,-0.285,-0.075
52,-0.515,0.015
53,-0.315,0.045
54,0.315,-0.215
55,0.835,-0.785
56,0.605,-0.795
57,0.145,-0.665
58,-0.145,-0.455
59,-0.215,-0.235
60,-0.185,-0.165
61,-0.105,-0.185
62,-0.055,-0.195
63,-0.025,-0.205
64,-0.025,-0.185
65,-0.025,-0.195
66,-0.005,-0.195
67,0.005,-0.185
68,0.025,-0.195
69,0.045,-0.195
70,0.055,-0.185
71,0.075,-0.175
72,0.085,-0.155
73,0.125,-0.135
74,0.145,-0.135
75,0.175,-0.125
76,0.195,-0.115
77,0.235,-0.095
78,0.275,-0.105
79,0.325,-0.095
80,0.365,-0.105
81,0.405,-0.095
82,0.435,-0.105
83,0.455,-0.115
84,0.455,-0.135
85,0.455,-0.135
86,0.445,-0.155
87,0.405,-0.185
88,0.365,-0.205
89,0.315,-0.225
90,0.285,-0.245
91,0.235,-0.255
92,0.215,-0.255
93,0.225,-0.255
94,0.215,-0.255
95,0.215,-0.255
96,0.215,-0.255
97,0.235,-0.245
98,0.235,-0.255
99,0.215,-0.255
100,0.215,-0.245
101,0.225,-0.205
102,0.245,-0.195
103,0.285,-0.195
104,0.305,-0.175
105,0.345,-0.165
106,0.355,-0.185
107,0.395,-0.205
108,0.405,-0.205
109,0.425,-0.215
110,0.405,-0.245
111,0.375,-0.245
112,0.355,-0.255
113,0.295,-0.295
114,0.245,-0.315
115,0.205,-0.325
116,0.175,-0.325
117,0.165,-0.305
118,0.195,-0.305
119,0.115,-0.265
120,-0.155,-0.155
121,-0.185,-0.025
122,0.295,-0.205
123,0.935,-0.725
124,0.925,-1.115
125,0.375,-0.935
126,0.065,-0.625
127,0.065,-0.355
128,0.115,-0.265
129,0.145,-0.295
130,0.165,-0.295
131,0.145,-0.295
132,0.165,-0.295
133,0.175,-0.285
134,0.175,-0.275
135,0.175,-0.275
136,0.185,-0.265
137,0.215,-0.255
138,0.225,-0.245
139,0.225,-0.235
140,0.235,-0.225
141,0.265,-0.215
142,0.275,-0.185
143,0.305,-0.175
144,0.325,-0.145
145,0.355,-0.135
146,0.385,-0.115
147,0.415,-0.105
148,0.445,-0.105
149,0.505,-0.115
150,0.535,-0.125
151,0.555,-0.125
152,0.565,-0.135
153,0.575,-0.145
154,0.545,-0.165
155,0.475,-0.205
156,0.415,-0.225
157,0.375,-0.255
158,0.325,-0.285
159,0.305,-0.295
160,0.275,-0.295
161,0.255,-0.295
162,0.245,-0.305
163,0.235,-0.305
164,0.225,-0.295
165,0.235,-0.285
166,0.245,-0.295
167,0.245,-0.285
168,0.255,-0.285
169,0.245,-0.255
170,0.255,-0.235
171,0.285,-0.225
172,0.305,-0.225
173,0.325,-0.195
174,0.345,-0.205
175,0.415,-0.235
176,0.435,-0.235
177,0.435,-0.225
178,0.415,-0.255
179,0.365,-0.255
180,0.345,-0.265
181,0.275,-0.285
182,0.225,-0.305
183,0.155,-0.325
184,0.145,-0.325
185,0.125,-0.325
186,0.115,-0.325
187,0.105,-0.285
188,-0.115,-0.235
189,-0.345,-0.075
190,-0.145,-0.125
191,0.545,-0.405
192,1.035,-1.035
193,0.655,-1.005
194,0.105,-0.785
195,-0.075,-0.465
196,-0.015,-0.255
197,0.055,-0.245
198,0.095,-0.265
199,0.105,-0.265
200,0.105,-0.265
201,0.115,-0.245
202,0.105,-0.245
203,0.105,-0.235
204,0.115,-0.215
205,0.135,-0.215
206,0.145,-0.215
207,0.145,-0.205
208,0.165,-0.175
209,0.185,-0.165
210,0.205,-0.135
211,0.215,-0.135
212,0.225,-0.105
213,0.265,-0.075
214,0.305,-0.065
215,0.335,-0.045
216,0.385,-0.035
217,0.425,-0.025
218,0.455,-0.045
219,0.465,-0.045
220,0.475,-0.035
221,0.505,-0.045
222,0.475,-0.065
223,0.435,-0.105
224,0.375,-0.135
225,0.285,-0.155
226,0.225,-0.185
227,0.165,-0.195
228,0.155,-0.205
229,0.155,-0.215
230,0.135,-0.215
231,0.145,-0.205
232,0.145,-0.205
233,0.145,-0.205
234,0.125,-0.185
235,0.115,-0.195
236,0.115,-0.185
237,0.125,-0.155
238,0.145,-0.145
239,0.185,-0.135
240,0.185,-0.125
241,0.235,-0.105
242,0.255,-0.105
243,0.305,-0.135
244,0.315,-0.135
245,0.325,-0.145
246,0.295,-0.165
247,0.255,-0.175
248,0.225,-0.175
249,0.155,-0.205
250,0.095,-0.215
251,0.005,-0.235
252,-0.005,-0.245
253,-0.015,-0.225
254,-0.015,-0.215
255,-0.015,-0.175
256,-0.295,-0.115
257,-0.455,-0.005
258,-0.205,-0.095
259,0.465,-0.385
260,0.865,-0.945
261,0.475,-0.855
262,-0.035,-0.665
263,-0.195,-0.385
264,-0.175,-0.175
265,-0.095,-0.135
266,-0.035,-0.155
267,-0.015,-0.155
268,-0.035,-0.155
269,-0.035,-0.145
270,-0.015,-0.145
271,0.005,-0.145
272,-0.005,-0.155
273,0.005,-0.145
274,0.015,-0.125
275,0.015,-0.125
276,0.015,-0.105
277,0.045,-0.085
278,0.045,-0.065
279,0.065,-0.065
280,0.105,-0.035
281,0.135,-0.025
282,0.135,-0.005
283,0.175,0.005
284,0.235,0.005
285,0.295,0.015
286,0.325,0.005
287,0.355,-0.005
288,0.365,-0.005
289,0.365,-0.015
290,0.335,-0.035
291,0.295,-0.045
292,0.225,-0.075
293,0.175,-0.105
294,0.095,-0.135
295,0.045,-0.155
296,0.015,-0.165
297,-0.005,-0.155
298,-0.035,-0.165
299,-0.035,-0.155
300,-0.045,-0.165
301,-0.045,-0.165
302,-0.045,-0.155
303,-0.045,-0.165
304,-0.045,-0.145
305,-0.045,-0.125
306,-0.035,-0.125
307,-0.025,-0.105
308,0.005,-0.085
309,0.045,-0.075
310,0.085,-0.115
311,0.115,-0.125
312,0.135,-0.115
313,0.135,-0.135
314,0.105,-0.155
315,0.045,-0.155
316,-0.005,-0.185
317,-0.065,-0.215
318,-0.115,-0.225
319,-0.175,-0.235
320,-0.195,-0.225
321,-0.195,-0.225
322,-0.205,-0.155
323,-0.325,-0.065
324,-0.555,-0.005
325,-0.455,0.015
326,0.035,-0.225
327,0.545,-0.765
328,0.515,-0.765
329,0.165,-0.655
330,-0.215,-0.485
331,-0.385,-0.255
332,-0.385,-0.165
333,-0.295,-0.175
334,-0.255,-0.175
335,-0.215,-0.175
336,-0.225,-0.175
337,-0.225,-0.165
338,-0.225,-0.155
339,-0.215,-0.145
340,-0.215,-0.155
341,-0.195,-0.145
342,-0.195,-0.135
343,-0.185,-0.125
344,-0.175,-0.105
345,-0.165,-0.095
346,-0.145,-0.085
347,-0.135,-0.055
348,-0.095,-0.065
349,-0.075,-0.035
350,-0.015,-0.035
351,0.025,-0.035
352,0.055,-0.035
353,0.105,-0.025
354,0.125,-0.035
355,0.135,-0.045
356,0.145,-0.045
357,0.125,-0.045
358,0.095,-0.065
359,0.045,-0.085
360,-0.015,-0.095
361,-0.045,-0.105
362,-0.125,-0.135
363,-0.185,-0.145
364,-0.195,-0.145
365,-0.195,-0.145
366,-0.215,-0.145
367,-0.215,-0.155
368,-0.215,-0.145
369,-0.225,-0.135
370,-0.225,-0.125
371,-0.235,-0.115
372,-0.215,-0.095
373,-0.195,-0.085
374,-0.175,-0.075
375,-0.155,-0.075
376,-0.135,-0.045
377,-0.105,-0.045
378,-0.055,-0.065
379,-0.035,-0.065
380,-0.035,-0.065
381,-0.015,-0.075
382,-0.045,-0.105
383,-0.085,-0.095
384,-0.115,-0.135
385,-0.205,-0.155
386,-0.275,-0.175
387,-0.315,-0.175
388,-0.345,-0.165
389,-0.335,-0.155
390,-0.335,-0.125
391,-0.465,-0.065
392,-0.735,0.045
393,-0.685,0.135
394,-0.135,-0.065
395,0.535,-0.485
396,0.585,-0.785
397,0.045,-0.645
398,-0.405,-0.435
399,-0.515,-0.195
400,-0.475,-0.095
401,-0.405,-0.105
402,-0.365,-0.125
403,-0.365,-0.115
404,-0.365,-0.115
405,-0.335,-0.105
406,-0.315,-0.105
407,-0.315,-0.095
408,-0.285,-0.085
409,-0.275,-0.085
410,-0.275,-0.085
411,-0.265,-0.065
412,-0.255,-0.055
413,-0.235,-0.035
414,-0.215,-0.025
415,-0.195,-0.015
416,-0.145,0.015
417,-0.105,0.025
418,-0.065,0.025
419,-0.035,0.045
420,0.005,0.035
421,0.055,0.035
422,0.085,0.025
423,0.105,0.025
424,0.115,0.015
425,0.095,0.005
426,0.045,-0.005
427,-0.005,-0.015
428,-0.075,-0.045
429,-0.115,-0.055
430,-0.155,-0.075
431,-0.175,-0.085
432,-0.205,-0.095
433,-0.235,-0.075
434,-0.225,-0.085
435,-0.235,-0.085
436,-0.235,-0.085
437,-0.235,-0.055
438,-0.225,-0.065
439,-0.225,-0.055
440,-0.215,-0.035
441,-0.185,-0.005
442,-0.155,-0.005
443,-0.155,0.015
444,-0.115,0.015
445,-0.055,0.015
446,-0.005,-0.015
447,-0.015,-0.025
448,-0.015,-0.025
449,-0.045,-0.035
450,-0.085,-0.055
451,-0.135,-0.065
452,-0.205,-0.075
453,-0.245,-0.105
454,-0.305,-0.115
455,-0.325,-0.115
456,-0.315,-0.105
457,-0.315,-0.105
458,-0.375,-0.045
459,-0.655,0.025
460,-0.785,0.175
461,-0.415,0.045
462,0.285,-0.235
463,0.635,-0.835
464,0.205,-0.745
465,-0.335,-0.505
466,-0.505,-0.195
467,-0.465,-0.015
468,-0.365,-0.015
469,-0.315,-0.045
470,-0.315,-0.045
471,-0.325,-0.035
472,-0.305,-0.025
473,-0.285,-0.035
474,-0.295,-0.035
475,-0.295,-0.015
476,-0.285,-0.015
477,-0.255,-0.005
478,-0.255,0.015
479,-0.255,0.035
480,-0.205,0.055
481,-0.175,0.085
482,-0.185,0.085
483,-0.155,0.125
484,-0.135,0.135
485,-0.075,0.155
486,-0.035,0.165
487,0.015,0.155
488,0.055,0.165
489,0.095,0.155
490,0.105,0.145
491,0.115,0.145
492,0.095,0.125
493,0.075,0.105
494,0.025,0.065
495,-0.035,0.025
496,-0.095,0.005
497,-0.155,-0.005
498,-0.185,-0.015
499,-0.225,-0.025
500,-0.235,-0.025
501,-0.215,-0.025
502,-0.225,-0.025
503,-0.225,-0.015
504,-0.205,-0.015
505,-0.225,-0.005
506,-0.215,-0.005
507,-0.225,0.025
508,-0.195,0.045
509,-0.165,0.045
510,-0.155,0.065
511,-0.105,0.065
512,-0.065,0.055
513,0.005,0.035
514,0.005,0.045
515,-0.005,0.025
516,-0.035,0.005
517,-0.065,0.005
518,-0.105,-0.015
519,-0.155,-0.035
520,-0.245,-0.065
521,-0.285,-0.075
522,-0.325,-0.065
523,-0.345,-0.055
524,-0.315,-0.055
525,-0.305,0.005
526,-0.565,0.045
527,-0.735,0.175
528,-0.545,0.105
529,0.115,-0.135
530,0.595,-0.745
531,0.285,-0.735
532,-0.265,-0.525
533,-0.505,-0.235
534,-0.465,-0.015
535,-0.395,0.015
536,-0.315,0.005
537,-0.325,-0.005
538,-0.325,0.005
539,-0.335,0.005
540,-0.315,0.005
541,-0.295,0.015
542,-0.285,0.025
543,-0.285,0.015
544,-0.265,0.025
545,-0.255,0.045
546,-0.245,0.055
547,-0.245,0.065
548,-0.235,0.095
549,-0.185,0.105
550,-0.175,0.115
551,-0.155,0.145
552,-0.095,0.145
553,-0.045,0.165
554,-0.035,0.175
555,-0.005,0.175
556,0.015,0.185
557,0.075,0.175
558,0.085,0.155
559,0.085,0.145
560,0.095,0.135
561,0.045,0.115
562,-0.015,0.085
563,-0.095,0.055
564,-0.155,0.025
565,-0.205,0.015
566,-0.225,-0.005
567,-0.245,-0.005
568,-0.245,-0.015
569,-0.275,0.015
570,-0.265,-0.005
571,-0.285,-0.005
572,-0.275,0.005
573,-0.275,0.005
574,-0.275,0.005
575,-0.285,0.025
576,-0.255,0.045
577,-0.235,0.065
578,-0.205,0.065
579,-0.195,0.085
580,-0.175,0.085
581,-0.085,0.055
582,-0.075,0.045
583,-0.065,0.045
584,-0.075,0.025
585,-0.115,0.015
586,-0.155,-0.005
587,-0.245,-0.025
588,-0.315,-0.055
589,-0.355,-0.065
590,-0.365,-0.065
591,-0.365,-0.055
592,-0.365,-0.055
593,-0.395,0.025
594,-0.595,0.105
595,-0.765,0.175
596,-0.585,0.165
597,0.065,-0.055
598,0.605,-0.625
599,0.355,-0.605
600,-0.175,-0.465
601,-0.505,-0.245
602,-0.555,-0.055
603,-0.535,-0.005
604,-0.425,-0.015
605,-0.395,-0.015
606,-0.395,-0.005
607,-0.375,-0.005
608,-0.365,-0.005
609,-0.365,0.005
610,-0.345,0.015
611,-0.355,0.015
612,-0.345,0.015
613,-0.325,0.025
614,-0.325,0.045
615,-0.285,0.055
616,-0.255,0.085
617,-0.255,0.085
618,-0.225,0.115
619,-0.195,0.125
620,-0.145,0.125
621,-0.095,0.145
622,-0.055,0.155
623,0.005,0.145
624,0.025,0.125
625,0.055,0.135
626,0.085,0.135
627,0.065,0.125
628,0.045,0.105
629,-0.005,0.105
630,-0.055,0.065
631,-0.125,0.055
632,-0.175,0.055
633,-0.215,0.045
634,-0.225,0.025
635,-0.265,0.025
636,-0.265,0.025
637,-0.265,0.035
638,-0.265,0.035
639,-0.255,0.035
640,-0.255,0.035
641,-0.255,0.045
642,-0.265,0.055
643,-0.255,0.065
644,-0.225,0.095
645,-0.185,0.105
646,-0.175,0.105
647,-0.115,0.115
648,-0.095,0.105
649,-0.035,0.085
650,-0.035,0.085
651,-0.025,0.065
652,-0.045,0.065
653,-0.065,0.045
654,-0.105,0.045
655,-0.165,0.005
656,-0.225,-0.015
657,-0.285,-0.025
658,-0.295,-0.025
659,-0.325,-0.025
660,-0.325,-0.025
661,-0.335,0.015
662,-0.515,0.065
663,-0.775,0.215
664,-0.615,0.205
665,0.045,-0.015
666,0.635,-0.645
667,0.385,-0.735
668,-0.195,-0.525
669,-0.485,-0.205
670,-0.465,0.025
671,-0.405,0.055
672,-0.325,0.025
673,-0.305,0.035
674,-0.325,0.035
675,-0.325,0.045
676,-0.335,0.045
677,-0.295,0.055
678,-0.305,0.055
679,-0.295,0.055
680,-0.265,0.065
681,-0.265,0.085
682,-0.245,0.095
683,-0.235,0.105
684,-0.245,0.105
685,-0.205,0.135
686,-0.185,0.155
687,-0.165,0.165
688,-0.105,0.185
689,-0.055,0.215
690,-0.025,0.215
691,0.035,0.215
692,0.065,0.225
693,0.105,0.205
694,0.105,0.195
695,0.115,0.185
696,0.115,0.165
697,0.065,0.145
698,0.015,0.115
699,-0.045,0.075
700,-0.105,0.055
701,-0.145,0.035
702,-0.175,0.025
703,-0.195,0.025
704,-0.185,0.005
705,-0.185,0.025
706,-0.215,0.025
707,-0.205,0.025
708,-0.225,0.025
709,-0.185,0.045
710,-0.175,0.035
711,-0.185,0.045
712,-0.165,0.075
713,-0.135,0.095
714,-0.115,0.105
715,-0.085,0.105
716,-0.075,0.125
717,-0.005,0.115
718,0.045,0.075
719,0.015,0.075
720,0.045,0.065
721,-0.005,0.045
722,-0.055,0.035
723,-0.105,0.025
724,-0.175,-0.015
725,-0.235,-0.035
726,-0.265,-0.025
727,-0.275,-0.025
728,-0.265,-0.035
729,-0.255,-0.015
730,-0.385,0.015
731,-0.685,0.165
732,-0.655,0.245
733,-0.015,0.035
734,0.675,-0.595
735,0.555,-0.805
736,-0.085,-0.585
737,-0.405,-0.235
738,-0.375,-0.015
739,-0.295,0.025
740,-0.265,0.015
741,-0.235,0.015
742,-0.245,0.015
743,-0.235,0.025
744,-0.235,0.025
745,-0.205,0.045
746,-0.195,0.045
747,-0.205,0.045
748,-0.205,0.065
749,-0.175,0.075
750,-0.145,0.095
751,-0.115,0.095
752,-0.105,0.115
753,-0.085,0.145
754,-0.065,0.165
755,-0.035,0.185
756,0.005,0.195
757,0.055,0.215
758,0.095,0.225
759,0.145,0.225
760,0.205,0.235
761,0.215,0.225
762,0.215,0.215
763,0.215,0.195
764,0.205,0.175
765,0.175,0.155
766,0.125,0.105
767,0.065,0.075
768,0.005,0.045
769,-0.025,0.035
770,-0.075,0.025
771,-0.095,0.035
772,-0.095,0.025
773,-0.075,0.035
774,-0.075,0.025
775,-0.055,0.015
776,-0.075,0.015
777,-0.075,0.015
778,-0.085,0.025
779,-0.075,0.025
780,-0.075,0.035
781,-0.055,0.055
782,-0.045,0.065
783,-0.015,0.075
784,-0.005,0.085
785,0.025,0.095
786,0.065,0.085
787,0.105,0.055
788,0.125,0.055
789,0.125,0.055
790,0.095,0.015
791,0.045,0.015
792,0.005,0.005
793,-0.055,-0.015
794,-0.105,-0.045
795,-0.175,-0.055
796,-0.185,-0.045
797,-0.195,-0.035
798,-0.185,-0.025
799,-0.215,0.015
800,-0.475,0.085
801,-0.585,0.215
802,-0.275,0.065
803,0.385,-0.265
804,0.705,-0.805
805,0.315,-0.665
806,-0.165,-0.445
807,-0.325,-0.155
808,-0.295,0.035
809,-0.235,0.045
810,-0.175,0.015
811,-0.175,0.025
812,-0.155,0.035
813,-0.155,0.025
814,-0.145,0.025
815,-0.135,0.035
816,-0.125,0.035
817,-0.105,0.045
818,-0.095,0.045
819,-0.105,0.055
820,-0.095,0.075
821,-0.075,0.095
822,-0.055,0.115
823,-0.015,0.125
824,0.015,0.145
825,0.035,0.155
826,0.075,0.175
827,0.105,0.185
828,0.155,0.185
829,0.195,0.185
830,0.225,0.175
831,0.245,0.165
832,0.285,0.165
833,0.295,0.155
834,0.255,0.125
835,0.225,0.105
836,0.155,0.075
837,0.105,0.055
838,0.055,0.035
839,0.005,0.005
840,-0.015,-0.005
841,-0.045,0.005
842,-0.055,-0.005
843,-0.045,-0.005
844,-0.055,-0.005
845,-0.035,-0.015
846,-0.045,-0.005
847,-0.055,-0.015
848,-0.035,-0.015
849,-0.055,0.005
850,-0.035,0.015
851,-0.035,0.035
852,-0.025,0.035
853,0.015,0.045
854,0.045,0.065
855,0.075,0.055
856,0.135,0.045
857,0.175,0.025
858,0.175,0.025
859,0.155,0.005
860,0.105,-0.005
861,0.085,-0.015
862,0.025,-0.035
863,-0.045,-0.065
864,-0.075,-0.085
865,-0.115,-0.075
866,-0.155,-0.085
867,-0.155,-0.075
868,-0.135,-0.055
869,-0.235,0.005
870,-0.505,0.075
871,-0.495,0.125
872,-0.025,-0.115
873,0.555,-0.595
874,0.605,-0.815
875,0.135,-0.635
876,-0.255,-0.365
877,-0.295,-0.085
878,-0.255,0.005
879,-0.185,-0.025
880,-0.145,-0.035
881,-0.145,-0.025
882,-0.135,-0.015
883,-0.125,-0.015
884,-0.135,-0.025
885,-0.115,-0.005
886,-0.105,-0.015
887,-0.115,-0.015
888,-0.075,0.005
889,-0.045,0.015
890,-0.055,0.035
891,-0.025,0.065
892,-0.015,0.065
893,0.005,0.095
894,0.025,0.105
895,0.055,0.115
896,0.105,0.125
897,0.155,0.125
898,0.185,0.125
899,0.215,0.125
900,0.235,0.105
901,0.275,0.105
902,0.265,0.105
903,0.265,0.085
904,0.235,0.075
905,0.185,0.045
906,0.105,0.015
907,0.055,-0.005
908,0.005,-0.015
909,-0.015,-0.035
910,-0.055,-0.055
911,-0.065,-0.065
912,-0.075,-0.055
913,-0.095,-0.055
914,-0.085,-0.055
915,-0.105,-0.045
916,-0.105,-0.055
917,-0.085,-0.055
918,-0.095,-0.055
919,-0.105,-0.035
920,-0.065,-0.015
921,-0.035,-0.005
922,-0.035,0.005
923,-0.015,0.015
924,0.005,0.015
925,0.085,-0.015
926,0.115,-0.015
927,0.115,-0.025
928,0.105,-0.045
929,0.065,-0.065
930,0.005,-0.055
931,-0.045,-0.085
932,-0.125,-0.115
933,-0.175,-0.115
934,-0.195,-0.125
935,-0.175,-0.125
936,-0.195,-0.105
937,-0.215,-0.025
938,-0.455,0.045
939,-0.615,0.135
940,-0.325,0.055
941,0.345,-0.205
942,0.785,-0.755
943,0.465,-0.625
944,-0.035,-0.495
945,-0.305,-0.305
946,-0.365,-0.105
947,-0.345,-0.075
948,-0.255,-0.095
949,-0.205,-0.095
950,-0.205,-0.085
951,-0.205,-0.075
952,-0.165,-0.085
953,-0.165,-0.075
954,-0.165,-0.075
955,-0.165,-0.065
956,-0.165,-0.055
957,-0.145,-0.055
958,-0.135,-0.045
959,-0.115,-0.035
960,-0.085,-0.025
961,-0.075,0.005
962,-0.055,0.015
963,-0.035,0.025
964,-0.015,0.045
965,0.055,0.045
966,0.115,0.045
967,0.155,0.035
968,0.195,0.035
969,0.215,0.045
970,0.235,0.035
971,0.235,0.035
972,0.205,0.015
973,0.165,0.015
974,0.105,-0.015
975,0.025,-0.025
976,-0.025,-0.055
977,-0.065,-0.045
978,-0.105,-0.065
979,-0.125,-0.055
980,-0.115,-0.075
981,-0.125,-0.075
982,-0.135,-0.075
983,-0.135,-0.065
984,-0.115,-0.065
985,-0.115,-0.055
986,-0.115,-0.055
987,-0.115,-0.035
988,-0.135,-0.015
989,-0.085,-0.005
990,-0.065,0.005
991,-0.045,0.015
992,-0.015,0.035
993,0.035,0.025
994,0.095,-0.005
995,0.105,-0.005
996,0.105,-0.015
997,0.105,-0.035
998,0.055,-0.045
999,0.015,-0.055
1000,-0.035,-0.075
1001,-0.105,-0.115
1002,-0.165,-0.105
1003,-0.175,-0.105
1004,-0.195,-0.105
1005,-0.175,-0.085
1006,-0.235,-0.025
1007,-0.515,0.055
1008,-0.565,0.155
1009,-0.105,-0.035
1010,0.615,-0.465
1011,0.755,-0.765
1012,0.205,-0.605
1013,-0.235,-0.365
1014,-0.335,-0.115
1015,-0.285,-0.025
1016,-0.205,-0.055
1017,-0.165,-0.055
1018,-0.145,-0.045
1019,-0.155,-0.035
1020,-0.155,-0.035
1021,-0.145,-0.035
1022,-0.135,-0.035
1023,-0.105,-0.025
1024,-0.105,-0.015
1025,-0.105,-0.015
1026,-0.085,0.015
1027,-0.075,0.025
1028,-0.055,0.025
1029,-0.045,0.045
1030,-0.025,0.065
1031,0.025,0.075
1032,0.055,0.095
1033,0.095,0.105
1034,0.155,0.105
1035,0.185,0.105
1036,0.205,0.095
1037,0.255,0.095
1038,0.295,0.075
1039,0.285,0.075
1040,0.295,0.065
1041,0.275,0.045
1042,0.235,0.005
1043,0.155,-0.005
1044,0.095,-0.015
1045,0.055,-0.045
1046,0.015,-0.065
1047,-0.015,-0.075
1048,-0.035,-0.055
1049,-0.035,-0.065
1050,-0.045,-0.055
1051,-0.065,-0.055
1052,-0.065,-0.045
1053,-0.055,-0.045
1054,-0.035,-0.035
1055,-0.025,-0.025
1056,-0.005,-0.005
1057,0.015,0.015
1058,0.025,0.035
1059,0.055,0.045
1060,0.075,0.055
1061,0.105,0.065
1062,0.165,0.045
1063,0.205,0.015
1064,0.205,0.025
1065,0.195,0.015
1066,0.145,-0.015
1067,0.105,-0.005
1068,0.045,-0.025
1069,-0.025,-0.055
1070,-0.065,-0.080
1071,-0.095,-0.080
1072,-0.095,-0.080
1073,-0.095,-0.070
1074,-0.085,-0.040
1075,-0.295,0.010
1076,-0.545,0.170
1077,-0.395,0.160
1078,0.275,-0.130
1079,0.825,-0.820
1080,0.535,-0.810
1081,-0.055,-0.550
1082,-0.275,-0.210
1083,-0.225,-0.020
1084,-0.165,0.000
1085,-0.115,-0.040
1086,-0.115,-0.040
1087,-0.115,-0.040
1088,-0.085,-0.030
1089,-0.075,-0.040
1090,-0.065,-0.020
1091,-0.065,-0.010
1092,-0.055,0.000
1093,-0.045,0.000
1094,-0.045,0.010
1095,-0.025,0.030
1096,-0.005,0.030
1097,0.015,0.060
1098,0.025,0.075
1099,0.035,0.105
1100,0.065,0.125
1101,0.115,0.145
1102,0.165,0.155
1103,0.215,0.155
1104,0.255,0.155
1105,0.275,0.155
1106,0.305,0.155
1107,0.335,0.145
1108,0.355,0.135
1109,0.335,0.115
1110,0.295,0.075
1111,0.245,0.035
1112,0.185,0.005
1113,0.115,-0.025
1114,0.065,-0.035
1115,0.025,-0.045
1116,0.025,-0.045
1117,0.025,-0.055
1118,0.015,-0.065
1119,0.015,-0.065
1120,0.005,-0.055
1121,0.005,-0.055
1122,0.025,-0.055
1123,0.025,-0.055
1124,0.005,-0.045
1125,0.015,-0.015
1126,0.045,-0.005
1127,0.075,0.005
1128,0.095,0.025
1129,0.135,0.015
1130,0.175,-0.015
1131,0.225,-0.025
1132,0.205,-0.035
1133,0.215,-0.045
1134,0.175,-0.065
1135,0.135,-0.075
1136,0.105,-0.095
1137,0.025,-0.115
1138,-0.035,-0.135
1139,-0.085,-0.145
1140,-0.105,-0.145
1141,-0.085,-0.145
1142,-0.075,-0.125
1143,-0.155,-0.095
1144,-0.435,0.015
1145,-0.465,0.075
1146,0.005,-0.155
1147,0.615,-0.645
1148,0.695,-0.935
1149,0.195,-0.755
1150,-0.215,-0.455
1151,-0.265,-0.185
1152,-0.175,-0.065
1153,-0.095,-0.095
1154,-0.075,-0.095
1155,-0.065,-0.095
1156,-0.085,-0.085
1157,-0.065,-0.095
1158,-0.055,-0.085
1159,-0.045,-0.095
1160,-0.025,-0.085
1161,-0.015,-0.075
1162,-0.025,-0.065
1163,-0.015,-0.045
1164,0.015,-0.035
1165,0.035,-0.025
1166,0.055,-0.015
1167,0.055,0.015
1168,0.105,0.035
1169,0.125,0.045
1170,0.165,0.055
1171,0.195,0.065
1172,0.215,0.065
1173,0.275,0.065
1174,0.315,0.065
1175,0.325,0.055
1176,0.355,0.035
1177,0.345,0.035
1178,0.315,0.005
1179,0.285,-0.015
1180,0.205,-0.055
1181,0.145,-0.085
1182,0.085,-0.105
1183,0.035,-0.125
1184,0.005,-0.125
1185,0.015,-0.135
1186,-0.015,-0.135
1187,-0.015,-0.135
1188,-0.025,-0.145
1189,-0.025,-0.145
1190,-0.025,-0.145
1191,-0.015,-0.135
1192,-0.015,-0.115
1193,0.005,-0.105
1194,0.015,-0.095
1195,0.035,-0.085
1196,0.075,-0.085
1197,0.095,-0.085
1198,0.165,-0.125
1199,0.185,-0.145
1200,0.205,-0.165
1201,0.195,-0.185
1202,0.135,-0.185
1203,0.075,-0.195
1204,0.025,-0.235
1205,-0.035,-0.255
1206,-0.085,-0.255
1207,-0.115,-0.265
1208,-0.095,-0.265
1209,-0.125,-0.235
1210,-0.145,-0.165
1211,-0.415,-0.065
1212,-0.505,0.005
1213,-0.125,-0.155
1214,0.515,-0.475
1215,0.815,-0.905
1216,0.385,-0.755
1217,-0.055,-0.615
1218,-0.265,-0.395
1219,-0.295,-0.225
1220,-0.255,-0.205
1221,-0.175,-0.205
1222,-0.155,-0.225
1223,-0.155,-0.215
1224,-0.155,-0.215
1225,-0.125,-0.205
1226,-0.145,-0.205
1227,-0.135,-0.185
1228,-0.115,-0.195
1229,-0.115,-0.185
1230,-0.105,-0.175
1231,-0.065,-0.165
1232,-0.045,-0.145
1233,-0.045,-0.125
1234,-0.025,-0.105
1235,-0.005,-0.085
1236,0.045,-0.075
1237,0.075,-0.065
1238,0.115,-0.065
1239,0.155,-0.055
1240,0.215,-0.055
1241,0.245,-0.055
1242,0.265,-0.075
1243,0.265,-0.065
1244,0.245,-0.075
1245,0.235,-0.085
1246,0.205,-0.095
1247,0.155,-0.115
1248,0.095,-0.145
1249,0.045,-0.175
1250,-0.015,-0.175
1251,-0.035,-0.165
1252,-0.065,-0.185
1253,-0.075,-0.185
1254,-0.075,-0.185
1255,-0.065,-0.175
1256,-0.065,-0.165
1257,-0.065,-0.155
1258,-0.065,-0.165
1259,-0.075,-0.135
1260,-0.065,-0.115
1261,-0.035,-0.105
1262,-0.025,-0.105
1263,-0.015,-0.105
1264,0.025,-0.075
1265,0.065,-0.075
1266,0.115,-0.115
1267,0.115,-0.115
1268,0.105,-0.115
1269,0.095,-0.145
1270,0.055,-0.135
1271,0.015,-0.155
1272,-0.025,-0.195
1273,-0.095,-0.205
1274,-0.155,-0.215
1275,-0.155,-0.205
1276,-0.165,-0.205
1277,-0.165,-0.175
1278,-0.285,-0.105
1279,-0.515,0.005
1280,-0.425,0.075
1281,0.105,-0.145
1282,0.675,-0.715
1283,0.605,-0.865
1284,0.095,-0.715
1285,-0.235,-0.445
1286,-0.315,-0.215
1287,-0.275,-0.145
1288,-0.215,-0.155
1289,-0.175,-0.145
1290,-0.175,-0.155
1291,-0.175,-0.145
1292,-0.175,-0.135
1293,-0.155,-0.145
1294,-0.165,-0.135
1295,-0.145,-0.135
1296,-0.125,-0.125
1297,-0.105,-0.115
1298,-0.105,-0.095
1299,-0.095,-0.085
1300,-0.075,-0.065
1301,-0.045,-0.045
1302,-0.005,-0.035
1303,0.015,-0.025
1304,0.035,-0.005
1305,0.085,0.005
1306,0.125,0.005
1307,0.155,-0.005
1308,0.175,-0.015
1309,0.205,-0.005
1310,0.225,-0.015
1311,0.245,-0.025
1312,0.215,-0.035
1313,0.185,-0.045
1314,0.135,-0.075
1315,0.065,-0.085
1316,0.015,-0.105
1317,-0.005,-0.125
1318,-0.035,-0.135
1319,-0.075,-0.155
1320,-0.075,-0.145
1321,-0.095,-0.135
1322,-0.095,-0.135
1323,-0.105,-0.125
1324,-0.115,-0.125
1325,-0.105,-0.115
1326,-0.095,-0.105
1327,-0.095,-0.095
1328,-0.075,-0.065
1329,-0.055,-0.055
1330,-0.025,-0.045
1331,-0.015,-0.025
1332,-0.005,-0.035
1333,0.065,-0.065
1334,0.085,-0.065
1335,0.085,-0.065
1336,0.085,-0.075
1337,0.045,-0.075
1338,0.005,-0.085
1339,-0.065,-0.115
1340,-0.135,-0.135
1341,-0.185,-0.135
1342,-0.215,-0.135
1343,-0.225,-0.145
1344,-0.225,-0.135
1345,-0.235,-0.095
1346,-0.495,-0.025
1347,-0.615,0.105
1348,-0.325,-0.015
1349,0.355,-0.375
1350,0.655,-0.925
1351,0.235,-0.805
1352,-0.235,-0.525
1353,-0.375,-0.235
1354,-0.315,-0.085
1355,-0.255,-0.095
1356,-0.215,-0.115
1357,-0.215,-0.105
1358,-0.195,-0.105
1359,-0.185,-0.085
1360,-0.165,-0.095
1361,-0.165,-0.075
1362,-0.165,-0.065
1363,-0.155,-0.065
1364,-0.135,-0.065
1365,-0.135,-0.035
1366,-0.095,-0.025
1367,-0.075,-0.015
1368,-0.065,0.005
1369,-0.055,0.025
1370,-0.015,0.045
1371,0.015,0.065
1372,0.045,0.075
1373,0.085,0.085
1374,0.125,0.085
1375,0.165,0.085
1376,0.195,0.085
1377,0.225,0.085
1378,0.225,0.075
1379,0.215,0.055
1380,0.185,0.035
1381,0.155,0.005
1382,0.095,-0.025
1383,0.045,-0.035
1384,0.005,-0.055
1385,-0.035,-0.065
1386,-0.065,-0.075
1387,-0.085,-0.085
1388,-0.095,-0.085
1389,-0.095,-0.085
1390,-0.095,-0.085
1391,-0.085,-0.085
1392,-0.085,-0.085
1393,-0.085,-0.075
1394,-0.095,-0.065
1395,-0.085,-0.035
1396,-0.075,-0.015
1397,-0.045,-0.015
1398,-0.015,-0.005
1399,0.015,0.005
1400,0.065,0.005
1401,0.105,-0.025
1402,0.115,-0.025
1403,0.105,-0.045
1404,0.065,-0.065
1405,0.025,-0.065
1406,-0.005,-0.075
1407,-0.055,-0.115
1408,-0.105,-0.135
1409,-0.155,-0.135
1410,-0.185,-0.145
1411,-0.205,-0.135
1412,-0.215,-0.125
1413,-0.225,-0.075
1414,-0.395,-0.025
1415,-0.515,0.095
1416,-0.345,0.045
1417,0.155,-0.225
1418,0.535,-0.835
1419,0.375,-0.855
1420,-0.095,-0.655
1421,-0.345,-0.325
1422,-0.325,-0.115
1423,-0.275,-0.075
1424,-0.195,-0.105
1425,-0.185,-0.095
1426,-0.185,-0.085
1427,-0.185,-0.085
1428,-0.185,-0.095
1429,-0.165,-0.085
1430,-0.145,-0.075
1431,-0.135,-0.075
1432,-0.125,-0.065
1433,-0.105,-0.045
1434,-0.105,-0.035
1435,-0.105,-0.005
1436,-0.105,0.015
1437,-0.055,0.035
1438,-0.025,0.045
1439,0.005,0.065
1440,0.055,0.085
1441,0.105,0.085
1442,0.135,0.085
1443,0.155,0.095
1444,0.175,0.085
1445,0.235,0.075
1446,0.255,0.045
1447,0.245,0.035
1448,0.245,0.015
1449,0.205,-0.005
1450,0.125,-0.035
1451,0.045,-0.055
1452,-0.025,-0.085
1453,-0.035,-0.105
1454,-0.055,-0.115
1455,-0.095,-0.125
1456,-0.075,-0.125
1457,-0.075,-0.125
1458,-0.085,-0.125
1459,-0.095,-0.125
1460,-0.095,-0.115
1461,-0.075,-0.105
1462,-0.085,-0.105
1463,-0.075,-0.095
1464,-0.055,-0.075
1465,-0.015,-0.065
1466,-0.005,-0.055
1467,0.005,-0.055
1468,0.025,-0.055
1469,0.115,-0.065
1470,0.115,-0.085
1471,0.105,-0.095
1472,0.095,-0.095
1473,0.045,-0.105
1474,0.015,-0.105
1475,-0.055,-0.115
1476,-0.115,-0.135
1477,-0.165,-0.125
1478,-0.195,-0.125
1479,-0.205,-0.115
1480,-0.205,-0.095
1481,-0.245,-0.025
1482,-0.465,0.035
1483,-0.545,0.095
1484,-0.255,-0.085
1485,0.275,-0.425
1486,0.515,-0.795
1487,0.195,-0.665
1488,-0.195,-0.455
1489,-0.355,-0.185
1490,-0.345,-0.025
1491,-0.275,-0.015
1492,-0.215,-0.045
1493,-0.195,-0.025
1494,-0.195,-0.025
1495,-0.195,-0.025
1496,-0.185,-0.025
1497,-0.175,-0.015
1498,-0.155,-0.005
1499,-0.155,-0.015
1500,-0.155,-0.015
1501,-0.145,0.005
1502,-0.135,0.015
1503,-0.115,0.035
1504,-0.095,0.045
1505,-0.095,0.065
1506,-0.065,0.085
1507,-0.035,0.095
1508,0.015,0.105
1509,0.055,0.105
1510,0.085,0.105
1511,0.135,0.085
1512,0.165,0.085
1513,0.185,0.085
1514,0.185,0.075
1515,0.175,0.045
1516,0.135,0.025
1517,0.095,0.005
1518,0.035,-0.025
1519,-0.025,-0.045
1520,-0.075,-0.065
1521,-0.125,-0.085
1522,-0.145,-0.085
1523,-0.175,-0.085
1524,-0.175,-0.095
1525,-0.175,-0.085
1526,-0.175,-0.085
1527,-0.175,-0.085
1528,-0.175,-0.075
1529,-0.165,-0.075
1530,-0.175,-0.065
1531,-0.175,-0.055
1532,-0.155,-0.025
1533,-0.135,-0.025
1534,-0.135,-0.015
1535,-0.105,-0.005
1536,-0.075,-0.005
1537,0.005,-0.035
1538,0.025,-0.045
1539,0.025,-0.045
1540,-0.005,-0.065
1541,-0.035,-0.075
1542,-0.075,-0.075
1543,-0.115,-0.095
1544,-0.155,-0.135
1545,-0.215,-0.155
1546,-0.265,-0.145
1547,-0.285,-0.135
1548,-0.285,-0.125
1549,-0.275,-0.065
1550,-0.495,0.005
1551,-0.705,0.085
1552,-0.515,0.055
1553,0.125,-0.175
1554,0.685,-0.735
1555,0.465,-0.705
1556,-0.095,-0.585
1557,-0.415,-0.355
1558,-0.445,-0.125
1559,-0.415,-0.075
1560,-0.295,-0.085
1561,-0.265,-0.095
1562,-0.265,-0.090
1563,-0.255,-0.080
1564,-0.255,-0.090
1565,-0.225,-0.080
1566,-0.225,-0.070
1567,-0.215,-0.080
1568,-0.205,-0.070
1569,-0.185,-0.050
1570,-0.175,-0.040
1571,-0.145,-0.020
1572,-0.155,0.000
1573,-0.125,0.020
1574,-0.105,0.020
1575,-0.075,0.040
1576,-0.025,0.060
1577,0.015,0.040
1578,0.055,0.060
1579,0.085,0.060
1580,0.115,0.050
1581,0.155,0.040
1582,0.165,0.040
1583,0.165,0.040
1584,0.165,0.040
1585,0.125,0.020
1586,0.055,-0.010
1587,-0.015,-0.010
1588,-0.085,-0.040
1589,-0.115,-0.060
1590,-0.145,-0.060
1591,-0.135,-0.070
1592,-0.145,-0.070
1593,-0.155,-0.070
1594,-0.165,-0.070
1595,-0.195,-0.060
1596,-0.175,-0.050
1597,-0.135,-0.050
1598,-0.135,-0.050
1599,-0.155,-0.030
1600,-0.125,0.000
1601,-0.095,0.020
1602,-0.085,0.020
1603,-0.065,0.040
1604,-0.045,0.040
1605,0.015,0.020
1606,0.055,0.000
1607,0.065,0.000
1608,0.055,-0.010
1609,0.015,-0.030
1610,-0.015,-0.030
1611,-0.055,-0.060
1612,-0.115,-0.080
1613,-0.185,-0.110
1614,-0.215,-0.105
1615,-0.245,-0.095
1616,-0.215,-0.095
1617,-0.225,-0.065
1618,-0.345,-0.025
1619,-0.605,0.085
1620,-0.595,0.125
1621,-0.115,-0.105
1622,0.485,-0.595
1623,0.525,-0.845
1624,0.015,-0.665
1625,-0.375,-0.335
1626,-0.395,-0.075
1627,-0.315,0.005
1628,-0.265,-0.015
1629,-0.225,-0.035
1630,-0.215,-0.025
1631,-0.215,-0.025
1632,-0.195,-0.015
1633,-0.195,-0.015
1634,-0.195,-0.005
1635,-0.185,-0.005
1636,-0.185,0.005
1637,-0.165,0.015
1638,-0.155,0.025
1639,-0.135,0.055
1640,-0.105,0.065
1641,-0.095,0.085
1642,-0.075,0.105
1643,-0.055,0.125
1644,-0.025,0.145
1645,0.035,0.165
1646,0.075,0.145
1647,0.095,0.165
1648,0.145,0.165
1649,0.175,0.165
1650,0.205,0.155
1651,0.205,0.125
1652,0.185,0.125
1653,0.165,0.095
1654,0.135,0.055
1655,0.055,0.025
1656,0.015,-0.005
1657,-0.055,-0.025
1658,-0.095,-0.035
1659,-0.105,-0.035
1660,-0.125,-0.035
1661,-0.115,-0.035
1662,-0.125,-0.035
1663,-0.125,-0.035
1664,-0.115,-0.035
1665,-0.125,-0.025
1666,-0.145,-0.015
1667,-0.125,-0.005
1668,-0.125,0.015
1669,-0.085,0.025
1670,-0.075,0.035
1671,-0.045,0.045
1672,-0.015,0.045
1673,0.045,0.025
1674,0.085,0.005
1675,0.085,0.005
1676,0.075,-0.005
1677,0.045,-0.025
1678,0.005,-0.035
1679,-0.035,-0.045
1680,-0.085,-0.075
1681,-0.155,-0.095
1682,-0.205,-0.085
1683,-0.235,-0.085
1684,-0.225,-0.075
1685,-0.225,-0.045
1686,-0.385,-0.005
1687,-0.615,0.115
1688,-0.505,0.075
1689,0.045,-0.205
1690,0.595,-0.825
1691,0.385,-0.815
1692,-0.185,-0.595
1693,-0.435,-0.265
1694,-0.375,-0.045
1695,-0.305,-0.015
1696,-0.235,-0.035
1697,-0.225,-0.045
1698,-0.225,-0.035
1699,-0.235,-0.035
1700,-0.225,-0.035
1701,-0.205,-0.015
1702,-0.195,-0.025
1703,-0.175,-0.005
1704,-0.165,0.005
1705,-0.145,0.015
1706,-0.155,0.045
1707,-0.135,0.065
1708,-0.135,0.085
1709,-0.105,0.085
1710,-0.075,0.115
1711,-0.035,0.125
1712,-0.005,0.145
1713,0.025,0.165
1714,0.055,0.175
1715,0.105,0.175
1716,0.135,0.165
1717,0.155,0.175
1718,0.185,0.165
1719,0.215,0.165
1720,0.205,0.125
1721,0.145,0.105
1722,0.085,0.085
1723,0.005,0.055
1724,-0.055,0.025
1725,-0.095,0.015
1726,-0.115,-0.005
1727,-0.135,-0.015
1728,-0.155,-0.015
1729,-0.165,-0.015
1730,-0.175,-0.005
1731,-0.175,-0.005
1732,-0.165,-0.015
1733,-0.165,-0.005
1734,-0.165,-0.005
1735,-0.175,0.005
1736,-0.155,0.025
1737,-0.125,0.045
1738,-0.115,0.035
1739,-0.105,0.075
1740,-0.085,0.065
1741,-0.015,0.055
1742,0.035,0.025
1743,0.035,0.035
1744,0.045,0.005
1745,0.015,-0.005
1746,-0.035,-0.015
1747,-0.085,-0.015
1748,-0.155,-0.055
1749,-0.195,-0.075
1750,-0.245,-0.065
1751,-0.275,-0.065
1752,-0.265,-0.045
1753,-0.265,-0.025
1754,-0.345,0.055
1755,-0.585,0.135
1756,-0.655,0.185
1757,-0.215,-0.025
1758,0.395,-0.485
1759,0.505,-0.665
1760,0.055,-0.535
1761,-0.355,-0.315
1762,-0.445,-0.075
1763,-0.435,0.015
1764,-0.345,-0.005
1765,-0.305,-0.025
1766,-0.295,-0.015
1767,-0.265,-0.005
1768,-0.265,-0.005
1769,-0.275,0.005
1770,-0.275,0.005
1771,-0.275,0.015
1772,-0.255,0.025
1773,-0.245,0.035
1774,-0.245,0.055
1775,-0.205,0.065
1776,-0.195,0.085
1777,-0.185,0.105
1778,-0.175,0.105
1779,-0.155,0.135
1780,-0.105,0.145
1781,-0.075,0.135
1782,-0.005,0.145
1783,0.065,0.135
1784,0.085,0.125
1785,0.105,0.135
1786,0.125,0.125
1787,0.105,0.125
1788,0.085,0.105
1789,0.045,0.095
1790,-0.015,0.065
1791,-0.065,0.035
1792,-0.135,0.025
1793,-0.175,0.015
1794,-0.205,-0.005
1795,-0.245,-0.005
1796,-0.255,-0.005
1797,-0.235,-0.005
1798,-0.255,-0.005
1799,-0.245,-0.015
1800,-0.235,-0.005
1801,-0.245,-0.005
1802,-0.255,0.005
1803,-0.245,0.025
1804,-0.225,0.035
1805,-0.195,0.045
1806,-0.175,0.055
1807,-0.145,0.055
1808,-0.115,0.065
1809,-0.055,0.045
1810,-0.005,0.015
1811,-0.005,0.025
1812,-0.015,0.015
1813,-0.065,-0.005
1814,-0.095,-0.015
1815,-0.165,-0.025
1816,-0.215,-0.065
1817,-0.285,-0.075
1818,-0.325,-0.065
1819,-0.335,-0.055
1820,-0.325,-0.065
1821,-0.315,-0.015
1822,-0.505,0.065
1823,-0.765,0.145
1824,-0.615,0.175
1825,0.045,-0.045
1826,0.675,-0.655
1827,0.435,-0.655
1828,-0.145,-0.525
1829,-0.465,-0.275
1830,-0.495,-0.055
1831,-0.455,-0.005
1832,-0.365,-0.015
1833,-0.335,-0.025
1834,-0.315,-0.015
1835,-0.305,-0.005
1836,-0.315,-0.005
1837,-0.315,-0.005
1838,-0.305,0.005
1839,-0.285,0.015
1840,-0.255,0.025
1841,-0.245,0.025
1842,-0.245,0.035
1843,-0.245,0.065
1844,-0.215,0.065
1845,-0.185,0.085
1846,-0.165,0.105
1847,-0.135,0.105
1848,-0.075,0.125
1849,-0.045,0.125
1850,-0.005,0.135
1851,0.045,0.135
1852,0.085,0.125
1853,0.115,0.115
1854,0.125,0.105
1855,0.145,0.105
1856,0.145,0.085
1857,0.095,0.075
1858,0.035,0.055
1859,-0.025,0.025
1860,-0.095,-0.005
1861,-0.115,-0.015
1862,-0.145,-0.025
1863,-0.165,-0.045
1864,-0.165,-0.035
1865,-0.165,-0.055
1866,-0.175,-0.035
1867,-0.175,-0.035
1868,-0.185,-0.035
1869,-0.175,-0.045
1870,-0.175,-0.025
1871,-0.165,-0.015
1872,-0.125,0.015
1873,-0.105,0.015
1874,-0.075,0.025
1875,-0.045,0.035
1876,0.005,0.025
1877,0.075,-0.015
1878,0.075,-0.005
1879,0.085,-0.025
1880,0.055,-0.045
1881,0.015,-0.035
1882,-0.025,-0.065
1883,-0.095,-0.085
1884,-0.155,-0.115
1885,-0.205,-0.115
1886,-0.205,-0.105
1887,-0.205,-0.115
1888,-0.185,-0.095
1889,-0.285,-0.045
1890,-0.565,0.055
1891,-0.585,0.125
1892,-0.085,-0.075
1893,0.635,-0.525
1894,0.675,-0.875
1895,0.095,-0.725
1896,-0.325,-0.435
1897,-0.345,-0.165
1898,-0.275,-0.045
1899,-0.185,-0.055
1900,-0.165,-0.075
1901,-0.145,-0.065
1902,-0.145,-0.065
1903,-0.135,-0.065
1904,-0.105,-0.065
1905,-0.095,-0.055
1906,-0.095,-0.045
1907,-0.085,-0.035
1908,-0.065,-0.035
1909,-0.035,-0.015
1910,-0.025,-0.005
1911,-0.015,0.005
1912,0.015,0.025
1913,0.045,0.045
1914,0.075,0.065
1915,0.105,0.075
1916,0.145,0.095
1917,0.195,0.105
1918,0.255,0.105
1919,0.305,0.105
1920,0.335,0.095
1921,0.365,0.085
1922,0.365,0.065
1923,0.365,0.045
1924,0.335,0.015
1925,0.305,-0.005
1926,0.255,-0.045
1927,0.205,-0.075
1928,0.165,-0.095
1929,0.135,-0.105
1930,0.115,-0.115
1931,0.095,-0.115
1932,0.085,-0.125
1933,0.105,-0.115
1934,0.115,-0.135
1935,0.115,-0.135
1936,0.125,-0.135
1937,0.125,-0.115
1938,0.135,-0.115
1939,0.135,-0.085
1940,0.175,-0.075
1941,0.195,-0.065
1942,0.225,-0.055
1943,0.265,-0.055
1944,0.325,-0.085
1945,0.355,-0.105
1946,0.355,-0.105
1947,0.335,-0.115
1948,0.325,-0.145
1949,0.305,-0.145
1950,0.245,-0.175
1951,0.185,-0.215
1952,0.135,-0.225
1953,0.105,-0.215
1954,0.095,-0.215
1955,0.095,-0.205
1956,0.115,-0.185
1957,-0.065,-0.135
1958,-0.325,0.015
1959,-0.155,-0.035
1960,0.505,-0.325
1961,1.015,-0.955
1962,0.705,-0.945
1963,0.125,-0.725
1964,-0.105,-0.405
1965,-0.025,-0.185
1966,0.055,-0.155
1967,0.135,-0.185
1968,0.145,-0.185
1969,0.145,-0.175
1970,0.155,-0.175
1971,0.155,-0.175
1972,0.185,-0.175
1973,0.195,-0.155
1974,0.195,-0.155
1975,0.245,-0.165
1976,0.245,-0.165
1977,0.245,-0.145
1978,0.275,-0.125
1979,0.265,-0.105
1980,0.305,-0.075
1981,0.335,-0.065
1982,0.375,-0.055
1983,0.425,-0.045
1984,0.465,-0.045
1985,0.495,-0.025
1986,0.535,-0.025
1987,0.565,-0.035
1988,0.605,-0.035
1989,0.635,-0.045
1990,0.645,-0.045
1991,0.635,-0.075
1992,0.605,-0.105
1993,0.525,-0.125
1994,0.465,-0.155
1995,0.395,-0.195
1996,0.355,-0.205
1997,0.325,-0.215
1998,0.295,-0.225
1999,0.295,-0.235
2000,0.295,-0.235
2001,0.285,-0.235
2002,0.275,-0.235
2003,0.265,-0.225
2004,0.255,-0.235
2005,0.275,-0.215
2006,0.285,-0.205
2007,0.305,-0.175
2008,0.355,-0.175
2009,0.365,-0.165
2010,0.365,-0.145
2011,0.405,-0.145
2012,0.465,-0.175
2013,0.525,-0.185
2014,0.525,-0.205
2015,0.505,-0.215
2016,0.485,-0.225
2017,0.445,-0.235
2018,0.375,-0.245
2019,0.315,-0.275
2020,0.225,-0.295
2021,0.215,-0.295
2022,0.205,-0.295
2023,0.205,-0.305
2024,0.215,-0.245
2025,0.075,-0.155
2026,-0.195,-0.095
2027,-0.105,-0.065
2028,0.495,-0.305
2029,1.115,-0.875
2030,0.905,-0.865
2031,0.385,-0.735
2032,0.055,-0.535
2033,0.015,-0.305
2034,0.035,-0.225
2035,0.135,-0.245
2036,0.165,-0.255
2037,0.185,-0.245
2038,0.155,-0.235
2039,0.155,-0.225
2040,0.205,-0.225
2041,0.215,-0.225
2042,0.195,-0.225
2043,0.205,-0.205
2044,0.195,-0.195
2045,0.235,-0.195
2046,0.235,-0.185
2047,0.245,-0.175
2048,0.275,-0.145
2049,0.305,-0.125
2050,0.335,-0.105
2051,0.365,-0.105
2052,0.385,-0.095
2053,0.455,-0.085
2054,0.485,-0.095
2055,0.515,-0.105
2056,0.565,-0.095
2057,0.565,-0.095
2058,0.565,-0.105
2059,0.555,-0.125
2060,0.485,-0.135
2061,0.425,-0.155
2062,0.355,-0.175
2063,0.285,-0.205
2064,0.275,-0.215
2065,0.205,-0.215
2066,0.185,-0.215
2067,0.175,-0.215
2068,0.185,-0.215
2069,0.175,-0.215
2070,0.185,-0.215
2071,0.175,-0.215
2072,0.185,-0.215
2073,0.175,-0.205
2074,0.185,-0.185
2075,0.185,-0.155
2076,0.215,-0.145
2077,0.235,-0.145
2078,0.265,-0.135
2079,0.305,-0.135
2080,0.355,-0.165
2081,0.375,-0.155
2082,0.375,-0.165
2083,0.345,-0.185
2084,0.315,-0.195
2085,0.285,-0.205
2086,0.215,-0.225
2087,0.175,-0.245
2088,0.125,-0.265
2089,0.095,-0.255
2090,0.075,-0.255
2091,0.065,-0.235
2092,0.045,-0.185
2093,-0.135,-0.125
2094,-0.315,0.005
2095,-0.125,-0.045
2096,0.465,-0.275
2097,0.925,-0.845
2098,0.715,-0.845
2099,0.245,-0.695
2100,-0.045,-0.435
2101,-0.065,-0.215
2102,-0.025,-0.165
2103,0.045,-0.185
2104,0.075,-0.185
2105,0.075,-0.175
2106,0.085,-0.175
2107,0.075,-0.165
2108,0.085,-0.175
2109,0.095,-0.165
2110,0.105,-0.155
2111,0.125,-0.165
2112,0.135,-0.145
2113,0.145,-0.125
2114,0.145,-0.115
2115,0.155,-0.085
2116,0.165,-0.075
2117,0.215,-0.045
2118,0.235,-0.035
2119,0.275,-0.025
2120,0.325,-0.015
2121,0.355,-0.015
2122,0.385,-0.015
2123,0.405,-0.015
2124,0.425,-0.015
2125,0.475,-0.025
2126,0.475,-0.025
2127,0.465,-0.035
2128,0.445,-0.045
2129,0.375,-0.065
2130,0.325,-0.095
2131,0.265,-0.105
2132,0.215,-0.135
2133,0.175,-0.145
2134,0.145,-0.145
2135,0.135,-0.165
2136,0.145,-0.155
2137,0.145,-0.135
2138,0.135,-0.135
2139,0.135,-0.135
2140,0.125,-0.135
2141,0.145,-0.115
2142,0.135,-0.105
2143,0.155,-0.075
2144,0.185,-0.065
2145,0.205,-0.055
2146,0.215,-0.045
2147,0.235,-0.045
2148,0.285,-0.065
2149,0.315,-0.075
2150,0.305,-0.075
2151,0.305,-0.105
2152,0.265,-0.115
2153,0.225,-0.125
2154,0.165,-0.145
2155,0.095,-0.165
2156,0.045,-0.175
2157,0.025,-0.175
2158,0.005,-0.175
2159,0.015,-0.165
2160,-0.025,-0.115
2161,-0.315,-0.035
2162,-0.415,0.115
2163,-0.005,-0.055
2164,0.685,-0.445
2165,0.855,-0.965
2166,0.295,-0.825
2167,-0.155,-0.495
2168,-0.195,-0.195
2169,-0.125,-0.065
2170,-0.025,-0.085
2171,-0.015,-0.105
2172,-0.015,-0.105
2173,-0.035,-0.085
2174,-0.005,-0.075
2175,0.015,-0.085
2176,0.015,-0.085
2177,0.015,-0.065
2178,0.015,-0.045
2179,0.015,-0.045
2180,0.035,-0.045
2181,0.055,-0.015
2182,0.075,0.005
2183,0.085,0.005
2184,0.105,0.045
2185,0.135,0.065
2186,0.155,0.085
2187,0.185,0.105
2188,0.215,0.105
2189,0.265,0.115
2190,0.295,0.115
2191,0.335,0.105
2192,0.345,0.115
2193,0.365,0.105
2194,0.355,0.075
2195,0.315,0.065
2196,0.285,0.025
2197,0.215,-0.005
2198,0.165,-0.025
2199,0.115,-0.045
2200,0.085,-0.065
2201,0.035,-0.075
2202,0.025,-0.065
2203,0.015,-0.065
2204,0.005,-0.065
2205,0.005,-0.065
2206,-0.005,-0.055
2207,-0.005,-0.055
2208,-0.005,-0.055
2209,-0.005,-0.035
2210,-0.015,-0.025
2211,0.005,-0.005
2212,0.005,0.005
2213,0.045,0.025
2214,0.065,0.025
2215,0.105,0.025
2216,0.165,-0.005
2217,0.185,-0.005
2218,0.175,-0.015
2219,0.145,-0.025
2220,0.105,-0.045
2221,0.075,-0.045
2222,0.005,-0.075
2223,-0.075,-0.115
2224,-0.125,-0.105
2225,-0.155,-0.105
2226,-0.155,-0.105
2227,-0.155,-0.095
2228,-0.195,-0.055
2229,-0.445,0.005
2230,-0.605,0.145
2231,-0.315,0.005
2232,0.385,-0.345
2233,0.705,-0.885
2234,0.255,-0.755
2235,-0.275,-0.505
2236,-0.415,-0.195
2237,-0.325,-0.025
2238,-0.245,-0.035
2239,-0.205,-0.055
2240,-0.195,-0.055
2241,-0.205,-0.035
2242,-0.205,-0.045
2243,-0.215,-0.045
2244,-0.195,-0.035
2245,-0.175,-0.025
2246,-0.175,-0.015
2247,-0.145,-0.005
2248,-0.145,-0.005
2249,-0.135,0.015
2250,-0.135,0.045
2251,-0.115,0.065
2252,-0.085,0.075
2253,-0.055,0.085
2254,-0.035,0.105
2255,0.015,0.125
2256,0.045,0.125
2257,0.085,0.125
2258,0.125,0.125
2259,0.135,0.125
2260,0.165,0.125
2261,0.165,0.105
2262,0.175,0.085
2263,0.125,0.055
2264,0.055,0.025
2265,-0.005,0.005
2266,-0.055,-0.015
2267,-0.105,-0.035
2268,-0.145,-0.055
2269,-0.175,-0.055
2270,-0.185,-0.055
2271,-0.185,-0.065
2272,-0.195,-0.055
2273,-0.205,-0.055
2274,-0.205,-0.045
2275,-0.225,-0.045
2276,-0.215,-0.055
2277,-0.215,-0.055
2278,-0.225,-0.035
2279,-0.205,-0.005
2280,-0.165,-0.005
2281,-0.145,0.005
2282,-0.135,0.025
2283,-0.125,0.025
2284,-0.065,-0.005
2285,-0.005,-0.005
2286,-0.015,-0.015
2287,-0.035,-0.035
2288,-0.075,-0.065
2289,-0.115,-0.055
2290,-0.165,-0.075
2291,-0.245,-0.115
2292,-0.315,-0.125
2293,-0.345,-0.125
2294,-0.345,-0.115
2295,-0.375,-0.135
2296,-0.335,-0.085
2297,-0.495,-0.025
2298,-0.775,0.045
2299,-0.735,0.065
2300,-0.225,-0.175
2301,0.375,-0.665
2302,0.385,-0.805
2303,-0.055,-0.655
2304,-0.445,-0.435
2305,-0.555,-0.155
2306,-0.525,-0.035
2307,-0.435,-0.055
2308,-0.405,-0.065
2309,-0.405,-0.065
2310,-0.405,-0.055
2311,-0.395,-0.065
2312,-0.355,-0.065
2313,-0.365,-0.055
2314,-0.375,-0.045
2315,-0.365,-0.035
2316,-0.365,-0.035
2317,-0.345,-0.015
2318,-0.335,-0.005
2319,-0.335,0.005
2320,-0.295,0.025
2321,-0.275,0.025
2322,-0.245,0.045
2323,-0.235,0.055
2324,-0.215,0.075
2325,-0.145,0.075
2326,-0.095,0.065
2327,-0.065,0.045
2328,-0.035,0.065
2329,-0.015,0.065
2330,-0.005,0.055
2331,-0.015,0.045
2332,-0.075,0.025
2333,-0.125,0.005
2334,-0.165,-0.015
2335,-0.255,-0.045
2336,-0.305,-0.065
2337,-0.335,-0.075
2338,-0.345,-0.085
2339,-0.365,-0.075
2340,-0.395,-0.085
2341,-0.385,-0.095
2342,-0.405,-0.085
2343,-0.415,-0.085
2344,-0.375,-0.075
2345,-0.395,-0.075
2346,-0.395,-0.065
2347,-0.395,-0.035
2348,-0.385,-0.035
2349,-0.355,-0.025
2350,-0.325,-0.015
2351,-0.305,-0.005
2352,-0.205,-0.045
2353,-0.185,-0.035
2354,-0.185,-0.065
2355,-0.195,-0.065
2356,-0.245,-0.085
2357,-0.275,-0.085
2358,-0.335,-0.115
2359,-0.405,-0.155
2360,-0.475,-0.165
2361,-0.515,-0.155
2362,-0.505,-0.165
2363,-0.515,-0.135
2364,-0.535,-0.055
2365,-0.835,0.025
2366,-0.955,0.125
2367,-0.495,-0.065
2368,0.265,-0.415
2369,0.485,-0.775
2370,-0.015,-0.635
2371,-0.525,-0.485
2372,-0.695,-0.215
2373,-0.675,-0.095
2374,-0.595,-0.105
2375,-0.525,-0.115
2376,-0.505,-0.115
2377,-0.505,-0.095
2378,-0.515,-0.095
2379,-0.505,-0.095
2380,-0.495,-0.095
2381,-0.475,-0.075
2382,-0.455,-0.075
2383,-0.435,-0.075
2384,-0.445,-0.065
2385,-0.425,-0.045
2386,-0.415,-0.025
2387,-0.405,-0.005
2388,-0.365,0.005
2389,-0.325,0.025
2390,-0.295,0.025
2391,-0.245,0.025
2392,-0.185,0.035
2393,-0.175,0.045
2394,-0.115,0.025
2395,-0.085,0.035
2396,-0.065,0.025
2397,-0.035,0.025
2398,-0.035,0.025
2399,-0.055,0.005
2400,-0.105,-0.005
2401,-0.185,-0.005
2402,-0.235,-0.045
2403,-0.305,-0.055
2404,-0.335,-0.065
2405,-0.345,-0.085
2406,-0.375,-0.085
2407,-0.375,-0.085
2408,-0.375,-0.085
2409,-0.375,-0.075
2410,-0.375,-0.075
2411,-0.365,-0.075
2412,-0.375,-0.075
2413,-0.375,-0.055
2414,-0.375,-0.035
2415,-0.325,-0.025
2416,-0.295,-0.015
2417,-0.275,0.005
2418,-0.245,0.015
2419,-0.195,-0.005
2420,-0.145,-0.025
2421,-0.135,-0.015
2422,-0.125,-0.035
2423,-0.155,-0.065
2424,-0.185,-0.055
2425,-0.235,-0.075
2426,-0.295,-0.095
2427,-0.375,-0.125
2428,-0.405,-0.125
2429,-0.415,-0.125
2430,-0.425,-0.115
2431,-0.405,-0.095
2432,-0.535,-0.035
2433,-0.795,0.065
2434,-0.775,0.115
2435,-0.265,-0.095
2436,0.355,-0.605
2437,0.355,-0.865
2438,-0.205,-0.675
2439,-0.555,-0.355
2440,-0.555,-0.105
2441,-0.495,-0.025
2442,-0.425,-0.055
2443,-0.415,-0.055
2444,-0.415,-0.045
2445,-0.405,-0.045
2446,-0.405,-0.045
2447,-0.395,-0.045
2448,-0.355,-0.035
2449,-0.365,-0.025
2450,-0.355,-0.015
2451,-0.345,-0.005
2452,-0.335,0.005
2453,-0.315,0.005
2454,-0.295,0.035
2455,-0.285,0.045
2456,-0.245,0.075
2457,-0.225,0.105
2458,-0.195,0.115
2459,-0.165,0.125
2460,-0.135,0.135
2461,-0.085,0.125
2462,-0.035,0.125
2463,-0.005,0.105
2464,0.025,0.115
2465,0.055,0.105
2466,0.035,0.095
2467,-0.005,0.065
2468,-0.085,0.025
2469,-0.125,0.005
2470,-0.185,-0.015
2471,-0.225,-0.045
2472,-0.255,-0.055
2473,-0.285,-0.055
2474,-0.305,-0.055
2475,-0.305,-0.065
2476,-0.315,-0.055
2477,-0.295,-0.055
2478,-0.295,-0.055
2479,-0.295,-0.055
2480,-0.285,-0.045
2481,-0.295,-0.025
2482,-0.295,-0.005
2483,-0.255,0.005
2484,-0.235,0.015
2485,-0.215,0.035
2486,-0.185,0.025
2487,-0.115,-0.005
2488,-0.075,-0.005
2489,-0.075,-0.015
2490,-0.105,-0.015
2491,-0.145,-0.045
2492,-0.195,-0.035
2493,-0.235,-0.055
2494,-0.295,-0.095
2495,-0.355,-0.115
2496,-0.395,-0.115
2497,-0.395,-0.105
2498,-0.415,-0.095
2499,-0.395,-0.055
2500,-0.575,-0.015
2501,-0.805,0.125
2502,-0.685,0.075
2503,-0.045,-0.225
2504,0.475,-0.855
2505,0.195,-0.785
2506,-0.355,-0.565
2507,-0.595,-0.235
2508,-0.555,-0.035
2509,-0.465,-0.015
2510,-0.395,-0.035
2511,-0.385,-0.055
2512,-0.385,-0.045
2513,-0.395,-0.015
2514,-0.385,-0.035
2515,-0.375,-0.025
2516,-0.365,-0.015
2517,-0.365,-0.005
2518,-0.345,-0.015
2519,-0.325,0.005
2520,-0.305,0.025
2521,-0.295,0.045
2522,-0.285,0.055
2523,-0.265,0.075
2524,-0.245,0.095
2525,-0.205,0.115
2526,-0.165,0.135
2527,-0.115,0.125
2528,-0.065,0.135
2529,-0.025,0.145
2530,0.005,0.145
2531,0.035,0.125
2532,0.035,0.125
2533,0.055,0.125
2534,0.025,0.095
2535,-0.015,0.065
2536,-0.065,0.035
2537,-0.135,0.005
2538,-0.195,-0.015
2539,-0.235,-0.025
2540,-0.295,-0.045
2541,-0.285,-0.035
2542,-0.295,-0.035
2543,-0.295,-0.045
2544,-0.305,-0.045
2545,-0.315,-0.035
2546,-0.315,-0.045
2547,-0.335,-0.045
2548,-0.325,-0.035
2549,-0.325,-0.005
2550,-0.295,0.015
2551,-0.275,0.005
2552,-0.235,0.025
2553,-0.225,0.045
2554,-0.185,0.025
2555,-0.125,0.005
2556,-0.125,0.005
2557,-0.095,0.005
2558,-0.135,-0.025
2559,-0.175,-0.045
2560,-0.215,-0.035
2561,-0.275,-0.065
2562,-0.345,-0.095
2563,-0.395,-0.105
2564,-0.435,-0.105
2565,-0.435,-0.105
2566,-0.425,-0.075
2567,-0.475,-0.015
2568,-0.745,0.055
2569,-0.805,0.105
2570,-0.395,-0.105
2571,0.225,-0.525
2572,0.355,-0.725
2573,-0.025,-0.585
2574,-0.455,-0.395
2575,-0.585,-0.145
2576,-0.585,-0.035
2577,-0.515,-0.055
2578,-0.465,-0.065
2579,-0.465,-0.055
2580,-0.445,-0.055
2581,-0.445,-0.055
2582,-0.435,-0.055
2583,-0.425,-0.045
2584,-0.395,-0.035
2585,-0.415,-0.035
2586,-0.405,-0.015
2587,-0.395,-0.015
2588,-0.375,0.005
2589,-0.345,0.005
2590,-0.325,0.035
2591,-0.305,0.045
2592,-0.265,0.065
2593,-0.235,0.065
2594,-0.215,0.085
2595,-0.175,0.095
2596,-0.135,0.085
2597,-0.095,0.075
2598,-0.065,0.075
2599,-0.025,0.065
2600,-0.025,0.075
2601,-0.035,0.065
2602,-0.055,0.055
2603,-0.105,0.035
2604,-0.195,-0.005
2605,-0.255,-0.015
2606,-0.305,-0.035
2607,-0.325,-0.045
2608,-0.335,-0.045
2609,-0.365,-0.055
2610,-0.385,-0.045
2611,-0.385,-0.045
2612,-0.395,-0.055
2613,-0.385,-0.045
2614,-0.385,-0.045
2615,-0.405,-0.045
2616,-0.375,-0.035
2617,-0.365,-0.005
2618,-0.345,0.005
2619,-0.325,0.005
2620,-0.315,0.025
2621,-0.285,0.035
2622,-0.235,0.035
2623,-0.165,0.005
2624,-0.145,-0.005
2625,-0.125,-0.005
2626,-0.175,-0.035
2627,-0.225,-0.025
2628,-0.275,-0.045
2629,-0.325,-0.085
2630,-0.405,-0.105
2631,-0.435,-0.105
2632,-0.435,-0.105
2633,-0.435,-0.105
2634,-0.445,-0.065
2635,-0.585,0.005
2636,-0.875,0.095
2637,-0.795,0.145
2638,-0.135,-0.075
2639,0.545,-0.585
2640,0.455,-0.655
2641,-0.125,-0.545
2642,-0.525,-0.315
2643,-0.605,-0.095
2644,-0.565,-0.045
2645,-0.465,-0.055
2646,-0.435,-0.055
2647,-0.415,-0.055
2648,-0.395,-0.055
2649,-0.395,-0.035
2650,-0.375,-0.045
2651,-0.375,-0.045
2652,-0.355,-0.035
2653,-0.335,-0.025
2654,-0.315,-0.025
2655,-0.295,-0.005
2656,-0.265,0.005
2657,-0.255,0.025
2658,-0.225,0.035
2659,-0.195,0.055
2660,-0.175,0.065
2661,-0.115,0.075
2662,-0.085,0.075
2663,0.005,0.075
2664,0.045,0.075
2665,0.075,0.075
2666,0.095,0.075
2667,0.135,0.075
2668,0.125,0.065
2669,0.115,0.055
2670,0.075,0.035
2671,0.035,0.005
2672,-0.015,-0.015
2673,-0.075,-0.025
2674,-0.105,-0.045
2675,-0.145,-0.055
2676,-0.145,-0.045
2677,-0.145,-0.055
2678,-0.135,-0.065
2679,-0.135,-0.055
2680,-0.115,-0.055
2681,-0.125,-0.055
2682,-0.125,-0.055
2683,-0.145,-0.035
2684,-0.115,-0.005
2685,-0.065,0.005
2686,-0.025,0.005
2687,-0.005,0.025
2688,0.035,0.025
2689,0.095,0.015
2690,0.145,-0.015
2691,0.145,-0.015
2692,0.145,-0.025
2693,0.125,-0.055
2694,0.095,-0.055
2695,0.065,-0.075
2696,0.025,-0.105
2697,-0.045,-0.135
2698,-0.095,-0.145
2699,-0.125,-0.135
2700,-0.125,-0.135
2701,-0.095,-0.115
2702,-0.175,-0.075
2703,-0.455,0.005
2704,-0.485,0.115
2705,-0.005,-0.075
2706,0.665,-0.555
2707,0.775,-0.925
2708,0.195,-0.755
2709,-0.185,-0.435
2710,-0.225,-0.165
2711,-0.145,-0.085
2712,-0.055,-0.115
2713,-0.055,-0.125
2714,-0.045,-0.105
2715,-0.045,-0.105
2716,-0.035,-0.105
2717,-0.005,-0.105
2718,0.005,-0.095
2719,0.015,-0.095
2720,0.035,-0.095
2721,0.045,-0.075
2722,0.045,-0.065
2723,0.065,-0.045
2724,0.075,-0.035
2725,0.115,-0.015
2726,0.135,-0.005
2727,0.165,0.005
2728,0.215,0.045
2729,0.245,0.045
2730,0.285,0.065
2731,0.335,0.055
2732,0.375,0.045
2733,0.415,0.045
2734,0.425,0.035
2735,0.445,0.025
2736,0.455,0.005
2737,0.425,-0.015
2738,0.375,-0.055
2739,0.305,-0.085
2740,0.255,-0.115
2741,0.205,-0.135
2742,0.175,-0.135
2743,0.165,-0.155
2744,0.165,-0.165
2745,0.145,-0.155
2746,0.165,-0.145
2747,0.165,-0.165
2748,0.145,-0.165
2749,0.145,-0.165
2750,0.155,-0.155
2751,0.175,-0.145
2752,0.195,-0.125
2753,0.215,-0.115
2754,0.215,-0.095
2755,0.265,-0.085
2756,0.285,-0.085
2757,0.355,-0.105
2758,0.395,-0.115
2759,0.405,-0.125
2760,0.385,-0.145
2761,0.355,-0.165
2762,0.305,-0.165
2763,0.245,-0.185
2764,0.165,-0.225
2765,0.115,-0.235
2766,0.085,-0.235
2767,0.095,-0.235
2768,0.095,-0.235
2769,0.085,-0.205
2770,-0.075,-0.155
2771,-0.335,-0.045
2772,-0.275,-0.035
2773,0.295,-0.285
2774,0.885,-0.845
2775,0.805,-0.975
2776,0.275,-0.775
2777,-0.065,-0.455
2778,-0.065,-0.235
2779,-0.015,-0.165
2780,0.045,-0.185
2781,0.085,-0.195
2782,0.095,-0.195
2783,0.095,-0.195
2784,0.085,-0.195
2785,0.115,-0.175
2786,0.125,-0.185
2787,0.135,-0.185
2788,0.115,-0.165
2789,0.155,-0.155
2790,0.155,-0.145
2791,0.165,-0.135
2792,0.195,-0.105
2793,0.215,-0.085
2794,0.225,-0.055
2795,0.265,-0.035
2796,0.285,-0.025
2797,0.325,-0.015
2798,0.365,0.005
2799,0.415,0.005
2800,0.465,0.005
2801,0.485,0.005
2802,0.505,-0.005
2803,0.505,-0.005
2804,0.485,-0.035
2805,0.455,-0.055
2806,0.405,-0.085
2807,0.325,-0.115
2808,0.305,-0.145
2809,0.255,-0.165
2810,0.205,-0.175
2811,0.185,-0.175
2812,0.155,-0.185
2813,0.165,-0.185
2814,0.145,-0.175
2815,0.155,-0.185
2816,0.165,-0.175
2817,0.175,-0.165
2818,0.145,-0.175
2819,0.155,-0.155
2820,0.135,-0.135
2821,0.175,-0.125
2822,0.185,-0.115
2823,0.205,-0.105
2824,0.245,-0.085
2825,0.295,-0.095
2826,0.345,-0.135
2827,0.335,-0.125
2828,0.335,-0.155
2829,0.295,-0.165
2830,0.265,-0.165
2831,0.205,-0.195
2832,0.155,-0.225
2833,0.075,-0.245
2834,0.025,-0.235
2835,0.015,-0.235
2836,0.015,-0.225
2837,0.035,-0.215
2838,-0.055,-0.155
2839,-0.335,-0.085
2840,-0.355,-0.005
2841,0.105,-0.255
2842,0.675,-0.775
2843,0.715,-0.955
2844,0.275,-0.765
2845,-0.095,-0.515
2846,-0.155,-0.275
2847,-0.125,-0.165
2848,-0.035,-0.185
2849,-0.005,-0.185
2850,-0.015,-0.175
2851,-0.015,-0.165
2852,-0.015,-0.185
2853,-0.005,-0.165
2854,0.005,-0.155
2855,0.005,-0.155
2856,0.045,-0.155
2857,0.055,-0.145
2858,0.045,-0.125
2859,0.055,-0.115
2860,0.065,-0.105
2861,0.085,-0.095
2862,0.095,-0.075
2863,0.115,-0.055
2864,0.165,-0.025
2865,0.195,-0.015
2866,0.255,-0.025
2867,0.275,-0.025
2868,0.335,-0.035
2869,0.345,-0.035
2870,0.375,-0.045
2871,0.385,-0.065
2872,0.365,-0.075
2873,0.325,-0.085
2874,0.255,-0.125
2875,0.175,-0.155
2876,0.105,-0.165
2877,0.095,-0.175
2878,0.055,-0.195
2879,0.045,-0.205
2880,0.035,-0.205
2881,0.035,-0.205
2882,0.005,-0.205
2883,-0.015,-0.205
2884,-0.005,-0.205
2885,-0.005,-0.195
2886,-0.005,-0.195
2887,0.005,-0.185
2888,0.025,-0.155
2889,0.065,-0.145
2890,0.065,-0.145
2891,0.085,-0.135
2892,0.085,-0.115
2893,0.165,-0.155
2894,0.195,-0.165
2895,0.215,-0.175
2896,0.205,-0.195
2897,0.155,-0.195
2898,0.125,-0.215
2899,0.065,-0.245
2900,-0.005,-0.275
2901,-0.045,-0.295
2902,-0.075,-0.285
2903,-0.075,-0.295
2904,-0.065,-0.275
2905,-0.085,-0.205
2906,-0.295,-0.115
2907,-0.455,-0.035
2908,-0.215,-0.175
2909,0.405,-0.435
2910,0.805,-0.925
2911,0.545,-0.805
2912,0.085,-0.685
2913,-0.195,-0.475
2914,-0.235,-0.285
2915,-0.225,-0.255
2916,-0.135,-0.275
2917,-0.105,-0.275
2918,-0.105,-0.275
2919,-0.085,-0.275
2920,-0.085,-0.285
2921,-0.095,-0.265
2922,-0.075,-0.265
2923,-0.075,-0.255
2924,-0.065,-0.255
2925,-0.045,-0.245
2926,-0.055,-0.225
2927,-0.025,-0.225
2928,0.015,-0.205
2929,0.025,-0.205
2930,0.045,-0.185
2931,0.075,-0.175
2932,0.115,-0.175
2933,0.165,-0.165
2934,0.205,-0.165
2935,0.245,-0.165
2936,0.295,-0.165
2937,0.315,-0.175
2938,0.335,-0.185
2939,0.325,-0.185
2940,0.305,-0.185
2941,0.265,-0.205
2942,0.205,-0.225
2943,0.145,-0.255
2944,0.095,-0.265
2945,0.045,-0.275
2946,0.015,-0.295
2947,-0.005,-0.305
2948,-0.015,-0.305
2949,-0.015,-0.295
2950,-0.015,-0.305
2951,-0.025,-0.305
2952,-0.005,-0.295
2953,-0.015,-0.285
2954,0.005,-0.285
2955,-0.005,-0.255
2956,0.005,-0.245
2957,0.035,-0.235
2958,0.075,-0.235
2959,0.075,-0.225
2960,0.135,-0.225
2961,0.185,-0.245
2962,0.215,-0.255
2963,0.215,-0.265
2964,0.195,-0.285
2965,0.145,-0.295
2966,0.105,-0.305
2967,0.055,-0.335
2968,0.005,-0.365
2969,-0.075,-0.355
2970,-0.095,-0.355
2971,-0.085,-0.355
2972,-0.085,-0.345
2973,-0.115,-0.285
2974,-0.415,-0.215
2975,-0.535,-0.105
2976,-0.115,-0.265
2977,0.625,-0.605
2978,0.885,-1.045
2979,0.355,-0.925
2980,-0.135,-0.705
2981,-0.245,-0.435
2982,-0.215,-0.295
2983,-0.145,-0.295
2984,-0.095,-0.305
2985,-0.095,-0.295
2986,-0.085,-0.295
2987,-0.085,-0.285
2988,-0.095,-0.295
2989,-0.075,-0.285
2990,-0.055,-0.275
2991,-0.045,-0.275
2992,-0.005,-0.265
2993,-0.005,-0.255
2994,-0.005,-0.235
2995,-0.005,-0.215
2996,0.025,-0.205
2997,0.045,-0.165
2998,0.085,-0.165
2999,0.115,-0.145
3000,0.165,-0.135
3001,0.195,-0.115
3002,0.225,-0.125
3003,0.265,-0.115
3004,0.295,-0.125
3005,0.315,-0.125
3006,0.315,-0.125
3007,0.325,-0.145
3008,0.305,-0.155
3009,0.265,-0.175
3010,0.205,-0.195
3011,0.135,-0.225
3012,0.055,-0.245
3013,0.045,-0.255
3014,0.035,-0.265
3015,0.035,-0.265
3016,0.015,-0.265
3017,0.015,-0.255
3018,0.005,-0.245
3019,-0.005,-0.245
3020,0.005,-0.245
3021,0.025,-0.235
3022,0.005,-0.225
3023,0.035,-0.195
3024,0.065,-0.185
3025,0.085,-0.175
3026,0.105,-0.165
3027,0.125,-0.165
3028,0.175,-0.185
3029,0.225,-0.195
3030,0.215,-0.205
3031,0.215,-0.215
3032,0.175,-0.235
3033,0.135,-0.225
3034,0.085,-0.245
3035,0.005,-0.275
3036,-0.055,-0.295
3037,-0.085,-0.275
3038,-0.085,-0.295
3039,-0.085,-0.295
3040,-0.085,-0.265
3041,-0.235,-0.205
3042,-0.515,-0.075
3043,-0.445,-0.065
3044,0.155,-0.335
3045,0.745,-0.945
3046,0.555,-1.005
3047,0.045,-0.805
3048,-0.265,-0.485
3049,-0.235,-0.245
3050,-0.195,-0.185
3051,-0.125,-0.205
3052,-0.105,-0.225
3053,-0.115,-0.205
3054,-0.125,-0.205
3055,-0.105,-0.205
3056,-0.075,-0.195
3057,-0.075,-0.185
3058,-0.085,-0.185
3059,-0.095,-0.165
3060,-0.065,-0.165
3061,-0.055,-0.145
3062,-0.045,-0.125
3063,-0.035,-0.105
3064,0.005,-0.075
3065,0.035,-0.065
3066,0.035,-0.035
3067,0.065,-0.015
3068,0.115,-0.005
3069,0.155,0.005
3070,0.185,0.005
3071,0.245,-0.005
3072,0.255,-0.005
3073,0.285,0.005
3074,0.295,-0.005
3075,0.265,-0.025
3076,0.215,-0.055
3077,0.175,-0.095
3078,0.105,-0.125
3079,0.045,-0.145
3080,0.015,-0.165
3081,-0.005,-0.185
3082,-0.035,-0.185
3083,-0.055,-0.175
3084,-0.065,-0.175
3085,-0.045,-0.165
3086,-0.065,-0.175
3087,-0.065,-0.175
3088,-0.055,-0.175
3089,-0.065,-0.155
3090,-0.055,-0.135
3091,-0.045,-0.115
3092,-0.015,-0.105
3093,0.015,-0.095
3094,0.025,-0.075
3095,0.055,-0.075
3096,0.125,-0.085
3097,0.165,-0.115
3098,0.155,-0.115
3099,0.135,-0.135
3100,0.075,-0.155
3101,0.045,-0.145
3102,-0.015,-0.165
3103,-0.075,-0.195
3104,-0.125,-0.205
3105,-0.165,-0.205
3106,-0.195,-0.205
3107,-0.195,-0.205
3108,-0.205,-0.165
3109,-0.355,-0.105
3110,-0.595,0.005
3111,-0.485,-0.025
3112,0.095,-0.285
3113,0.595,-0.875
3114,0.435,-0.875
3115,-0.055,-0.685
3116,-0.365,-0.415
3117,-0.365,-0.175
3118,-0.315,-0.095
3119,-0.245,-0.125
3120,-0.205,-0.125
3121,-0.195,-0.125
3122,-0.195,-0.105
3123,-0.195,-0.105
3124,-0.195,-0.105
3125,-0.175,-0.095
3126,-0.165,-0.095
3127,-0.175,-0.085
3128,-0.145,-0.075
3129,-0.155,-0.055
3130,-0.145,-0.035
3131,-0.125,-0.015
3132,-0.135,0.005
3133,-0.065,0.025
3134,-0.035,0.035
3135,-0.005,0.045
3136,0.025,0.065
3137,0.075,0.065
3138,0.105,0.065
3139,0.135,0.045
3140,0.135,0.055
3141,0.185,0.045
3142,0.195,0.045
3143,0.155,0.005
3144,0.105,-0.005
3145,0.065,-0.035
3146,-0.015,-0.055
3147,-0.075,-0.065
3148,-0.125,-0.095
3149,-0.145,-0.115
3150,-0.175,-0.105
3151,-0.175,-0.115
3152,-0.185,-0.105
3153,-0.185,-0.115
3154,-0.195,-0.105
3155,-0.225,-0.105
3156,-0.195,-0.095
3157,-0.205,-0.085
3158,-0.195,-0.055
3159,-0.165,-0.055
3160,-0.115,-0.035
3161,-0.125,-0.015
3162,-0.095,-0.025
3163,-0.035,-0.045
3164,0.005,-0.055
3165,-0.005,-0.055
3166,-0.025,-0.065
3167,-0.055,-0.085
3168,-0.085,-0.085
3169,-0.145,-0.105
3170,-0.215,-0.145
3171,-0.295,-0.155
3172,-0.325,-0.145
3173,-0.325,-0.145
3174,-0.335,-0.135
3175,-0.305,-0.065
3176,-0.475,0.005
3177,-0.745,0.085
3178,-0.585,0.095
3179,0.015,-0.135
3180,0.595,-0.645
3181,0.465,-0.645
3182,-0.015,-0.555
3183,-0.415,-0.395
3184,-0.515,-0.175
3185,-0.525,-0.085
3186,-0.425,-0.085
3187,-0.365,-0.075
3188,-0.345,-0.095
3189,-0.345,-0.075
3190,-0.335,-0.075
3191,-0.325,-0.085
3192,-0.315,-0.065
3193,-0.305,-0.055
3194,-0.295,-0.045
3195,-0.305,-0.035
3196,-0.295,-0.035
3197,-0.275,-0.015
3198,-0.245,-0.005
3199,-0.235,0.015
3200,-0.215,0.025
3201,-0.185,0.045
3202,-0.125,0.055
3203,-0.105,0.065
3204,-0.065,0.065
3205,-0.015,0.065
3206,0.005,0.065
3207,0.055,0.045
3208,0.085,0.055
3209,0.085,0.055
3210,0.065,0.045
3211,0.005,0.025
3212,-0.065,0.015
3213,-0.115,-0.005
3214,-0.165,-0.015
3215,-0.195,-0.045
3216,-0.245,-0.045
3217,-0.265,-0.045
3218,-0.265,-0.045
3219,-0.295,-0.045
3220,-0.295,-0.045
3221,-0.295,-0.035
3222,-0.285,-0.035
3223,-0.275,-0.035
3224,-0.275,-0.015
3225,-0.285,0.005
3226,-0.255,0.025
3227,-0.235,0.035
3228,-0.215,0.045
3229,-0.155,0.055
3230,-0.135,0.045
3231,-0.075,0.025
3232,-0.045,0.015
3233,-0.045,0.015
3234,-0.085,0.005
3235,-0.125,0.005
3236,-0.155,-0.015
3237,-0.225,-0.035
3238,-0.285,-0.065
3239,-0.335,-0.075
3240,-0.345,-0.055
3241,-0.325,-0.055
3242,-0.325,-0.045
3243,-0.445,0.025
3244,-0.765,0.105
3245,-0.755,0.185
3246,-0.155,0.005
3247,0.595,-0.415
3248,0.605,-0.685
3249,0.035,-0.555
3250,-0.435,-0.335
3251,-0.525,-0.085
3252,-0.495,0.015
3253,-0.395,0.015
3254,-0.345,0.005
3255,-0.325,0.005
3256,-0.325,0.005
3257,-0.335,0.015
3258,-0.315,0.015
3259,-0.305,0.035
3260,-0.305,0.045
3261,-0.285,0.045
3262,-0.295,0.045
3263,-0.265,0.065
3264,-0.245,0.075
3265,-0.235,0.095
3266,-0.215,0.085
3267,-0.205,0.125
3268,-0.155,0.135
3269,-0.135,0.155
3270,-0.095,0.145
3271,-0.045,0.165
3272,0.005,0.165
3273,0.045,0.175
3274,0.075,0.175
3275,0.095,0.155
3276,0.095,0.145
3277,0.095,0.155
3278,0.075,0.125
3279,0.025,0.105
3280,-0.035,0.085
3281,-0.095,0.065
3282,-0.145,0.045
3283,-0.205,0.045
3284,-0.205,0.045
3285,-0.215,0.045
3286,-0.205,0.025
3287,-0.215,0.045
3288,-0.205,0.045
3289,-0.225,0.045
3290,-0.215,0.045
3291,-0.215,0.055
3292,-0.205,0.065
3293,-0.185,0.095
3294,-0.165,0.105
3295,-0.145,0.105
3296,-0.105,0.125
3297,-0.075,0.125
3298,-0.025,0.115
3299,0.015,0.105
3300,0.005,0.095
3301,0.015,0.065
3302,-0.035,0.045
3303,-0.055,0.055
3304,-0.085,0.045
3305,-0.145,0.005
3306,-0.225,-0.015
3307,-0.265,-0.005
3308,-0.275,-0.005
3309,-0.255,-0.015
3310,-0.255,0.025
3311,-0.385,0.065
3312,-0.625,0.165
3313,-0.565,0.215
3314,-0.025,0.005
3315,0.515,-0.465
3316,0.475,-0.735
3317,-0.045,-0.555
3318,-0.375,-0.255
3319,-0.385,-0.015
3320,-0.315,0.075
3321,-0.255,0.055
3322,-0.235,0.045
3323,-0.235,0.055
3324,-0.225,0.055
3325,-0.225,0.045
3326,-0.225,0.045
3327,-0.215,0.065
3328,-0.205,0.075
3329,-0.195,0.085
3330,-0.195,0.085
3331,-0.175,0.115
3332,-0.185,0.125
3333,-0.145,0.145
3334,-0.125,0.165
3335,-0.105,0.175
3336,-0.075,0.195
3337,-0.055,0.215
3338,-0.015,0.225
3339,0.025,0.235
3340,0.055,0.225
3341,0.095,0.235
3342,0.125,0.215
3343,0.145,0.205
3344,0.155,0.205
3345,0.145,0.175
3346,0.095,0.135
3347,0.025,0.115
3348,-0.025,0.095
3349,-0.065,0.075
3350,-0.115,0.045
3351,-0.145,0.035
3352,-0.145,0.025
3353,-0.175,0.035
3354,-0.175,0.035
3355,-0.195,0.045
3356,-0.185,0.025
3357,-0.185,0.045
3358,-0.165,0.045
3359,-0.155,0.055
3360,-0.145,0.085
3361,-0.125,0.095
3362,-0.105,0.105
3363,-0.085,0.125
3364,-0.055,0.125
3365,0.015,0.105
3366,0.045,0.095
3367,0.065,0.095
3368,0.045,0.065
3369,0.005,0.045
3370,-0.035,0.055
3371,-0.095,0.045
3372,-0.155,0.015
3373,-0.205,-0.005
3374,-0.255,-0.015
3375,-0.255,-0.015
3376,-0.245,-0.005
3377,-0.245,0.005
3378,-0.345,0.045
3379,-0.655,0.135
3380,-0.645,0.165
3381,-0.155,-0.025
3382,0.485,-0.455
3383,0.545,-0.735
3384,0.005,-0.575
3385,-0.435,-0.305
3386,-0.435,-0.045
3387,-0.405,0.045
3388,-0.295,0.025
3389,-0.275,0.025
3390,-0.265,0.025
3391,-0.255,0.025
3392,-0.265,0.025
3393,-0.235,0.045
3394,-0.205,0.045
3395,-0.255,0.055
3396,-0.255,0.055
3397,-0.215,0.065
3398,-0.195,0.075
3399,-0.155,0.085
3400,-0.175,0.105
3401,-0.135,0.105
3402,-0.145,0.125
3403,-0.105,0.155
3404,-0.065,0.165
3405,-0.015,0.165
3406,0.045,0.175
3407,0.105,0.175
3408,0.115,0.165
3409,0.125,0.165
3410,0.145,0.175
3411,0.155,0.155
3412,0.145,0.135
3413,0.095,0.115
3414,0.065,0.085
3415,-0.025,0.055
3416,-0.055,0.025
3417,-0.115,0.005
3418,-0.135,-0.005
3419,-0.165,-0.015
3420,-0.195,-0.025
3421,-0.195,-0.005
3422,-0.215,-0.015
3423,-0.185,-0.005
3424,-0.185,-0.005
3425,-0.185,-0.005
3426,-0.205,0.005
3427,-0.195,0.025
3428,-0.175,0.045
3429,-0.145,0.045
3430,-0.135,0.055
3431,-0.095,0.065
3432,-0.075,0.055
3433,-0.005,0.025
3434,0.015,0.035
3435,-0.005,0.025
3436,-0.035,-0.005
3437,-0.065,-0.005
3438,-0.115,-0.025
3439,-0.175,-0.055
3440,-0.235,-0.075
3441,-0.275,-0.085
3442,-0.315,-0.075
3443,-0.325,-0.065
3444,-0.295,-0.055
3445,-0.345,0.035
3446,-0.625,0.105
3447,-0.685,0.165
3448,-0.235,-0.015
3449,0.415,-0.365
3450,0.665,-0.645
3451,0.195,-0.545
3452,-0.315,-0.385
3453,-0.495,-0.165
3454,-0.495,-0.045
3455,-0.395,-0.055
3456,-0.335,-0.065
3457,-0.305,-0.055
3458,-0.315,-0.055
3459,-0.335,-0.055
3460,-0.325,-0.055
3461,-0.305,-0.045
3462,-0.285,-0.045
3463,-0.265,-0.035
3464,-0.255,-0.035
3465,-0.245,-0.015
3466,-0.245,-0.005
3467,-0.245,0.005
3468,-0.225,0.025
3469,-0.175,0.045
3470,-0.145,0.055
3471,-0.105,0.045
3472,-0.065,0.055
3473,-0.015,0.065
3474,0.025,0.045
3475,0.045,0.045
3476,0.075,0.055
3477,0.115,0.045
3478,0.145,0.025
3479,0.105,0.025
3480,0.105,0.025
3481,0.035,0.005
3482,-0.025,-0.025
3483,-0.115,-0.025
3484,-0.155,-0.045
3485,-0.175,-0.055
3486,-0.195,-0.075
3487,-0.225,-0.075
3488,-0.215,-0.065
3489,-0.195,-0.065
3490,-0.215,-0.065
3491,-0.225,-0.065
3492,-0.225,-0.065
3493,-0.205,-0.045
3494,-0.205,-0.035
3495,-0.185,-0.015
3496,-0.155,0.005
3497,-0.135,0.005
3498,-0.105,0.005
3499,-0.075,0.025
3500,-0.025,-0.005
3501,0.015,-0.015
3502,0.035,-0.025
3503,0.025,-0.035
3504,0.015,-0.045
3505,-0.015,-0.035
3506,-0.075,-0.065
3507,-0.135,-0.105
3508,-0.195,-0.115
3509,-0.225,-0.125
3510,-0.235,-0.115
3511,-0.255,-0.125
3512,-0.235,-0.075
3513,-0.365,-0.005
3514,-0.645,0.085
3515,-0.595,0.145
3516,-0.075,-0.065
3517,0.605,-0.575
3518,0.625,-0.755
3519,0.095,-0.635
3520,-0.325,-0.385
3521,-0.415,-0.115
3522,-0.395,-0.045
3523,-0.305,-0.075
3524,-0.275,-0.085
3525,-0.255,-0.065
3526,-0.255,-0.065
3527,-0.265,-0.085
3528,-0.235,-0.065
3529,-0.215,-0.055
3530,-0.205,-0.055
3531,-0.205,-0.045
3532,-0.205,-0.035
3533,-0.175,-0.025
3534,-0.145,-0.005
3535,-0.135,-0.005
3536,-0.095,0.025
3537,-0.075,0.025
3538,-0.055,0.045
3539,-0.035,0.065
3540,0.015,0.075
3541,0.055,0.065
3542,0.105,0.075
3543,0.155,0.045
3544,0.185,0.045
3545,0.195,0.055
3546,0.205,0.035
3547,0.175,0.025
3548,0.135,-0.005
3549,0.085,-0.015
3550,0.045,-0.035
3551,-0.005,-0.065
3552,-0.055,-0.075
3553,-0.075,-0.085
3554,-0.095,-0.085
3555,-0.115,-0.085
3556,-0.105,-0.085
3557,-0.095,-0.085
3558,-0.095,-0.085
3559,-0.085,-0.075
3560,-0.105,-0.075
3561,-0.095,-0.055
3562,-0.085,-0.035
3563,-0.055,-0.015
3564,-0.035,-0.015
3565,-0.015,0.005
3566,0.015,0.015
3567,0.075,-0.015
3568,0.125,-0.035
3569,0.125,-0.025
3570,0.135,-0.035
3571,0.095,-0.065
3572,0.035,-0.065
3573,0.005,-0.085
3574,-0.045,-0.105
3575,-0.095,-0.135
3576,-0.135,-0.145
3577,-0.165,-0.135
3578,-0.175,-0.135
3579,-0.175,-0.115
3580,-0.275,-0.085
3581,-0.545,0.035
3582,-0.565,0.125
3583,-0.055,-0.055
3584,0.585,-0.485
3585,0.665,-0.865
3586,0.105,-0.715
3587,-0.295,-0.425
3588,-0.335,-0.155
3589,-0.255,-0.055
3590,-0.195,-0.075
3591,-0.165,-0.095
3592,-0.165,-0.085
3593,-0.165,-0.075
3594,-0.155,-0.075
3595,-0.145,-0.075
3596,-0.145,-0.075
3597,-0.135,-0.065
3598,-0.125,-0.065
3599,-0.105,-0.055
3600,-0.085,-0.035
3601,-0.085,-0.015
3602,-0.075,0.005
3603,-0.045,0.015
3604,-0.015,0.035
3605,0.015,0.055
3606,0.035,0.075
3607,0.085,0.085
3608,0.155,0.095
3609,0.185,0.095
3610,0.215,0.095
3611,0.225,0.085
3612,0.245,0.085
3613,0.265,0.065
3614,0.235,0.025
3615,0.215,0.015
3616,0.155,-0.015
3617,0.095,-0.045
3618,0.035,-0.065
3619,-0.015,-0.095
3620,-0.045,-0.095
3621,-0.055,-0.095
3622,-0.075,-0.095
3623,-0.045,-0.095
3624,-0.055,-0.095
3625,-0.055,-0.095
3626,-0.065,-0.095
3627,-0.055,-0.085
3628,-0.075,-0.075
3629,-0.055,-0.065
3630,-0.035,-0.035
3631,0.005,-0.035
3632,0.025,-0.025
3633,0.045,-0.005
3634,0.065,-0.005
3635,0.115,-0.025
3636,0.165,-0.045
3637,0.165,-0.045
3638,0.165,-0.065
3639,0.115,-0.085
3640,0.095,-0.075
3641,0.045,-0.105
3642,-0.035,-0.125
3643,-0.085,-0.145
3644,-0.135,-0.145
3645,-0.145,-0.145
3646,-0.145,-0.145
3647,-0.135,-0.115
3648,-0.305,-0.065
3649,-0.535,0.045
3650,-0.455,0.045
3651,0.115,-0.155
3652,0.685,-0.695
3653,0.565,-0.835
3654,-0.015,-0.665
3655,-0.315,-0.375
3656,-0.325,-0.145
3657,-0.235,-0.065
3658,-0.165,-0.095
3659,-0.155,-0.105
3660,-0.155,-0.095
3661,-0.155,-0.085
3662,-0.145,-0.095
3663,-0.125,-0.085
3664,-0.115,-0.085
3665,-0.105,-0.075
3666,-0.105,-0.065
3667,-0.115,-0.055
3668,-0.095,-0.035
3669,-0.075,-0.025
3670,-0.055,0.005
3671,-0.015,0.015
3672,0.025,0.025
3673,0.015,0.045
3674,0.055,0.075
3675,0.085,0.085
3676,0.135,0.085
3677,0.195,0.085
3678,0.225,0.085
3679,0.245,0.065
3680,0.275,0.065
3681,0.275,0.055
3682,0.245,0.025
3683,0.215,0.015
3684,0.155,-0.015
3685,0.095,-0.045
3686,0.015,-0.075
3687,-0.035,-0.105
3688,-0.035,-0.105
3689,-0.055,-0.105
3690,-0.065,-0.115
3691,-0.085,-0.105
3692,-0.085,-0.115
3693,-0.075,-0.125
3694,-0.095,-0.125
3695,-0.095,-0.115
3696,-0.075,-0.105
3697,-0.075,-0.085
3698,-0.065,-0.085
3699,-0.055,-0.055
3700,-0.035,-0.065
3701,-0.035,-0.045
3702,0.005,-0.035
3703,0.055,-0.045
3704,0.125,-0.075
3705,0.115,-0.085
3706,0.105,-0.105
3707,0.065,-0.125
3708,0.025,-0.125
3709,-0.005,-0.135
3710,-0.055,-0.165
3711,-0.115,-0.185
3712,-0.175,-0.185
3713,-0.195,-0.185
3714,-0.205,-0.175
3715,-0.195,-0.145
3716,-0.255,-0.085
3717,-0.505,-0.025
3718,-0.595,0.035
3719,-0.205,-0.135
3720,0.435,-0.455
3721,0.705,-0.795
3722,0.285,-0.695
3723,-0.215,-0.525
3724,-0.395,-0.295
3725,-0.365,-0.145
3726,-0.305,-0.135
3727,-0.225,-0.155
3728,-0.215,-0.145
3729,-0.225,-0.135
3730,-0.205,-0.145
3731,-0.205,-0.135
3732,-0.215,-0.125
3733,-0.185,-0.115
3734,-0.155,-0.125
3735,-0.165,-0.115
3736,-0.145,-0.105
3737,-0.135,-0.085
3738,-0.125,-0.085
3739,-0.125,-0.055
3740,-0.105,-0.045
3741,-0.065,-0.035
3742,-0.025,-0.025
3743,0.045,-0.015
3744,0.065,-0.005
3745,0.105,-0.005
3746,0.145,-0.015
3747,0.165,-0.025
3748,0.165,-0.025
3749,0.195,-0.025
3750,0.175,-0.045
3751,0.155,-0.045
3752,0.095,-0.065
3753,0.045,-0.085
3754,-0.025,-0.115
3755,-0.085,-0.115
3756,-0.125,-0.135
3757,-0.145,-0.135
3758,-0.145,-0.145
3759,-0.165,-0.145
3760,-0.155,-0.135
3761,-0.155,-0.135
3762,-0.155,-0.135
3763,-0.175,-0.125
3764,-0.165,-0.125
3765,-0.175,-0.115
3766,-0.165,-0.105
3767,-0.145,-0.085
3768,-0.105,-0.075
3769,-0.075,-0.065
3770,-0.045,-0.045
3771,-0.025,-0.045
3772,0.055,-0.075
3773,0.065,-0.075
3774,0.055,-0.095
3775,0.035,-0.115
3776,0.015,-0.115
3777,-0.025,-0.115
3778,-0.095,-0.145
3779,-0.175,-0.185
3780,-0.255,-0.195
3781,-0.245,-0.185
3782,-0.255,-0.195
3783,-0.265,-0.185
3784,-0.295,-0.105
3785,-0.545,-0.035
3786,-0.695,0.095
3787,-0.355,-0.005
3788,0.385,-0.255
3789,0.865,-0.835
3790,0.355,-0.745
3791,-0.245,-0.575
3792,-0.445,-0.305
3793,-0.415,-0.145
3794,-0.345,-0.135
3795,-0.275,-0.145
3796,-0.255,-0.145
3797,-0.235,-0.135
3798,-0.215,-0.145
3799,-0.225,-0.145
3800,-0.205,-0.125
3801,-0.215,-0.115
3802,-0.185,-0.115
3803,-0.195,-0.095
3804,-0.185,-0.085
3805,-0.155,-0.075
3806,-0.145,-0.055
3807,-0.115,-0.045
3808,-0.095,-0.025
3809,-0.045,-0.015
3810,-0.035,0.005
3811,0.015,0.015
3812,0.055,0.025
3813,0.115,0.025
3814,0.125,0.015
3815,0.175,0.005
3816,0.195,-0.005
3817,0.215,0.015
3818,0.205,-0.015
3819,0.175,-0.015
3820,0.125,-0.025
3821,0.085,-0.045
3822,0.025,-0.065
3823,-0.025,-0.075
3824,-0.035,-0.105
3825,-0.065,-0.105
3826,-0.085,-0.105
3827,-0.095,-0.105
3828,-0.115,-0.105
3829,-0.095,-0.105
3830,-0.095,-0.095
3831,-0.095,-0.095
3832,-0.065,-0.095
3833,-0.095,-0.075
3834,-0.085,-0.065
3835,-0.055,-0.035
3836,-0.025,-0.035
3837,-0.015,-0.015
3838,0.035,-0.015
3839,0.085,-0.035
3840,0.125,-0.055
3841,0.125,-0.055
3842,0.125,-0.065
3843,0.075,-0.085
3844,0.055,-0.085
3845,0.015,-0.095
3846,-0.045,-0.135
3847,-0.095,-0.155
3848,-0.145,-0.165
3849,-0.155,-0.155
3850,-0.165,-0.155
3851,-0.165,-0.145
3852,-0.235,-0.095
3853,-0.515,-0.015
3854,-0.595,0.115
3855,-0.155,-0.045
3856,0.555,-0.395
3857,0.755,-0.925
3858,0.135,-0.785
3859,-0.345,-0.485
3860,-0.375,-0.215
3861,-0.295,-0.065
3862,-0.215,-0.085
3863,-0.195,-0.105
3864,-0.175,-0.105
3865,-0.165,-0.095
3866,-0.165,-0.095
3867,-0.175,-0.085
3868,-0.145,-0.065
3869,-0.125,-0.065
3870,-0.125,-0.065
3871,-0.105,-0.065
3872,-0.105,-0.045
3873,-0.085,-0.025
3874,-0.075,-0.015
3875,-0.065,0.005
3876,-0.055,0.015
3877,-0.005,0.035
3878,0.015,0.065
3879,0.075,0.065
3880,0.105,0.075
3881,0.155,0.075
3882,0.195,0.075
3883,0.215,0.075
3884,0.235,0.065
3885,0.265,0.055
3886,0.255,0.045
3887,0.215,0.025
3888,0.185,0.005
3889,0.115,-0.035
3890,0.055,-0.055
3891,0.015,-0.075
3892,-0.035,-0.085
3893,-0.045,-0.095
3894,-0.065,-0.105
3895,-0.085,-0.115
3896,-0.065,-0.115
3897,-0.075,-0.105
3898,-0.055,-0.105
3899,-0.095,-0.105
3900,-0.075,-0.105
3901,-0.065,-0.085
3902,-0.065,-0.085
3903,-0.035,-0.055
3904,-0.015,-0.045
3905,0.005,-0.035
3906,0.035,-0.015
3907,0.065,-0.015
3908,0.115,-0.035
3909,0.165,-0.055
3910,0.145,-0.055
3911,0.145,-0.085
3912,0.095,-0.105
3913,0.055,-0.095
3914,0.015,-0.115
3915,-0.065,-0.145
3916,-0.125,-0.165
3917,-0.145,-0.165
3918,-0.145,-0.155
3919,-0.155,-0.155
3920,-0.135,-0.125
3921,-0.295,-0.085
3922,-0.595,0.035
3923,-0.515,0.065
3924,0.095,-0.165
3925,0.725,-0.765
3926,0.535,-0.895
3927,-0.095,-0.705
3928,-0.385,-0.375
3929,-0.335,-0.135
3930,-0.245,-0.075
3931,-0.185,-0.095
3932,-0.155,-0.105
3933,-0.155,-0.105
3934,-0.165,-0.095
3935,-0.145,-0.115
3936,-0.125,-0.095
3937,-0.125,-0.085
3938,-0.125,-0.085
3939,-0.125,-0.075
3940,-0.085,-0.065
3941,-0.085,-0.045
3942,-0.065,-0.035
3943,-0.025,-0.005
3944,-0.005,0.015
3945,0.005,0.025
3946,0.035,0.045
3947,0.075,0.065
3948,0.135,0.065
3949,0.175,0.075
3950,0.185,0.055
3951,0.245,0.055
3952,0.265,0.065
3953,0.285,0.065
3954,0.275,0.035
3955,0.235,0.015
3956,0.195,-0.005
3957,0.155,-0.025
3958,0.095,-0.065
3959,0.035,-0.085
3960,-0.015,-0.105
3961,-0.045,-0.105
3962,-0.055,-0.115
3963,-0.085,-0.115
3964,-0.095,-0.125
3965,-0.085,-0.115
3966,-0.095,-0.115
3967,-0.075,-0.115
3968,-0.075,-0.115
3969,-0.095,-0.115
3970,-0.095,-0.095
3971,-0.075,-0.065
3972,-0.055,-0.075
3973,-0.045,-0.065
3974,-0.025,-0.045
3975,0.025,-0.035
3976,0.075,-0.055
3977,0.135,-0.075
3978,0.115,-0.075
3979,0.105,-0.085
3980,0.085,-0.115
3981,0.025,-0.115
3982,-0.025,-0.125
3983,-0.075,-0.155
3984,-0.155,-0.185
3985,-0.205,-0.175
3986,-0.205,-0.165
3987,-0.205,-0.165
3988,-0.195,-0.135
3989,-0.335,-0.055
3990,-0.645,0.025
3991,-0.535,0.065
3992,0.065,-0.145
3993,0.735,-0.635
3994,0.615,-0.775
3995,0.075,-0.645
3996,-0.345,-0.465
3997,-0.415,-0.235
3998,-0.395,-0.115
3999,-0.285,-0.125
4000,-0.225,-0.125
4001,-0.225,-0.125
4002,-0.235,-0.125
4003,-0.215,-0.115
4004,-0.205,-0.105
4005,-0.175,-0.115
4006,-0.175,-0.105
4007,-0.195,-0.105
4008,-0.165,-0.085
4009,-0.135,-0.075
4010,-0.135,-0.065
4011,-0.115,-0.045
4012,-0.115,-0.035
4013,-0.085,-0.015
4014,-0.055,-0.015
4015,-0.035,0.005
4016,0.045,0.015
4017,0.085,0.025
4018,0.125,0.015
4019,0.135,0.015
4020,0.175,-0.005
4021,0.195,0.015
4022,0.215,0.005
4023,0.205,0.005
4024,0.185,-0.015
4025,0.125,-0.025
4026,0.045,-0.055
4027,-0.025,-0.065
4028,-0.085,-0.085
4029,-0.095,-0.105
4030,-0.145,-0.105
4031,-0.135,-0.105
4032,-0.115,-0.105
4033,-0.145,-0.095
4034,-0.145,-0.095
4035,-0.155,-0.095
4036,-0.155,-0.085
4037,-0.135,-0.075
4038,-0.135,-0.075
4039,-0.135,-0.055
4040,-0.105,-0.035
4041,-0.075,-0.035
4042,-0.055,-0.025
4043,-0.035,-0.005
4044,0.005,-0.015
4045,0.085,-0.035
4046,0.085,-0.035
4047,0.095,-0.055
4048,0.085,-0.065
4049,0.035,-0.065
4050,-0.025,-0.075
4051,-0.085,-0.125
4052,-0.155,-0.135
4053,-0.185,-0.135
4054,-0.195,-0.135
4055,-0.195,-0.145
4056,-0.175,-0.105
4057,-0.295,-0.045
4058,-0.645,0.045
4059,-0.625,0.125
4060,-0.055,-0.045
4061,0.765,-0.435
4062,0.795,-0.755
4063,0.195,-0.645
4064,-0.295,-0.445
4065,-0.405,-0.195
4066,-0.355,-0.065
4067,-0.265,-0.075
4068,-0.205,-0.085
4069,-0.175,-0.075
4070,-0.185,-0.075
4071,-0.175,-0.075
4072,-0.155,-0.065
4073,-0.135,-0.065
4074,-0.135,-0.055
4075,-0.145,-0.045
4076,-0.135,-0.035
4077,-0.105,-0.015
4078,-0.085,-0.005
4079,-0.065,0.005
4080,-0.045,0.025
4081,-0.015,0.045
4082,0.005,0.065
4083,0.025,0.085
4084,0.095,0.085
4085,0.155,0.095
4086,0.195,0.095
4087,0.225,0.075
4088,0.265,0.075
4089,0.285,0.075
4090,0.295,0.075
4091,0.275,0.055
4092,0.245,0.045
4093,0.195,0.025
4094,0.135,0.005
4095,0.075,-0.015
4096,0.015,-0.025
4097,0.005,-0.035
4098,-0.035,-0.045
4099,-0.035,-0.055
4100,-0.035,-0.045
4101,-0.025,-0.045
4102,-0.025,-0.035
4103,-0.005,-0.045
4104,-0.025,-0.035
4105,-0.035,-0.025
4106,-0.035,-0.005
4107,-0.015,0.025
4108,0.015,0.025
4109,0.045,0.035
4110,0.065,0.055
4111,0.105,0.035
4112,0.165,0.015
4113,0.205,0.005
4114,0.195,0.015
4115,0.175,-0.005
4116,0.145,-0.025
4117,0.125,-0.015
4118,0.075,-0.035
4119,0.025,-0.075
4120,-0.055,-0.085
4121,-0.115,-0.085
4122,-0.105,-0.085
4123,-0.135,-0.085
4124,-0.115,-0.055
4125,-0.285,-0.005
4126,-0.595,0.135
4127,-0.435,0.135
4128,0.205,-0.095
4129,0.855,-0.655
4130,0.635,-0.815
4131,-0.045,-0.635
4132,-0.365,-0.315
4133,-0.305,-0.065
4134,-0.195,-0.015
4135,-0.105,-0.035
4136,-0.105,-0.045
4137,-0.115,-0.035
4138,-0.125,-0.025
4139,-0.115,-0.035
4140,-0.105,-0.025
4141,-0.065,-0.015
4142,-0.095,-0.015
4143,-0.075,-0.005
4144,-0.055,0.005
4145,-0.035,0.025
4146,-0.045,0.035
4147,-0.015,0.055
4148,0.005,0.065
4149,0.015,0.095
4150,0.065,0.115
4151,0.125,0.135
4152,0.175,0.135
4153,0.205,0.145
4154,0.235,0.145
4155,0.265,0.155
4156,0.285,0.135
4157,0.315,0.135
4158,0.335,0.125
4159,0.325,0.095
4160,0.285,0.075
4161,0.235,0.045
4162,0.145,0.025
4163,0.085,0.005
4164,0.055,-0.015
4165,0.045,-0.025
4166,0.005,-0.035
4167,-0.015,-0.035
4168,0.005,-0.045
4169,-0.015,-0.025
4170,-0.015,-0.035
4171,-0.035,-0.025
4172,-0.025,-0.015
4173,-0.005,-0.025
4174,-0.015,-0.025
4175,-0.015,-0.005
4176,0.025,0.015
4177,0.045,0.035
4178,0.075,0.045
4179,0.085,0.045
4180,0.115,0.035
4181,0.175,0.015
4182,0.205,0.015
4183,0.195,-0.005
4184,0.185,-0.015
4185,0.135,-0.025
4186,0.085,-0.025
4187,0.015,-0.045
4188,-0.045,-0.085
4189,-0.095,-0.085
4190,-0.105,-0.095
4191,-0.115,-0.085
4192,-0.085,-0.085
4193,-0.135,-0.015
4194,-0.435,0.025
4195,-0.585,0.155
4196,-0.245,0.015
4197,0.515,-0.265
4198,0.865,-0.825
4199,0.315,-0.685
4200,-0.225,-0.485
4201,-0.355,-0.185
4202,-0.285,-0.015
4203,-0.195,-0.025
4204,-0.145,-0.045
4205,-0.145,-0.045
4206,-0.125,-0.025
4207,-0.125,-0.035
4208,-0.115,-0.035
4209,-0.115,-0.025
4210,-0.075,-0.015
4211,-0.095,-0.005
4212,-0.075,-0.005
4213,-0.095,0.015
4214,-0.065,0.025
4215,-0.045,0.045
4216,-0.025,0.065
4217,-0.015,0.085
4218,0.015,0.105
4219,0.055,0.115
4220,0.085,0.125
4221,0.145,0.135
4222,0.175,0.135
4223,0.235,0.125
4224,0.265,0.125
4225,0.275,0.135
4226,0.275,0.115
4227,0.235,0.105
4228,0.235,0.095
4229,0.205,0.075
4230,0.105,0.045
4231,0.045,0.025
4232,-0.015,0.005
4233,-0.035,0.005
4234,-0.075,-0.015
4235,-0.105,-0.025
4236,-0.095,-0.025
4237,-0.085,-0.025
4238,-0.115,-0.025
4239,-0.085,-0.035
4240,-0.105,-0.035
4241,-0.115,-0.035
4242,-0.115,-0.025
4243,-0.115,-0.015
4244,-0.095,0.005
4245,-0.065,-0.005
4246,-0.055,0.005
4247,0.005,0.015
4248,0.035,0.015
4249,0.095,-0.015
4250,0.085,-0.025
4251,0.075,-0.035
4252,0.065,-0.055
4253,0.035,-0.055
4254,-0.005,-0.065
4255,-0.065,-0.105
4256,-0.145,-0.125
4257,-0.205,-0.125
4258,-0.225,-0.125
4259,-0.235,-0.135
4260,-0.255,-0.115
4261,-0.235,-0.045
4262,-0.505,0.015
4263,-0.705,0.115
4264,-0.435,0.075
4265,0.335,-0.155
4266,0.905,-0.745
4267,0.475,-0.675
4268,-0.115,-0.555
4269,-0.415,-0.305
4270,-0.415,-0.105
4271,-0.375,-0.075
4272,-0.255,-0.085
4273,-0.215,-0.085
4274,-0.215,-0.085
4275,-0.235,-0.085
4276,-0.245,-0.085
4277,-0.215,-0.075
4278,-0.185,-0.085
4279,-0.195,-0.085
4280,-0.155,-0.075
4281,-0.145,-0.065
4282,-0.145,-0.055
4283,-0.145,-0.025
4284,-0.125,-0.025
4285,-0.095,-0.005
4286,-0.065,0.005
4287,-0.025,0.015
4288,0.015,0.025
4289,0.065,0.025
4290,0.085,0.035
4291,0.145,0.015
4292,0.155,0.005
4293,0.205,0.015
4294,0.205,-0.005
4295,0.225,-0.005
4296,0.205,-0.015
4297,0.155,-0.015
4298,0.105,-0.045
4299,0.045,-0.045
4300,-0.015,-0.075
4301,-0.055,-0.085
4302,-0.075,-0.095
4303,-0.105,-0.105
4304,-0.105,-0.115
4305,-0.135,-0.105
4306,-0.115,-0.105
4307,-0.115,-0.095
4308,-0.125,-0.095
4309,-0.105,-0.095
4310,-0.125,-0.085
4311,-0.135,-0.075
4312,-0.105,-0.045
4313,-0.085,-0.025
4314,-0.045,-0.025
4315,-0.015,-0.005
4316,-0.025,-0.035
4317,0.045,-0.055
4318,0.085,-0.055
4319,0.095,-0.065
4320,0.125,-0.065
4321,0.075,-0.075
4322,0.035,-0.095
4323,-0.045,-0.105
4324,-0.085,-0.155
4325,-0.145,-0.155
4326,-0.195,-0.165
4327,-0.215,-0.165
4328,-0.205,-0.125
4329,-0.225,-0.105
4330,-0.435,-0.055
4331,-0.655,0.125
4332,-0.465,0.065
4333,0.255,-0.215
4334,0.795,-0.925
4335,0.365,-0.865
4336,-0.215,-0.605
4337,-0.425,-0.275
4338,-0.345,-0.075
4339,-0.275,-0.095
4340,-0.225,-0.115
4341,-0.245,-0.085
4342,-0.215,-0.095
4343,-0.215,-0.115
4344,-0.205,-0.095
4345,-0.205,-0.075
4346,-0.205,-0.085
4347,-0.205,-0.075
4348,-0.195,-0.075
4349,-0.205,-0.045
4350,-0.165,-0.035
4351,-0.125,-0.015
4352,-0.115,-0.005
4353,-0.085,0.015
4354,-0.045,0.025
4355,-0.015,0.055
4356,0.005,0.065
4357,0.065,0.075
4358,0.105,0.085
4359,0.155,0.065
4360,0.185,0.065
4361,0.185,0.075
4362,0.215,0.055
4363,0.195,0.045
4364,0.165,0.015
4365,0.115,-0.015
4366,0.055,-0.055
4367,-0.005,-0.075
4368,-0.045,-0.095
4369,-0.085,-0.105
4370,-0.105,-0.115
4371,-0.145,-0.105
4372,-0.135,-0.095
4373,-0.135,-0.085
4374,-0.125,-0.085
4375,-0.135,-0.095
4376,-0.115,-0.085
4377,-0.125,-0.085
4378,-0.125,-0.085
4379,-0.145,-0.075
4380,-0.115,-0.055
4381,-0.085,-0.035
4382,-0.045,-0.035
4383,-0.015,-0.035
4384,0.015,-0.035
4385,0.075,-0.065
4386,0.125,-0.085
4387,0.115,-0.085
4388,0.105,-0.095
4389,0.065,-0.095
4390,0.045,-0.095
4391,0.015,-0.125
4392,-0.075,-0.135
4393,-0.125,-0.135
4394,-0.165,-0.155
4395,-0.195,-0.145
4396,-0.195,-0.135
4397,-0.175,-0.115
4398,-0.285,-0.095
4399,-0.535,0.045
4400,-0.515,0.145
4401,-0.035,-0.065
4402,0.555,-0.685
4403,0.525,-0.965
4404,-0.005,-0.735
4405,-0.305,-0.375
4406,-0.295,-0.135
4407,-0.215,-0.065
4408,-0.165,-0.095
4409,-0.165,-0.095
4410,-0.165,-0.095
4411,-0.165,-0.095
4412,-0.145,-0.085
4413,-0.125,-0.085
4414,-0.125,-0.075
4415,-0.105,-0.085
4416,-0.085,-0.065
4417,-0.075,-0.055
4418,-0.085,-0.035
4419,-0.065,-0.015
4420,-0.055,-0.005
4421,-0.025,0.015
4422,-0.025,0.035
4423,-0.015,0.045
4424,0.015,0.075
4425,0.065,0.105
4426,0.095,0.105
4427,0.125,0.105
4428,0.155,0.105
4429,0.185,0.085
4430,0.205,0.095
4431,0.235,0.065
4432,0.215,0.045
4433,0.175,0.025
4434,0.135,-0.015
4435,0.075,-0.035
4436,0.035,-0.055
4437,-0.005,-0.085
4438,-0.035,-0.085
4439,-0.055,-0.105
4440,-0.065,-0.095
4441,-0.075,-0.095
4442,-0.095,-0.105
4443,-0.105,-0.105
4444,-0.115,-0.105
4445,-0.115,-0.095
4446,-0.105,-0.095
4447,-0.115,-0.105
4448,-0.125,-0.095
4449,-0.115,-0.075
4450,-0.105,-0.045
4451,-0.075,-0.065
4452,-0.075,-0.055
4453,-0.015,-0.055
4454,0.005,-0.055
4455,0.085,-0.105
4456,0.105,-0.095
4457,0.145,-0.105
4458,0.105,-0.135
4459,0.065,-0.135
4460,0.025,-0.145
4461,-0.035,-0.165
4462,-0.095,-0.195
4463,-0.145,-0.195
4464,-0.175,-0.195
4465,-0.195,-0.185
4466,-0.185,-0.165
4467,-0.255,-0.125
4468,-0.535,-0.055
4469,-0.645,0.095
4470,-0.245,-0.065
4471,0.455,-0.425
4472,0.725,-0.905
4473,0.195,-0.785
4474,-0.305,-0.555
4475,-0.445,-0.265
4476,-0.375,-0.085
4477,-0.265,-0.105
4478,-0.215,-0.125
4479,-0.215,-0.125
4480,-0.195,-0.125
4481,-0.185,-0.115
4482,-0.185,-0.115
4483,-0.185,-0.095
4484,-0.185,-0.085
4485,-0.145,-0.085
4486,-0.145,-0.075
4487,-0.095,-0.065
4488,-0.075,-0.055
4489,-0.075,-0.025
4490,-0.055,-0.015
4491,-0.035,-0.005
4492,-0.015,0.015
4493,0.025,0.015
4494,0.055,0.035
4495,0.085,0.025
4496,0.145,0.045
4497,0.205,0.045
4498,0.205,0.035
4499,0.245,0.025
4500,0.295,0.025
4501,0.285,0.025
4502,0.255,-0.005
4503,0.185,-0.025
4504,0.125,-0.055
4505,0.045,-0.075
4506,-0.015,-0.085
4507,-0.075,-0.105
4508,-0.115,-0.105
4509,-0.105,-0.115
4510,-0.115,-0.125
4511,-0.125,-0.125
4512,-0.125,-0.125
4513,-0.115,-0.115
4514,-0.125,-0.115
4515,-0.135,-0.125
4516,-0.175,-0.115
4517,-0.155,-0.105
4518,-0.135,-0.075
4519,-0.115,-0.075
4520,-0.085,-0.065
4521,-0.055,-0.035
4522,-0.035,-0.045
4523,0.025,-0.085
4524,0.045,-0.095
4525,0.055,-0.105
4526,0.035,-0.135
4527,0.005,-0.145
4528,-0.035,-0.145
4529,-0.105,-0.175
4530,-0.175,-0.205
4531,-0.245,-0.205
4532,-0.265,-0.195
4533,-0.285,-0.205
4534,-0.295,-0.195
4535,-0.295,-0.085
4536,-0.515,-0.005
4537,-0.675,0.065
4538,-0.315,-0.035
4539,0.375,-0.265
4540,0.745,-0.735
4541,0.335,-0.605
4542,-0.145,-0.535
4543,-0.465,-0.405
4544,-0.525,-0.205
4545,-0.505,-0.125
4546,-0.375,-0.125
4547,-0.325,-0.125
4548,-0.325,-0.125
4549,-0.285,-0.125
4550,-0.285,-0.135
4551,-0.255,-0.145
4552,-0.235,-0.145
4553,-0.205,-0.145
4554,-0.185,-0.155
4555,-0.165,-0.145
4556,-0.145,-0.125
4557,-0.095,-0.105
4558,-0.085,-0.095
4559,-0.065,-0.085
4560,-0.025,-0.055
4561,-0.005,-0.025
4562,0.005,-0.015
4563,0.015,-0.005
4564,0.075,0.005
4565,0.125,-0.015
4566,0.145,-0.015
4567,0.175,-0.025
4568,0.185,-0.035
4569,0.185,-0.035
4570,0.175,-0.025
4571,0.105,-0.045
4572,0.055,-0.055
4573,-0.015,-0.075
4574,-0.085,-0.075
4575,-0.105,-0.095
4576,-0.125,-0.105
4577,-0.145,-0.105
4578,-0.145,-0.105
4579,-0.155,-0.105
4580,-0.155,-0.115
4581,-0.135,-0.115
4582,-0.145,-0.105
4583,-0.115,-0.115
4584,-0.125,-0.105
4585,-0.115,-0.085
4586,-0.095,-0.065
4587,-0.055,-0.065
4588,-0.035,-0.045
4589,0.015,-0.035
4590,0.025,-0.045
4591,0.115,-0.075
4592,0.135,-0.075
4593,0.145,-0.075
4594,0.105,-0.105
4595,0.065,-0.105
4596,0.035,-0.125
4597,-0.025,-0.155
4598,-0.105,-0.185
4599,-0.155,-0.195
4600,-0.165,-0.195
4601,-0.175,-0.195
4602,-0.175,-0.175
4603,-0.215,-0.055
4604,-0.475,0.015
4605,-0.645,0.075
4606,-0.205,-0.015
4607,0.575,-0.225
4608,0.945,-0.725
4609,0.415,-0.595
4610,-0.065,-0.535
4611,-0.325,-0.435
4612,-0.415,-0.255
4613,-0.345,-0.185
4614,-0.215,-0.185
4615,-0.135,-0.195
4616,-0.145,-0.185
4617,-0.135,-0.185
4618,-0.145,-0.185
4619,-0.135,-0.185
4620,-0.105,-0.185
4621,-0.075,-0.185
4622,-0.045,-0.175
4623,-0.045,-0.145
4624,-0.065,-0.125
4625,-0.025,-0.125
4626,-0.005,-0.115
4627,0.025,-0.105
4628,0.075,-0.105
4629,0.115,-0.075
4630,0.155,-0.075
4631,0.185,-0.065
4632,0.215,-0.065
4633,0.265,-0.075
4634,0.275,-0.095
4635,0.265,-0.095
4636,0.295,-0.095
4637,0.315,-0.105
4638,0.305,-0.115
4639,0.255,-0.135
4640,0.175,-0.125
4641,0.165,-0.155
4642,0.115,-0.175
4643,0.085,-0.185
4644,0.045,-0.215
4645,0.045,-0.215
4646,0.025,-0.205
4647,0.025,-0.215
4648,0.035,-0.215
4649,0.055,-0.195
4650,0.045,-0.185
4651,0.025,-0.165
4652,0.025,-0.155
4653,0.055,-0.145
4654,0.075,-0.125
4655,0.105,-0.125
4656,0.125,-0.105
4657,0.155,-0.095
4658,0.205,-0.115
4659,0.245,-0.145
4660,0.245,-0.145
4661,0.265,-0.155
4662,0.255,-0.175
4663,0.215,-0.175
4664,0.175,-0.195
4665,0.085,-0.225
4666,0.045,-0.255
4667,-0.025,-0.255
4668,-0.035,-0.265
4669,-0.035,-0.255
4670,-0.025,-0.225
4671,-0.075,-0.145
4672,-0.425,-0.065
4673,-0.555,0.045
4674,-0.035,-0.075
4675,0.715,-0.255
4676,1.035,-0.765
4677,0.555,-0.675
4678,0.015,-0.595
4679,-0.255,-0.465
4680,-0.315,-0.275
4681,-0.235,-0.215
4682,-0.105,-0.215
4683,-0.075,-0.215
4684,-0.075,-0.215
4685,-0.065,-0.215
4686,-0.045,-0.215
4687,-0.025,-0.205
4688,-0.015,-0.205
4689,-0.005,-0.205
4690,-0.005,-0.185
4691,0.005,-0.175
4692,0.005,-0.185
4693,0.035,-0.155
4694,0.055,-0.135
4695,0.075,-0.135
4696,0.105,-0.115
4697,0.145,-0.095
4698,0.175,-0.085
4699,0.205,-0.075
4700,0.255,-0.075
4701,0.315,-0.085
4702,0.315,-0.095
4703,0.345,-0.105
4704,0.345,-0.115
4705,0.325,-0.115
4706,0.305,-0.135
4707,0.245,-0.155
4708,0.185,-0.165
4709,0.145,-0.175
4710,0.095,-0.185
4711,0.065,-0.205
4712,0.035,-0.215
4713,0.005,-0.215
4714,0.015,-0.205
4715,-0.025,-0.195
4716,-0.005,-0.205
4717,-0.005,-0.205
4718,-0.025,-0.205
4719,-0.015,-0.185
4720,-0.025,-0.165
4721,0.005,-0.145
4722,0.035,-0.135
4723,0.055,-0.105
4724,0.055,-0.095
4725,0.105,-0.095
4726,0.205,-0.135
4727,0.205,-0.125
4728,0.215,-0.135
4729,0.195,-0.145
4730,0.165,-0.135
4731,0.115,-0.165
4732,0.055,-0.195
4733,-0.045,-0.215
4734,-0.095,-0.225
4735,-0.115,-0.225
4736,-0.105,-0.215
4737,-0.115,-0.205
4738,-0.105,-0.105
4739,-0.365,-0.005
4740,-0.675,0.085
4741,-0.355,0.105
4742,0.435,-0.025
4743,1.065,-0.545
4744,0.795,-0.655
4745,0.175,-0.565
4746,-0.295,-0.485
4747,-0.415,-0.335
4748,-0.425,-0.215
4749,-0.295,-0.175
4750,-0.195,-0.175
4751,-0.185,-0.185
4752,-0.185,-0.175
4753,-0.175,-0.175
4754,-0.155,-0.175
4755,-0.175,-0.165
4756,-0.155,-0.155
4757,-0.135,-0.145
4758,-0.135,-0.125
4759,-0.115,-0.115
4760,-0.075,-0.115
4761,-0.065,-0.105
4762,-0.055,-0.085
4763,-0.045,-0.075
4764,-0.035,-0.055
4765,0.045,-0.035
4766,0.075,-0.025
4767,0.115,-0.015
4768,0.165,-0.025
4769,0.205,-0.015
4770,0.215,-0.025
4771,0.225,-0.035
4772,0.225,-0.045
4773,0.225,-0.055
4774,0.165,-0.065
4775,0.115,-0.085
4776,0.075,-0.095
4777,0.025,-0.105
4778,-0.035,-0.115
4779,-0.065,-0.115
4780,-0.085,-0.125
4781,-0.095,-0.115
4782,-0.105,-0.115
4783,-0.115,-0.115
4784,-0.105,-0.115
4785,-0.095,-0.105
4786,-0.105,-0.095
4787,-0.115,-0.065
4788,-0.085,-0.045
4789,-0.055,-0.045
4790,-0.035,-0.025
4791,-0.025,-0.005
4792,0.015,0.005
4793,0.095,-0.025
4794,0.095,-0.035
4795,0.095,-0.025
4796,0.095,-0.045
4797,0.075,-0.045
4798,0.035,-0.045
4799,0.005,-0.085
4800,-0.075,-0.115
4801,-0.135,-0.125
4802,-0.185,-0.125
4803,-0.215,-0.115
4804,-0.195,-0.115
4805,-0.185,-0.045
4806,-0.485,0.055
4807,-0.745,0.185
4808,-0.475,0.215
4809,0.395,0.015
4810,1.055,-0.555
4811,0.635,-0.665
4812,-0.045,-0.525
4813,-0.445,-0.355
4814,-0.485,-0.155
4815,-0.415,-0.075
4816,-0.295,-0.065
4817,-0.255,-0.065
4818,-0.245,-0.065
4819,-0.255,-0.055
4820,-0.245,-0.065
4821,-0.255,-0.055
4822,-0.235,-0.045
4823,-0.205,-0.035
4824,-0.195,-0.025
4825,-0.195,-0.005
4826,-0.175,0.015
4827,-0.185,0.015
4828,-0.155,0.025
4829,-0.135,0.055
4830,-0.095,0.065
4831,-0.055,0.085
4832,-0.035,0.105
4833,0.045,0.125
4834,0.095,0.125
4835,0.105,0.125
4836,0.135,0.125
4837,0.145,0.115
4838,0.175,0.105
4839,0.185,0.085
4840,0.135,0.075
4841,0.095,0.055
4842,0.025,0.035
4843,-0.035,0.015
4844,-0.085,-0.015
4845,-0.125,-0.015
4846,-0.155,-0.035
4847,-0.165,-0.035
4848,-0.175,-0.035
4849,-0.185,-0.035
4850,-0.155,-0.035
4851,-0.175,-0.035
4852,-0.175,-0.025
4853,-0.195,-0.005
4854,-0.165,0.025
4855,-0.135,0.025
4856,-0.105,0.045
4857,-0.095,0.065
4858,-0.075,0.075
4859,-0.025,0.065
4860,0.025,0.025
4861,0.015,0.035
4862,0.025,0.025
4863,0.035,-0.015
4864,-0.035,0.005
4865,-0.035,-0.005
4866,-0.105,-0.035
4867,-0.155,-0.065
4868,-0.255,-0.075
4869,-0.235,-0.065
4870,-0.255,-0.075
4871,-0.275,-0.055
4872,-0.255,-0.005
4873,-0.525,0.085
4874,-0.825,0.265
4875,-0.555,0.305
4876,0.245,0.105
4877,0.995,-0.565
4878,0.605,-0.715
4879,-0.095,-0.555
4880,-0.475,-0.295
4881,-0.505,-0.035
4882,-0.405,0.025
4883,-0.325,0.015
4884,-0.295,0.005
4885,-0.285,0.005
4886,-0.285,0.005
4887,-0.285,0.015
4888,-0.265,0.015
4889,-0.255,0.025
4890,-0.255,0.025
4891,-0.275,0.045
4892,-0.275,0.065
4893,-0.215,0.085
4894,-0.165,0.095
4895,-0.135,0.105
4896,-0.115,0.115
4897,-0.105,0.145
4898,-0.075,0.175
4899,-0.045,0.185
4900,-0.015,0.215
4901,0.065,0.215
4902,0.095,0.215
4903,0.155,0.205
4904,0.145,0.195
4905,0.175,0.185
4906,0.165,0.165
4907,0.135,0.135
4908,0.075,0.115
4909,0.045,0.085
4910,-0.025,0.055
4911,-0.065,0.025
4912,-0.105,0.015
4913,-0.125,0.015
4914,-0.135,0.015
4915,-0.135,0.015
4916,-0.125,0.005
4917,-0.125,0.005
4918,-0.145,0.025
4919,-0.115,0.025
4920,-0.085,0.045
4921,-0.065,0.075
4922,-0.055,0.075
4923,-0.055,0.105
4924,-0.035,0.105
4925,0.005,0.115
4926,0.075,0.095
4927,0.125,0.075
4928,0.105,0.065
4929,0.115,0.055
4930,0.085,0.045
4931,0.035,0.035
4932,-0.005,0.005
4933,-0.065,-0.015
4934,-0.145,-0.045
4935,-0.175,-0.055
4936,-0.175,-0.045
4937,-0.165,-0.055
4938,-0.155,-0.045
4939,-0.285,-0.005
4940,-0.635,0.115
4941,-0.685,0.325
4942,-0.145,0.265
4943,0.805,-0.045
4944,1.115,-0.805
4945,0.375,-0.715
4946,-0.125,-0.465
4947,-0.355,-0.175
4948,-0.315,-0.005
4949,-0.245,-0.015
4950,-0.205,-0.015
4951,-0.185,-0.025
4952,-0.175,-0.025
4953,-0.175,-0.035
4954,-0.165,-0.035
4955,-0.155,-0.035
4956,-0.165,-0.025
4957,-0.135,-0.015
4958,-0.125,-0.005
4959,-0.115,-0.015
4960,-0.095,-0.005
4961,-0.095,0.025
4962,-0.085,0.035
4963,-0.055,0.055
4964,-0.045,0.075
4965,0.045,0.085
4966,0.065,0.105
4967,0.095,0.115
4968,0.145,0.135
4969,0.195,0.145
4970,0.235,0.135
4971,0.255,0.115
4972,0.255,0.125
4973,0.265,0.095
4974,0.255,0.075
4975,0.205,0.045
4976,0.165,0.015
4977,0.115,-0.005
4978,0.065,-0.025
4979,0.025,-0.035
4980,-0.005,-0.055
4981,-0.025,-0.075
4982,-0.035,-0.065
4983,-0.035,-0.065
4984,-0.005,-0.055
4985,0.005,-0.045
4986,-0.005,-0.035
4987,0.015,-0.045
4988,-0.005,-0.045
4989,0.005,-0.035
4990,-0.015,-0.035
4991,-0.005,-0.015
4992,0.035,0.005
4993,0.045,0.015
4994,0.075,0.025
4995,0.105,0.035
4996,0.145,0.015
4997,0.205,-0.015
4998,0.185,-0.015
4999,0.195,-0.035
5000,0.175,-0.045
5001,0.135,-0.035
5002,0.095,-0.065
5003,0.005,-0.095
5004,-0.055,-0.125
5005,-0.095,-0.115
5006,-0.105,-0.115
5007,-0.095,-0.125
5008,-0.095,-0.105
5009,-0.195,-0.055
5010,-0.495,0.065
5011,-0.575,0.245
5012,-0.085,0.135
5013,0.765,-0.205
5014,1.045,-0.865
5015,0.345,-0.765
5016,-0.165,-0.475
5017,-0.285,-0.185
5018,-0.235,-0.045
5019,-0.145,-0.055
5020,-0.095,-0.065
5021,-0.085,-0.055
5022,-0.085,-0.065
5023,-0.085,-0.065
5024,-0.075,-0.055
5025,-0.065,-0.045
5026,-0.045,-0.045
5027,-0.025,-0.035
5028,-0.045,-0.025
5029,-0.035,0.005
5030,0.005,0.015
5031,0.025,0.015
5032,0.055,0.045
5033,0.065,0.055
5034,0.105,0.075
5035,0.135,0.105
5036,0.175,0.115
5037,0.235,0.125
5038,0.275,0.135
5039,0.335,0.125
5040,0.365,0.135
5041,0.385,0.125
5042,0.385,0.105
5043,0.365,0.095
5044,0.345,0.065
5045,0.285,0.025
5046,0.235,-0.015
5047,0.175,-0.045
5048,0.125,-0.045
5049,0.095,-0.065
5050,0.065,-0.075
5051,0.045,-0.085
5052,0.045,-0.075
5053,0.055,-0.075
5054,0.065,-0.085
5055,0.085,-0.085
5056,0.075,-0.085
5057,0.075,-0.075
5058,0.065,-0.075
5059,0.065,-0.085
5060,0.065,-0.075
5061,0.065,-0.075
5062,0.055,-0.075
5063,0.065,-0.065
5064,0.085,-0.035
5065,0.125,-0.035
5066,0.165,-0.025
5067,0.165,-0.025
5068,0.185,-0.015
5069,0.275,-0.035
5070,0.305,-0.055
5071,0.325,-0.065
5072,0.295,-0.075
5073,0.255,-0.085
5074,0.215,-0.095
5075,0.155,-0.105
5076,0.095,-0.125
5077,0.035,-0.145
5078,0.005,-0.155
5079,-0.015,-0.165
5080,0.005,-0.145
5081,0.005,-0.135
5082,-0.025,-0.085
5083,-0.305,-0.005
5084,-0.475,0.175
5085,-0.125,0.085
5086,0.615,-0.165
5087,1.075,-0.805
5088,0.655,-0.805
5089,0.065,-0.595
5090,-0.175,-0.305
5091,-0.135,-0.105
5092,-0.085,-0.065
5093,0.005,-0.075
5094,0.005,-0.085
5095,0.005,-0.095
5096,0.015,-0.085
5097,0.035,-0.075
5098,0.035,-0.075
5099,0.025,-0.065
5100,0.045,-0.065
5101,0.055,-0.055
5102,0.065,-0.035
5103,0.095,-0.025
5104,0.135,-0.015
5105,0.155,0.015
5106,0.175,0.015
5107,0.185,0.035
5108,0.205,0.045
5109,0.225,0.075
5110,0.295,0.085
5111,0.325,0.085
5112,0.375,0.105
5113,0.415,0.095
5114,0.425,0.085
5115,0.435,0.075
5116,0.435,0.055
5117,0.425,0.025
5118,0.375,0.005
5119,0.315,-0.035
5120,0.235,-0.055
5121,0.165,-0.085
5122,0.125,-0.095
5123,0.095,-0.085
5124,0.105,-0.095
5125,0.125,-0.095
5126,0.105,-0.095
5127,0.125,-0.105
5128,0.085,-0.085
5129,0.105,-0.085
5130,0.095,-0.085
5131,0.085,-0.095
5132,0.075,-0.085
5133,0.095,-0.085
5134,0.105,-0.085
5135,0.105,-0.085
5136,0.075,-0.095
5137,0.075,-0.095
5138,0.065,-0.105
5139,0.055,-0.095
5140,0.055,-0.085
5141,0.055,-0.075
5142,0.085,-0.045
5143,0.135,-0.055
5144,0.155,-0.045
5145,0.155,-0.035
5146,0.185,-0.035
5147,0.255,-0.055
5148,0.265,-0.075
5149,0.265,-0.075
5150,0.235,-0.095
5151,0.205,-0.105
5152,0.135,-0.115
5153,0.075,-0.135
5154,0.015,-0.155
5155,-0.025,-0.155
5156,-0.025,-0.155
5157,-0.035,-0.155
5158,-0.025,-0.135
5159,-0.075,-0.035
5160,-0.315,0.055
5161,-0.415,0.155
5162,-0.065,-0.035
5163,0.595,-0.305
5164,0.945,-0.795
5165,0.585,-0.695
5166,0.085,-0.525
5167,-0.185,-0.275
5168,-0.175,-0.105
5169,-0.145,-0.085
5170,-0.055,-0.115
5171,-0.065,-0.105
5172,-0.055,-0.095
5173,-0.025,-0.105
5174,-0.015,-0.105
5175,-0.005,-0.095
5176,0.015,-0.085
5177,0.005,-0.085
5178,0.015,-0.075
5179,0.025,-0.065
5180,0.015,-0.045
5181,0.045,-0.025
5182,0.065,-0.025
5183,0.065,-0.015
5184,0.085,-0.005
5185,0.105,0.015
5186,0.125,0.035
5187,0.145,0.045
5188,0.165,0.055
5189,0.205,0.065
5190,0.225,0.045
5191,0.225,0.025
5192,0.235,0.035
5193,0.245,0.025
5194,0.235,0.015
5195,0.215,0.005
5196,0.185,-0.025
5197,0.155,-0.045
5198,0.125,-0.065
5199,0.105,-0.075
5200,0.095,-0.085
5201,0.085,-0.105
5202,0.065,-0.095
5203,0.045,-0.095
5204,0.055,-0.095
5205,0.035,-0.095
5206,0.035,-0.085
5207,0.025,-0.085
5208,0.035,-0.085
5209,0.035,-0.075
5210,0.015,-0.085
5211,0.005,-0.085
5212,-0.005,-0.075
5213,0.005,-0.075
5214,-0.015,-0.075
5215,-0.025,-0.065
5216,-0.025,-0.055
5217,-0.015,-0.035
5218,-0.015,-0.035
5219,-0.015,-0.025
5220,-0.015,-0.015
5221,0.015,-0.005
5222,0.065,-0.035
5223,0.085,-0.055
5224,0.075,-0.055
5225,0.045,-0.075
5226,-0.015,-0.075
5227,-0.075,-0.105
5228,-0.155,-0.125
5229,-0.215,-0.145
5230,-0.275,-0.135
5231,-0.255,-0.125
5232,-0.235,-0.115
5233,-0.245,-0.065
5234,-0.405,0.055
5235,-0.695,0.175
5236,-0.595,0.245
5237,0.045,0.045
5238,0.805,-0.425
5239,0.805,-0.675
5240,0.165,-0.545
5241,-0.355,-0.395
5242,-0.505,-0.205
5243,-0.515,-0.065
5244,-0.395,-0.065
5245,-0.295,-0.075
5246,-0.275,-0.075
5247,-0.275,-0.075
5248,-0.255,-0.075
5249,-0.275,-0.065
5250,-0.275,-0.055
5251,-0.255,-0.055
5252,-0.255,-0.055
5253,-0.235,-0.035
5254,-0.225,-0.025
5255,-0.205,-0.015
5256,-0.205,-0.005
5257,-0.165,0.005
5258,-0.165,0.025
5259,-0.135,0.035
5260,-0.105,0.055
5261,-0.045,0.055
5262,0.005,0.065
5263,0.045,0.065
5264,0.065,0.065
5265,0.115,0.065
5266,0.125,0.055
5267,0.115,0.065
5268,0.115,0.055
5269,0.105,0.045
5270,0.065,0.045
5271,0.025,0.025
5272,-0.015,0.015
5273,-0.075,-0.005
5274,-0.125,-0.015
5275,-0.155,-0.025
5276,-0.185,-0.035
5277,-0.195,-0.035
5278,-0.195,-0.025
5279,-0.195,-0.025
5280,-0.185,-0.025
5281,-0.195,-0.005
5282,-0.195,-0.005
5283,-0.195,-0.005
5284,-0.215,0.005
5285,-0.195,0.005
5286,-0.205,0.015
5287,-0.165,-0.005
5288,-0.165,0.015
5289,-0.175,0.035
5290,-0.185,0.045
5291,-0.145,0.065
5292,-0.095,0.065
5293,-0.075,0.065
5294,-0.055,0.065
5295,0.015,0.025
5296,0.045,0.035
5297,0.035,0.025
5298,0.015,-0.005
5299,-0.055,0.005
5300,-0.065,-0.005
5301,-0.135,-0.035
5302,-0.185,-0.055
5303,-0.235,-0.075
5304,-0.245,-0.065
5305,-0.275,-0.055
5306,-0.265,-0.045
5307,-0.315,0.005
5308,-0.625,0.115
5309,-0.765,0.315
5310,-0.355,0.205
5311,0.535,-0.085
5312,1.035,-0.765
5313,0.385,-0.745
5314,-0.285,-0.475
5315,-0.485,-0.145
5316,-0.405,0.015
5317,-0.305,-0.005
5318,-0.275,-0.005
5319,-0.255,-0.025
5320,-0.255,-0.005
5321,-0.245,-0.005
5322,-0.245,0.005
5323,-0.245,0.015
5324,-0.255,0.005
5325,-0.245,0.035
5326,-0.205,0.025
5327,-0.195,0.045
5328,-0.175,0.065
5329,-0.155,0.085
5330,-0.135,0.085
5331,-0.155,0.115
5332,-0.095,0.115
5333,-0.065,0.155
5334,0.015,0.175
5335,0.045,0.175
5336,0.095,0.195
5337,0.135,0.195
5338,0.175,0.185
5339,0.185,0.175
5340,0.205,0.175
5341,0.215,0.155
5342,0.185,0.125
5343,0.155,0.095
5344,0.095,0.065
5345,0.035,0.045
5346,-0.025,0.025
5347,-0.075,0.005
5348,-0.115,0.005
5349,-0.095,-0.015
5350,-0.125,-0.005
5351,-0.075,-0.015
5352,-0.095,-0.005
5353,-0.095,0.005
5354,-0.105,0.005
5355,-0.105,0.005
5356,-0.095,0.005
5357,-0.075,-0.015
5358,-0.105,-0.005
5359,-0.085,-0.005
5360,-0.065,-0.005
5361,-0.065,0.005
5362,-0.045,0.025
5363,-0.015,0.045
5364,-0.015,0.045
5365,0.015,0.045
5366,0.055,0.075
5367,0.115,0.035
5368,0.175,0.025
5369,0.175,0.025
5370,0.185,0.005
5371,0.125,-0.015
5372,0.065,0.005
5373,0.035,-0.015
5374,-0.025,-0.055
5375,-0.095,-0.085
5376,-0.135,-0.085
5377,-0.135,-0.075
5378,-0.145,-0.085
5379,-0.125,-0.065
5380,-0.255,-0.025
5381,-0.555,0.115
5382,-0.555,0.255
5383,0.075,0.065
5384,0.895,-0.525
5385,0.815,-0.865
5386,0.085,-0.655
5387,-0.325,-0.285
5388,-0.285,-0.065
5389,-0.215,-0.015
5390,-0.175,-0.035
5391,-0.105,-0.035
5392,-0.105,-0.035
5393,-0.095,-0.035
5394,-0.095,-0.045
5395,-0.115,-0.035
5396,-0.105,-0.045
5397,-0.085,-0.035
5398,-0.075,-0.035
5399,-0.055,-0.025
5400,-0.055,-0.005
5401,-0.045,0.015
5402,-0.025,0.025
5403,-0.045,0.045
5404,0.005,0.055
5405,0.045,0.075
5406,0.075,0.085
5407,0.135,0.105
5408,0.175,0.115
5409,0.215,0.135
5410,0.245,0.135
5411,0.265,0.125
5412,0.315,0.125
5413,0.305,0.105
5414,0.295,0.085
5415,0.275,0.045
5416,0.215,0.025
5417,0.155,-0.015
5418,0.095,-0.045
5419,0.035,-0.055
5420,0.005,-0.075
5421,0.005,-0.075
5422,-0.005,-0.085
5423,-0.005,-0.075
5424,-0.005,-0.085
5425,-0.005,-0.075
5426,0.005,-0.075
5427,-0.005,-0.065
5428,-0.005,-0.065
5429,-0.005,-0.075
5430,-0.035,-0.075
5431,-0.005,-0.055
5432,0.035,-0.055
5433,0.025,-0.055
5434,0.025,-0.025
5435,0.025,-0.015
5436,0.065,-0.025
5437,0.075,-0.015
5438,0.105,0.005
5439,0.145,-0.015
5440,0.215,-0.035
5441,0.205,-0.035
5442,0.195,-0.045
5443,0.165,-0.065
5444,0.095,-0.065
5445,0.045,-0.085
5446,-0.025,-0.125
5447,-0.075,-0.145
5448,-0.135,-0.165
5449,-0.155,-0.135
5450,-0.175,-0.145
5451,-0.185,-0.155
5452,-0.295,-0.105
5453,-0.615,-0.005
5454,-0.655,0.175
5455,-0.185,0.045
5456,0.575,-0.275
5457,0.905,-0.925
5458,0.295,-0.835
5459,-0.255,-0.565
5460,-0.395,-0.255
5461,-0.305,-0.065
5462,-0.235,-0.045
5463,-0.175,-0.075
5464,-0.135,-0.065
5465,-0.135,-0.065
5466,-0.135,-0.055
5467,-0.115,-0.055
5468,-0.115,-0.055
5469,-0.115,-0.045
5470,-0.105,-0.045
5471,-0.105,-0.035
5472,-0.085,-0.005
5473,-0.065,0.005
5474,-0.065,0.035
5475,-0.055,0.045
5476,-0.045,0.045
5477,-0.005,0.065
5478,0.025,0.085
5479,0.045,0.105
5480,0.075,0.125
5481,0.095,0.125
5482,0.115,0.145
5483,0.165,0.145
5484,0.255,0.125
5485,0.275,0.135
5486,0.315,0.125
5487,0.295,0.105
5488,0.255,0.085
5489,0.195,0.055
5490,0.135,0.025
5491,0.065,-0.005
5492,0.015,-0.015
5493,-0.025,-0.015
5494,-0.045,-0.015
5495,-0.075,-0.025
5496,-0.065,-0.025
5497,-0.065,-0.005
5498,-0.075,-0.025
5499,-0.125,-0.035
5500,-0.215,-0.035
5501,-0.195,-0.025
5502,-0.085,-0.035
5503,-0.045,-0.055
5504,-0.035,-0.045
5505,-0.025,-0.025
5506,-0.015,-0.005
5507,-0.005,0.005
5508,-0.005,0.015
5509,0.035,0.015
5510,0.065,0.005
5511,0.145,-0.015
5512,0.155,-0.015
5513,0.145,-0.005
5514,0.115,-0.035
5515,0.065,-0.035
5516,-0.015,-0.055
5517,-0.055,-0.085
5518,-0.155,-0.125
5519,-0.185,-0.105
5520,-0.225,-0.135
5521,-0.285,-0.115
5522,-0.285,-0.105
5523,-0.285,-0.045
5524,-0.525,-0.005
5525,-0.625,0.175
5526,-0.265,0.015
5527,0.445,-0.295
5528,0.825,-0.875
5529,0.245,-0.765
5530,-0.295,-0.505
5531,-0.425,-0.175
5532,-0.325,-0.005
5533,-0.255,-0.005
5534,-0.225,-0.025
5535,-0.225,-0.035
5536,-0.235,-0.015
5537,-0.215,-0.025
5538,-0.215,-0.005
5539,-0.205,-0.005
5540,-0.225,-0.015
5541,-0.205,0.005
5542,-0.185,0.015
5543,-0.175,0.005
5544,-0.205,0.015
5545,-0.195,0.025
5546,-0.155,0.035
5547,-0.135,0.065
5548,-0.125,0.085
5549,-0.015,0.115
5550,0.055,0.125
5551,0.075,0.125
5552,0.105,0.145
5553,0.155,0.165
5554,0.165,0.165
5555,0.185,0.155
5556,0.215,0.155
5557,0.225,0.145
5558,0.225,0.115
5559,0.165,0.085
5560,0.115,0.045
5561,0.015,0.015
5562,-0.035,-0.015
5563,-0.105,-0.035
5564,-0.125,-0.035
5565,-0.125,-0.055
5566,-0.165,-0.065
5567,-0.115,-0.055
5568,-0.165,-0.055
5569,-0.195,-0.065
5570,-0.265,-0.075
5571,-0.295,-0.065
5572,-0.215,-0.055
5573,-0.115,-0.045
5574,-0.105,-0.035
5575,-0.145,-0.035
5576,-0.125,-0.005
5577,-0.085,0.025
5578,-0.115,0.035
5579,-0.085,0.045
5580,-0.065,0.045
5581,0.035,0.025
5582,0.065,0.005
5583,0.075,0.005
5584,0.035,-0.005
5585,-0.015,-0.035
5586,-0.075,-0.025
5587,-0.145,-0.055
5588,-0.225,-0.075
5589,-0.255,-0.095
5590,-0.295,-0.105
5591,-0.305,-0.105
5592,-0.295,-0.105
5593,-0.275,-0.085
5594,-0.505,-0.005
5595,-0.745,0.105
5596,-0.625,0.035
5597,0.015,-0.205
5598,0.655,-0.785
5599,0.415,-0.855
5600,-0.245,-0.615
5601,-0.495,-0.265
5602,-0.405,-0.035
5603,-0.375,0.015
5604,-0.295,-0.005
5605,-0.275,-0.015
5606,-0.285,-0.015
5607,-0.255,-0.015
5608,-0.265,-0.005
5609,-0.265,-0.005
5610,-0.265,-0.005
5611,-0.265,0.015
5612,-0.265,0.025
5613,-0.215,0.025
5614,-0.235,0.035
5615,-0.185,0.045
5616,-0.175,0.065
5617,-0.155,0.085
5618,-0.125,0.105
5619,-0.125,0.125
5620,-0.095,0.135
5621,-0.035,0.135
5622,-0.005,0.145
5623,0.005,0.175
5624,0.135,0.185
5625,0.205,0.185
5626,0.225,0.185
5627,0.215,0.175
5628,0.215,0.145
5629,0.195,0.125
5630,0.135,0.075
5631,0.055,0.025
5632,-0.035,-0.005
5633,-0.095,-0.015
5634,-0.125,-0.015
5635,-0.165,-0.035
5636,-0.175,-0.035
5637,-0.155,-0.035
5638,-0.165,-0.045
5639,-0.175,-0.045
5640,-0.175,-0.045
5641,-0.185,-0.045
5642,-0.215,-0.045
5643,-0.205,-0.025
5644,-0.195,-0.045
5645,-0.265,-0.045
5646,-0.235,-0.015
5647,-0.155,-0.005
5648,-0.125,-0.015
5649,-0.135,0.015
5650,-0.065,0.025
5651,-0.015,-0.005
5652,0.065,-0.005
5653,0.085,-0.025
5654,0.075,-0.045
5655,0.025,-0.075
5656,0.005,-0.095
5657,-0.105,-0.115
5658,-0.135,-0.145
5659,-0.205,-0.155
5660,-0.255,-0.165
5661,-0.235,-0.155
5662,-0.255,-0.155
5663,-0.245,-0.145
5664,-0.345,-0.025
5665,-0.625,0.055
5666,-0.555,0.085
5667,-0.045,-0.145
5668,0.645,-0.505
5669,0.765,-0.715
5670,0.245,-0.625
5671,-0.245,-0.435
5672,-0.375,-0.195
5673,-0.365,-0.095
5674,-0.285,-0.105
5675,-0.245,-0.135
5676,-0.245,-0.125
5677,-0.215,-0.125
5678,-0.225,-0.135
5679,-0.215,-0.135
5680,-0.195,-0.125
5681,-0.185,-0.115
5682,-0.195,-0.115
5683,-0.175,-0.115
5684,-0.165,-0.125
5685,-0.165,-0.105
5686,-0.135,-0.095
5687,-0.075,-0.095
5688,-0.045,-0.075
5689,-0.025,-0.055
5690,0.005,-0.025
5691,0.075,-0.035
5692,0.095,-0.025
5693,0.165,-0.025
5694,0.225,-0.005
5695,0.285,-0.015
5696,0.285,-0.015
5697,0.295,-0.015
5698,0.275,-0.045
5699,0.155,-0.055
5700,0.125,-0.085
5701,0.045,-0.095
5702,0.005,-0.115
5703,-0.035,-0.135
5704,-0.065,-0.135
5705,-0.095,-0.125
5706,-0.105,-0.135
5707,-0.115,-0.135
5708,-0.115,-0.135
5709,-0.105,-0.135
5710,-0.115,-0.135
5711,-0.095,-0.135
5712,-0.115,-0.135
5713,-0.105,-0.125
5714,-0.115,-0.115
5715,-0.085,-0.095
5716,-0.045,-0.105
5717,-0.045,-0.085
5718,-0.035,-0.085
5719,0.035,-0.095
5720,0.105,-0.115
5721,0.065,-0.125
5722,0.125,-0.135
5723,0.035,-0.145
5724,0.075,-0.165
5725,0.065,-0.145
5726,0.045,-0.185
5727,-0.035,-0.215
5728,-0.065,-0.235
5729,-0.105,-0.235
5730,-0.145,-0.215
5731,-0.165,-0.205
5732,-0.155,-0.155
5733,-0.385,-0.065
5734,-0.565,0.035
5735,-0.305,-0.055
5736,0.355,-0.295
5737,0.915,-0.775
5738,0.595,-0.815
5739,-0.035,-0.685
5740,-0.325,-0.415
5741,-0.305,-0.175
5742,-0.215,-0.155
5743,-0.095,-0.175
5744,-0.085,-0.185
5745,-0.105,-0.175
5746,-0.085,-0.175
5747,-0.095,-0.165
5748,-0.055,-0.165
5749,-0.085,-0.165
5750,-0.075,-0.145
5751,-0.075,-0.155
5752,-0.075,-0.135
5753,-0.065,-0.135
5754,-0.045,-0.115
5755,-0.045,-0.105
5756,-0.025,-0.095
5757,0.035,-0.095
5758,0.105,-0.085
5759,0.165,-0.075
5760,0.245,-0.085
5761,0.295,-0.085
5762,0.335,-0.085
5763,0.355,-0.065
5764,0.385,-0.085
5765,0.425,-0.095
5766,0.385,-0.105
5767,0.375,-0.115
5768,0.365,-0.135
5769,0.295,-0.145
5770,0.215,-0.185
5771,0.125,-0.205
5772,0.075,-0.215
5773,0.075,-0.235
5774,0.045,-0.245
5775,0.065,-0.255
5776,0.025,-0.255
5777,0.015,-0.265
5778,0.015,-0.255
5779,0.005,-0.245
5780,0.035,-0.245
5781,0.055,-0.255
5782,0.055,-0.245
5783,0.025,-0.245
5784,0.075,-0.235
5785,0.055,-0.215
5786,0.095,-0.195
5787,0.095,-0.215
5788,0.145,-0.225
5789,0.215,-0.235
5790,0.215,-0.245
5791,0.205,-0.265
5792,0.115,-0.265
5793,0.095,-0.265
5794,0.055,-0.295
5795,-0.045,-0.325
5796,-0.065,-0.335
5797,-0.095,-0.335
5798,-0.135,-0.345
5799,-0.105,-0.315
5800,-0.105,-0.245
5801,-0.435,-0.145
5802,-0.545,-0.005
5803,-0.135,-0.125
5804,0.625,-0.425
5805,0.975,-0.945
5806,0.465,-0.845
5807,-0.145,-0.655
5808,-0.325,-0.395
5809,-0.315,-0.285
5810,-0.245,-0.275
5811,-0.185,-0.295
5812,-0.195,-0.305
5813,-0.185,-0.295
5814,-0.165,-0.285
5815,-0.145,-0.295
5816,-0.135,-0.285
5817,-0.105,-0.275
5818,-0.075,-0.265
5819,-0.075,-0.265
5820,-0.055,-0.255
5821,-0.035,-0.235
5822,-0.065,-0.225
5823,-0.015,-0.195
5824,0.025,-0.195
5825,0.055,-0.175
5826,0.075,-0.155
5827,0.115,-0.155
5828,0.165,-0.145
5829,0.205,-0.125
5830,0.285,-0.115
5831,0.325,-0.115
5832,0.345,-0.115
5833,0.355,-0.115
5834,0.365,-0.115
5835,0.325,-0.125
5836,0.255,-0.145
5837,0.205,-0.175
5838,0.115,-0.205
5839,0.055,-0.225
5840,0.015,-0.225
5841,-0.015,-0.225
5842,-0.035,-0.225
5843,-0.065,-0.215
5844,-0.055,-0.225
5845,-0.055,-0.215
5846,-0.055,-0.215
5847,-0.035,-0.215
5848,-0.035,-0.215
5849,-0.045,-0.205
5850,-0.045,-0.175
5851,-0.055,-0.145
5852,-0.015,-0.135
5853,0.065,-0.125
5854,0.085,-0.115
5855,0.165,-0.155
5856,0.205,-0.175
5857,0.185,-0.185
5858,0.145,-0.175
5859,0.145,-0.185
5860,0.105,-0.195
5861,0.065,-0.225
5862,-0.015,-0.265
5863,-0.075,-0.275
5864,-0.115,-0.275
5865,-0.095,-0.285
5866,-0.105,-0.265
5867,-0.115,-0.245
5868,-0.425,-0.175
5869,-0.655,0.005
5870,-0.415,0.015
5871,0.425,-0.225
5872,1.115,-0.925
5873,0.585,-1.015
5874,-0.135,-0.765
5875,-0.365,-0.415
5876,-0.285,-0.245
5877,-0.195,-0.225
5878,-0.165,-0.255
5879,-0.155,-0.265
5880,-0.155,-0.265
5881,-0.155,-0.245
5882,-0.155,-0.235
5883,-0.135,-0.245
5884,-0.145,-0.245
5885,-0.105,-0.225
5886,-0.095,-0.225
5887,-0.085,-0.215
5888,-0.075,-0.205
5889,-0.055,-0.175
5890,-0.035,-0.165
5891,-0.035,-0.145
5892,-0.025,-0.135
5893,0.035,-0.105
5894,0.065,-0.095
5895,0.125,-0.085
5896,0.155,-0.065
5897,0.195,-0.065
5898,0.225,-0.065
5899,0.235,-0.065
5900,0.255,-0.075
5901,0.275,-0.065
5902,0.275,-0.085
5903,0.245,-0.135
5904,0.165,-0.155
5905,0.115,-0.185
5906,0.035,-0.205
5907,-0.025,-0.225
5908,-0.055,-0.235
5909,-0.055,-0.225
5910,-0.075,-0.235
5911,-0.065,-0.235
5912,-0.065,-0.235
5913,-0.075,-0.235
5914,-0.075,-0.215
5915,-0.085,-0.225
5916,-0.075,-0.195
5917,-0.055,-0.165
5918,-0.015,-0.165
5919,0.015,-0.145
5920,0.025,-0.145
5921,0.045,-0.135
5922,0.125,-0.165
5923,0.125,-0.165
5924,0.105,-0.165
5925,0.105,-0.175
5926,0.055,-0.185
5927,0.055,-0.215
5928,-0.025,-0.235
5929,-0.115,-0.255
5930,-0.185,-0.265
5931,-0.215,-0.265
5932,-0.225,-0.255
5933,-0.195,-0.255
5934,-0.235,-0.225
5935,-0.525,-0.145
5936,-0.675,0.085
5937,-0.275,0.055
5938,0.585,-0.315
5939,0.925,-1.065
5940,0.235,-0.975
5941,-0.305,-0.645
5942,-0.385,-0.305
5943,-0.285,-0.185
5944,-0.255,-0.205
5945,-0.255,-0.225
5946,-0.265,-0.225
5947,-0.275,-0.215
5948,-0.265,-0.205
5949,-0.265,-0.215
5950,-0.245,-0.205
5951,-0.235,-0.195
5952,-0.215,-0.205
5953,-0.215,-0.175
5954,-0.205,-0.165
5955,-0.205,-0.145
5956,-0.165,-0.135
5957,-0.155,-0.105
5958,-0.135,-0.085
5959,-0.085,-0.075
5960,-0.055,-0.045
5961,-0.005,-0.035
5962,0.015,-0.035
5963,0.045,-0.025
5964,0.075,-0.005
5965,0.135,0.005
5966,0.155,0.005
5967,0.185,-0.005
5968,0.205,-0.015
5969,0.175,-0.035
5970,0.125,-0.065
5971,0.055,-0.095
5972,-0.015,-0.135
5973,-0.085,-0.145
5974,-0.135,-0.175
5975,-0.175,-0.175
5976,-0.165,-0.175
5977,-0.155,-0.165
5978,-0.155,-0.175
5979,-0.195,-0.165
5980,-0.185,-0.175
5981,-0.205,-0.155
5982,-0.195,-0.145
5983,-0.155,-0.125
5984,-0.115,-0.115
5985,-0.105,-0.095
5986,-0.095,-0.095
5987,-0.085,-0.085
5988,-0.045,-0.085
5989,0.045,-0.115
5990,0.025,-0.115
5991,0.025,-0.115
5992,0.015,-0.135
5993,-0.015,-0.125
5994,-0.055,-0.135
5995,-0.135,-0.185
5996,-0.215,-0.195
5997,-0.255,-0.205
5998,-0.215,-0.185
5999,-0.205,-0.195
6000,-0.185,-0.185
6001,-0.235,-0.115
6002,-0.525,-0.015
6003,-0.595,0.135
6004,-0.185,-0.005
6005,0.465,-0.445
6006,0.625,-0.905
6007,0.105,-0.735
6008,-0.345,-0.455
6009,-0.415,-0.215
6010,-0.405,-0.105
6011,-0.335,-0.135
6012,-0.295,-0.135
6013,-0.265,-0.135
6014,-0.265,-0.135
6015,-0.245,-0.125
6016,-0.235,-0.115
6017,-0.235,-0.105
6018,-0.235,-0.095
6019,-0.235,-0.095
6020,-0.215,-0.075
6021,-0.195,-0.065
6022,-0.195,-0.055
6023,-0.175,-0.035
6024,-0.165,-0.025
6025,-0.125,0.005
6026,-0.115,0.015
6027,-0.095,0.035
6028,-0.045,0.035
6029,0.025,0.065
6030,0.065,0.055
6031,0.125,0.055
6032,0.145,0.065
6033,0.185,0.065
6034,0.205,0.055
6035,0.165,0.045
6036,0.145,0.015
6037,0.085,-0.005
6038,0.005,-0.045
6039,-0.065,-0.055
6040,-0.125,-0.075
6041,-0.155,-0.065
6042,-0.165,-0.075
6043,-0.185,-0.095
6044,-0.205,-0.085
6045,-0.205,-0.085
6046,-0.175,-0.065
6047,-0.165,-0.075
6048,-0.175,-0.065
6049,-0.185,-0.045
6050,-0.165,-0.025
6051,-0.155,-0.015
6052,-0.145,0.005
6053,-0.095,0.015
6054,-0.075,-0.005
6055,0.005,-0.035
6056,-0.005,-0.025
6057,0.015,-0.025
6058,0.005,-0.035
6059,-0.045,-0.055
6060,-0.085,-0.055
6061,-0.165,-0.085
6062,-0.205,-0.105
6063,-0.245,-0.125
6064,-0.275,-0.115
6065,-0.285,-0.095
6066,-0.275,-0.095
6067,-0.335,-0.035
6068,-0.645,0.045
6069,-0.725,0.225
6070,-0.315,0.135
6071,0.415,-0.205
6072,0.745,-0.895
6073,0.175,-0.775
6074,-0.365,-0.505
6075,-0.515,-0.215
6076,-0.435,-0.055
6077,-0.365,-0.065
6078,-0.325,-0.075
6079,-0.305,-0.075
6080,-0.285,-0.075
6081,-0.295,-0.055
6082,-0.285,-0.045
6083,-0.265,-0.025
6084,-0.235,-0.025
6085,-0.225,-0.015
6086,-0.235,-0.005
6087,-0.225,0.005
6088,-0.225,0.035
6089,-0.205,0.065
6090,-0.195,0.075
6091,-0.205,0.085
6092,-0.185,0.105
6093,-0.115,0.135
6094,-0.065,0.135
6095,0.035,0.125
6096,0.075,0.145
6097,0.125,0.135
6098,0.165,0.125
6099,0.185,0.115
6100,0.185,0.115
6101,0.185,0.115
6102,0.145,0.085
6103,0.085,0.055
6104,0.005,0.025
6105,-0.095,0.005
6106,-0.165,-0.015
6107,-0.205,-0.025
6108,-0.195,-0.035
6109,-0.215,-0.035
6110,-0.215,-0.035
6111,-0.215,-0.035
6112,-0.215,-0.025
6113,-0.205,-0.035
6114,-0.195,-0.025
6115,-0.205,-0.005
6116,-0.165,0.025
6117,-0.125,0.015
6118,-0.125,0.055
6119,-0.095,0.045
6120,-0.085,0.045
6121,0.005,0.035
6122,0.015,0.035
6123,-0.015,0.015
6124,-0.035,-0.015
6125,-0.055,-0.005
6126,-0.125,-0.025
6127,-0.165,-0.045
6128,-0.255,-0.085
6129,-0.295,-0.085
6130,-0.335,-0.075
6131,-0.325,-0.085
6132,-0.325,-0.065
6133,-0.375,0.035
6134,-0.675,0.125
6135,-0.715,0.215
6136,-0.235,0.095
6137,0.525,-0.195
6138,0.705,-0.675
6139,0.155,-0.535
6140,-0.375,-0.425
6141,-0.565,-0.255
6142,-0.545,-0.075
6143,-0.465,-0.035
6144,-0.335,-0.055
6145,-0.325,-0.055
6146,-0.355,-0.035
6147,-0.355,-0.035
6148,-0.335,-0.045
6149,-0.315,-0.025
6150,-0.315,-0.015
6151,-0.295,-0.015
6152,-0.295,-0.005
6153,-0.255,-0.005
6154,-0.285,0.015
6155,-0.265,0.025
6156,-0.245,0.035
6157,-0.205,0.065
6158,-0.175,0.065
6159,-0.145,0.085
6160,-0.115,0.095
6161,-0.035,0.095
6162,0.015,0.115
6163,0.035,0.105
6164,0.045,0.095
6165,0.105,0.105
6166,0.135,0.095
6167,0.125,0.085
6168,0.105,0.065
6169,0.025,0.065
6170,-0.035,0.045
6171,-0.135,0.025
6172,-0.175,0.005
6173,-0.195,-0.005
6174,-0.265,-0.015
6175,-0.275,-0.015
6176,-0.255,-0.015
6177,-0.265,-0.015
6178,-0.275,-0.005
6179,-0.295,-0.015
6180,-0.285,0.005
6181,-0.245,0.035
6182,-0.225,0.045
6183,-0.215,0.055
6184,-0.185,0.055
6185,-0.195,0.075
6186,-0.135,0.075
6187,-0.065,0.045
6188,-0.065,0.045
6189,-0.065,0.045
6190,-0.075,0.035
6191,-0.075,0.025
6192,-0.125,0.005
6193,-0.215,-0.015
6194,-0.275,-0.055
6195,-0.345,-0.065
6196,-0.365,-0.065
6197,-0.365,-0.045
6198,-0.345,-0.015
6199,-0.475,0.105
6200,-0.765,0.225
6201,-0.605,0.325
6202,0.085,0.125
6203,0.795,-0.385
6204,0.545,-0.595
6205,-0.115,-0.475
6206,-0.555,-0.315
6207,-0.585,-0.135
6208,-0.545,-0.015
6209,-0.425,-0.005
6210,-0.385,-0.015
6211,-0.395,-0.025
6212,-0.375,-0.015
6213,-0.355,-0.015
6214,-0.355,-0.015
6215,-0.325,-0.005
6216,-0.325,-0.005
6217,-0.325,0.015
6218,-0.295,0.015
6219,-0.305,0.025
6220,-0.285,0.045
6221,-0.215,0.075
6222,-0.205,0.085
6223,-0.155,0.085
6224,-0.115,0.105
6225,-0.085,0.125
6226,-0.055,0.135
6227,-0.015,0.135
6228,0.025,0.135
6229,0.085,0.125
6230,0.095,0.125
6231,0.125,0.125
6232,0.155,0.105
6233,0.135,0.095
6234,0.105,0.085
6235,0.045,0.085
6236,-0.015,0.065
6237,-0.065,0.045
6238,-0.125,0.025
6239,-0.165,0.015
6240,-0.185,0.005
6241,-0.195,0.005
6242,-0.215,-0.005
6243,-0.205,0.015
6244,-0.205,0.005
6245,-0.185,0.005
6246,-0.195,0.025
6247,-0.195,0.045
6248,-0.145,0.065
6249,-0.115,0.065
6250,-0.105,0.085
6251,-0.105,0.085
6252,-0.075,0.085
6253,0.005,0.065
6254,0.015,0.065
6255,0.025,0.055
6256,0.005,0.025
6257,-0.035,0.045
6258,-0.055,0.025
6259,-0.125,-0.015
6260,-0.175,-0.035
6261,-0.215,-0.045
6262,-0.235,-0.045
6263,-0.235,-0.055
6264,-0.225,-0.005
6265,-0.345,0.105
6266,-0.605,0.205
6267,-0.515,0.305
6268,0.085,0.115
6269,0.735,-0.455
6270,0.485,-0.615
6271,-0.105,-0.505
6272,-0.455,-0.295
6273,-0.445,-0.065
6274,-0.385,0.005
6275,-0.315,-0.005
6276,-0.285,-0.015
6277,-0.275,-0.015
6278,-0.275,-0.015
6279,-0.255,-0.005
6280,-0.265,0.005
6281,-0.255,0.015
6282,-0.235,0.025
6283,-0.235,0.025
6284,-0.235,0.035
6285,-0.215,0.045
6286,-0.215,0.065
6287,-0.165,0.085
6288,-0.155,0.095
6289,-0.115,0.125
6290,-0.075,0.135
6291,-0.055,0.145
6292,-0.015,0.155
6293,0.045,0.165
6294,0.115,0.165
6295,0.165,0.155
6296,0.175,0.145
6297,0.165,0.145
6298,0.165,0.125
6299,0.105,0.115
6300,0.095,0.095
6301,0.025,0.065
6302,-0.045,0.045
6303,-0.085,0.035
6304,-0.125,0.025
6305,-0.155,0.005
6306,-0.165,0.015
6307,-0.205,0.015
6308,-0.185,0.015
6309,-0.185,0.015
6310,-0.185,0.015
6311,-0.175,0.025
6312,-0.185,0.045
6313,-0.135,0.085
6314,-0.105,0.085
6315,-0.105,0.115
6316,-0.055,0.105
6317,0.005,0.105
6318,0.045,0.085
6319,0.065,0.085
6320,0.055,0.065
6321,0.045,0.055
6322,0.005,0.065
6323,-0.015,0.045
6324,-0.065,0.015
6325,-0.135,-0.005
6326,-0.195,-0.025
6327,-0.245,-0.025
6328,-0.235,-0.025
6329,-0.235,-0.035
6330,-0.255,0.015
6331,-0.585,0.085
6332,-0.745,0.265
6333,-0.345,0.225
6334,0.455,-0.065
6335,0.845,-0.775
6336,0.225,-0.695
6337,-0.365,-0.465
6338,-0.505,-0.185
6339,-0.455,-0.005
6340,-0.355,0.005
6341,-0.325,-0.015
6342,-0.315,-0.005
6343,-0.285,-0.005
6344,-0.295,-0.015
6345,-0.285,-0.015
6346,-0.285,-0.005
6347,-0.255,-0.005
6348,-0.285,-0.015
6349,-0.225,0.005
6350,-0.215,0.005
6351,-0.195,0.045
6352,-0.185,0.055
6353,-0.155,0.065
6354,-0.145,0.095
6355,-0.135,0.125
6356,-0.075,0.145
6357,0.015,0.145
6358,0.055,0.175
6359,0.075,0.165
6360,0.135,0.165
6361,0.135,0.165
6362,0.145,0.165
6363,0.155,0.165
6364,0.155,0.135
6365,0.125,0.125
6366,0.065,0.095
6367,0.025,0.045
6368,-0.065,0.035
6369,-0.145,0.025
6370,-0.155,0.005
6371,-0.205,-0.015
6372,-0.235,-0.025
6373,-0.225,-0.015
6374,-0.225,-0.035
6375,-0.195,-0.015
6376,-0.225,-0.005
6377,-0.195,-0.015
6378,-0.225,0.005
6379,-0.215,0.005
6380,-0.205,0.025
6381,-0.155,0.025
6382,-0.185,0.065
6383,-0.165,0.065
6384,-0.095,0.075
6385,-0.005,0.025
6386,-0.025,0.045
6387,-0.045,0.025
6388,-0.035,0.005
6389,-0.085,0.015
6390,-0.105,0.005
6391,-0.185,-0.045
6392,-0.255,-0.075
6393,-0.315,-0.065
6394,-0.325,-0.055
6395,-0.335,-0.065
6396,-0.335,-0.035
6397,-0.455,0.055
6398,-0.805,0.215
6399,-0.665,0.355
6400,0.075,0.215
6401,0.845,-0.235
6402,0.785,-0.695
6403,0.005,-0.535
6404,-0.545,-0.365
6405,-0.625,-0.185
6406,-0.585,-0.035
6407,-0.475,-0.025
6408,-0.385,-0.005
6409,-0.345,-0.035
6410,-0.375,-0.045
6411,-0.395,-0.065
6412,-0.375,-0.055
6413,-0.375,-0.065
6414,-0.355,-0.055
6415,-0.345,-0.065
6416,-0.325,-0.065
6417,-0.305,-0.055
6418,-0.305,-0.045
6419,-0.275,-0.025
6420,-0.215,-0.055
6421,-0.185,-0.025
6422,-0.145,0.005
6423,-0.075,0.025
6424,-0.055,0.035
6425,0.005,0.035
6426,0.025,0.045
6427,0.055,0.055
6428,0.095,0.055
6429,0.135,0.065
6430,0.135,0.085
6431,0.185,0.025
6432,0.085,0.005
6433,0.045,0.005
6434,-0.025,-0.025
6435,-0.115,-0.055
6436,-0.145,-0.085
6437,-0.195,-0.075
6438,-0.215,-0.085
6439,-0.215,-0.075
6440,-0.195,-0.075
6441,-0.195,-0.055
6442,-0.185,-0.045
6443,-0.195,-0.065
6444,-0.195,-0.075
6445,-0.205,-0.055
6446,-0.225,-0.045
6447,-0.175,-0.035
6448,-0.165,-0.005
6449,-0.105,-0.005
6450,-0.145,0.005
6451,-0.115,0.015
6452,-0.075,0.025
6453,0.005,-0.015
6454,-0.025,-0.015
6455,0.025,-0.025
6456,-0.025,-0.045
6457,-0.065,-0.055
6458,-0.085,-0.035
6459,-0.135,-0.075
6460,-0.185,-0.095
6461,-0.195,-0.115
6462,-0.265,-0.135
6463,-0.295,-0.145
6464,-0.305,-0.115
6465,-0.365,-0.025
6466,-0.685,0.085
6467,-0.705,0.235
6468,-0.165,0.165
6469,0.725,-0.165
6470,0.945,-0.785
6471,0.165,-0.685
6472,-0.435,-0.545
6473,-0.545,-0.325
6474,-0.485,-0.145
6475,-0.395,-0.135
6476,-0.305,-0.135
6477,-0.285,-0.115
6478,-0.275,-0.105
6479,-0.265,-0.125
6480,-0.255,-0.115
6481,-0.235,-0.105
6482,-0.255,-0.105
6483,-0.245,-0.075
6484,-0.225,-0.075
6485,-0.205,-0.065
6486,-0.205,-0.055
6487,-0.215,-0.035
6488,-0.185,-0.015
6489,-0.155,0.005
6490,-0.115,0.025
6491,-0.145,0.065
6492,-0.075,0.075
6493,-0.015,0.065
6494,0.055,0.085
6495,0.095,0.045
6496,0.095,0.055
6497,0.085,0.045
6498,0.105,0.065
6499,0.005,0.025
6500,-0.085,-0.005
6501,-0.205,-0.075
6502,-0.445,-0.095
6503,-0.765,-0.115
6504,-0.615,-0.045
6505,-0.505,-0.085
6506,-0.415,-0.075
6507,-0.245,-0.075
6508,-0.365,-0.055
6509,-0.145,-0.045
6510,-0.175,-0.085
6511,-0.135,-0.065
6512,-0.095,-0.045
6513,-0.065,-0.015
6514,-0.095,-0.015
6515,-0.125,-0.035
6516,-0.075,-0.035
6517,-0.085,-0.035
6518,-0.105,-0.045
6519,-0.105,-0.035
6520,-0.105,-0.025
6521,-0.075,-0.025
6522,-0.045,-0.005
6523,-0.035,0.025
6524,0.025,0.025
6525,0.025,0.035
6526,0.045,0.055
6527,0.145,0.025
6528,0.185,0.025
6529,0.205,0.005
6530,0.175,0.005
6531,0.125,-0.025
6532,0.095,-0.025
6533,-0.005,-0.065
6534,-0.065,-0.095
6535,-0.085,-0.115
6536,-0.145,-0.115
6537,-0.185,-0.085
6538,-0.065,-0.055
6539,-0.125,-0.005
6540,-0.445,0.095
6541,-0.455,0.325
6542,0.165,0.225
6543,1.155,-0.035
6544,1.345,-0.775
6545,0.505,-0.735
6546,-0.165,-0.505
6547,-0.335,-0.235
6548,-0.305,-0.085
6549,-0.135,-0.115
6550,-0.135,-0.135
6551,-0.095,-0.135
6552,-0.115,-0.115
6553,-0.075,-0.105
6554,-0.055,-0.095
6555,-0.035,-0.085
6556,-0.045,-0.065
6557,0.035,-0.085
6558,0.025,-0.065
6559,0.025,-0.045
6560,0.045,-0.025
6561,0.135,-0.005
6562,0.075,-0.025
6563,0.045,-0.025
6564,0.075,-0.025
6565,0.185,-0.015
6566,0.175,-0.005
6567,0.285,0.025
6568,0.355,0.035
6569,0.455,0.075
6570,0.495,0.025
6571,0.435,0.035
6572,0.415,0.025
6573,0.465,0.045
6574,0.425,-0.045
6575,0.355,-0.045
6576,0.255,-0.085
6577,0.195,-0.125
6578,0.125,-0.125
6579,0.145,-0.115
6580,0.115,-0.135
6581,0.105,-0.105
6582,0.135,-0.155
6583,0.105,-0.145
6584,0.135,-0.115
6585,0.195,-0.105
6586,0.185,-0.125
6587,0.155,-0.125
6588,0.125,-0.155
6589,0.135,-0.115
6590,0.125,-0.125
6591,0.145,-0.105
6592,0.175,-0.135
6593,0.255,-0.105
6594,0.165,-0.115
6595,0.135,-0.095
6596,0.125,-0.115
6597,0.115,-0.095
6598,0.075,-0.145
6599,0.035,-0.135
6600,-0.025,-0.145
6601,-0.025,-0.155
6602,-0.135,-0.145
6603,-0.165,-0.145
6604,-0.125,-0.125
6605,-0.015,-0.085
6606,0.075,-0.095
6607,0.065,-0.095
6608,0.005,-0.125
6609,-0.045,-0.125
