'sample interval','ECG1','ECG2'
'0.0078125 sec','mV','mV'
0,0.365,0.245
1,0.365,0.255
2,0.355,0.235
3,0.355,0.235
4,0.345,0.225
5,0.335,0.225
6,0.335,0.215
7,0.325,0.215
8,0.315,0.205
9,0.315,0.205
10,0.305,0.195
11,0.295,0.185
12,0.295,0.185
13,0.285,0.185
14,0.275,0.175
15,0.275,0.165
16,0.265,0.155
17,0.255,0.165
18,0.245,0.145
19,0.245,0.145
20,0.235,0.135
21,0.235,0.135
22,0.215,0.125
23,0.215,0.115
24,0.205,0.105
25,0.195,0.105
26,0.185,0.095
27,0.175,0.085
28,0.165,0.085
29,0.155,0.085
30,0.135,0.065
31,0.135,0.055
32,0.115,0.055
33,0.105,0.045
34,0.075,-0.155
35,-0.415,-0.655
36,-0.645,-0.595
37,-0.575,-0.535
38,-0.535,-0.525
39,-0.535,-0.525
40,-0.525,-0.525
41,-0.525,-0.515
42,-0.525,-0.515
43,-0.525,-0.505
44,-0.515,-0.515
45,-0.515,-0.505
46,-0.505,-0.495
47,-0.515,-0.495
48,-0.505,-0.495
49,-0.505,-0.485
50,-0.495,-0.485
51,-0.495,-0.485
52,-0.485,-0.475
53,-0.485,-0.465
54,-0.475,-0.465
55,-0.475,-0.465
56,-0.465,-0.455
57,-0.465,-0.445
58,-0.455,-0.445
59,-0.455,-0.445
60,-0.445,-0.435
61,-0.435,-0.425
62,-0.435,-0.425
63,-0.425,-0.415
64,-0.425,-0.415
65,-0.415,-0.405
66,-0.405,-0.395
67,-0.405,-0.395
68,-0.395,-0.385
69,-0.385,-0.375
70,-0.385,-0.375
71,-0.375,-0.375
72,-0.375,-0.365
73,-0.355,-0.355
74,-0.355,-0.355
75,-0.355,-0.355
76,-0.345,-0.345
77,-0.335,-0.335
78,-0.335,-0.335
79,-0.325,-0.325
80,-0.315,-0.325
81,-0.305,-0.315
82,-0.305,-0.305
83,-0.295,-0.305
84,-0.285,-0.295
85,-0.275,-0.285
86,-0.265,-0.285
87,-0.255,-0.275
88,-0.255,-0.265
89,-0.235,-0.255
90,-0.235,-0.255
91,-0.225,-0.245
92,-0.215,-0.245
93,-0.205,-0.235
94,-0.185,-0.235
95,-0.175,-0.225
96,-0.165,-0.215
97,-0.145,-0.195
98,-0.125,-0.035
99,0.365,0.495
100,0.595,0.425
101,0.525,0.375
102,0.495,0.365
103,0.485,0.355
104,0.485,0.355
105,0.475,0.345
106,0.475,0.345
107,0.475,0.345
108,0.475,0.345
109,0.465,0.345
110,0.465,0.335
111,0.465,0.325
112,0.455,0.325
113,0.455,0.325
114,0.455,0.315
115,0.445,0.315
116,0.445,0.305
117,0.435,0.305
118,0.435,0.305
119,0.435,0.295
120,0.425,0.285
121,0.415,0.285
122,0.405,0.275
123,0.405,0.265
124,0.405,0.255
125,0.395,0.255
126,0.385,0.255
127,0.385,0.245
128,0.375,0.235
129,0.375,0.245
130,0.365,0.235
131,0.355,0.225
132,0.355,0.215
133,0.345,0.215
134,0.335,0.205
135,0.335,0.205
136,0.325,0.195
137,0.325,0.185
138,0.305,0.185
139,0.305,0.185
140,0.295,0.165
141,0.295,0.165
142,0.285,0.165
143,0.275,0.155
144,0.265,0.155
145,0.265,0.155
146,0.255,0.145
147,0.245,0.135
148,0.245,0.125
149,0.235,0.125
150,0.225,0.115
151,0.215,0.105
152,0.205,0.095
153,0.205,0.095
154,0.195,0.085
155,0.175,0.075
156,0.175,0.065
157,0.165,0.065
158,0.145,0.065
159,0.135,0.055
160,0.125,0.045
161,0.115,0.035
162,0.075,-0.005
163,-0.275,-0.665
164,-0.645,-0.605
165,-0.575,-0.555
166,-0.545,-0.535
167,-0.535,-0.535
168,-0.525,-0.525
169,-0.525,-0.525
170,-0.525,-0.525
171,-0.525,-0.525
172,-0.515,-0.515
173,-0.515,-0.505
174,-0.515,-0.505
175,-0.515,-0.505
176,-0.505,-0.505
177,-0.505,-0.495
178,-0.495,-0.495
179,-0.495,-0.495
180,-0.495,-0.485
181,-0.485,-0.475
182,-0.485,-0.475
183,-0.485,-0.465
184,-0.475,-0.465
185,-0.465,-0.455
186,-0.455,-0.445
187,-0.455,-0.445
188,-0.445,-0.435
189,-0.445,-0.435
190,-0.435,-0.425
191,-0.425,-0.425
192,-0.425,-0.415
193,-0.415,-0.405
194,-0.415,-0.405
195,-0.405,-0.405
196,-0.395,-0.395
197,-0.385,-0.385
198,-0.385,-0.385
199,-0.375,-0.375
200,-0.375,-0.375
201,-0.365,-0.365
202,-0.365,-0.355
203,-0.345,-0.355
204,-0.345,-0.345
205,-0.335,-0.335
206,-0.335,-0.335
207,-0.315,-0.335
208,-0.315,-0.325
209,-0.305,-0.305
210,-0.295,-0.305
211,-0.295,-0.305
212,-0.285,-0.295
213,-0.275,-0.285
214,-0.265,-0.275
215,-0.255,-0.275
216,-0.245,-0.265
217,-0.235,-0.255
218,-0.225,-0.255
219,-0.215,-0.245
220,-0.215,-0.245
221,-0.195,-0.225
222,-0.185,-0.225
223,-0.175,-0.215
224,-0.155,-0.205
225,-0.145,-0.195
226,-0.115,0.065
227,0.425,0.495
228,0.595,0.425
229,0.525,0.385
230,0.495,0.365
231,0.485,0.365
232,0.485,0.345
233,0.485,0.365
234,0.485,0.345
235,0.475,0.345
236,0.475,0.345
237,0.475,0.355
238,0.465,0.335
239,0.465,0.335
240,0.465,0.325
241,0.465,0.335
242,0.455,0.325
243,0.455,0.325
244,0.455,0.315
245,0.445,0.315
246,0.445,0.315
247,0.435,0.305
248,0.435,0.295
249,0.425,0.295
250,0.425,0.285
251,0.415,0.285
252,0.415,0.275
253,0.405,0.275
254,0.395,0.265
255,0.395,0.255
256,0.385,0.245
257,0.375,0.255
258,0.375,0.245
259,0.365,0.235
260,0.365,0.235
261,0.355,0.235
262,0.345,0.225
263,0.345,0.215
264,0.335,0.205
265,0.325,0.205
266,0.315,0.205
267,0.315,0.195
268,0.305,0.185
269,0.295,0.185
270,0.285,0.165
271,0.285,0.165
272,0.275,0.165
273,0.275,0.165
274,0.265,0.155
275,0.255,0.145
276,0.245,0.125
277,0.245,0.135
278,0.225,0.125
279,0.225,0.115
280,0.215,0.105
281,0.205,0.105
282,0.195,0.095
283,0.185,0.085
284,0.175,0.085
285,0.165,0.075
286,0.145,0.065
287,0.135,0.055
288,0.125,0.045
289,0.105,0.045
290,0.085,-0.395
291,-0.555,-0.655
292,-0.625,-0.575
293,-0.555,-0.535
294,-0.535,-0.525
295,-0.525,-0.515
296,-0.525,-0.515
297,-0.515,-0.505
298,-0.515,-0.505
299,-0.515,-0.505
300,-0.515,-0.505
301,-0.515,-0.495
302,-0.515,-0.495
303,-0.505,-0.495
304,-0.495,-0.485
305,-0.495,-0.485
306,-0.495,-0.485
307,-0.495,-0.475
308,-0.485,-0.465
309,-0.485,-0.455
310,-0.475,-0.455
311,-0.475,-0.455
312,-0.465,-0.445
313,-0.465,-0.445
314,-0.455,-0.435
315,-0.445,-0.435
316,-0.445,-0.425
317,-0.435,-0.415
318,-0.435,-0.415
319,-0.425,-0.415
320,-0.415,-0.405
321,-0.415,-0.385
322,-0.405,-0.385
323,-0.395,-0.385
324,-0.395,-0.385
325,-0.385,-0.365
326,-0.385,-0.365
327,-0.375,-0.365
328,-0.365,-0.355
329,-0.355,-0.345
330,-0.355,-0.345
331,-0.345,-0.345
332,-0.345,-0.335
333,-0.335,-0.325
334,-0.325,-0.325
335,-0.325,-0.315
336,-0.315,-0.315
337,-0.305,-0.305
338,-0.295,-0.295
339,-0.295,-0.285
340,-0.285,-0.285
341,-0.275,-0.275
342,-0.265,-0.265
343,-0.255,-0.255
344,-0.245,-0.255
345,-0.235,-0.245
346,-0.225,-0.235
347,-0.215,-0.235
348,-0.205,-0.225
349,-0.195,-0.215
350,-0.185,-0.205
351,-0.175,-0.205
352,-0.155,-0.195
353,-0.145,-0.185
354,-0.125,-0.205
355,-0.045,0.475
356,0.605,0.475
357,0.565,0.405
358,0.515,0.395
359,0.495,0.385
360,0.495,0.375
361,0.495,0.375
362,0.485,0.365
363,0.485,0.365
364,0.485,0.365
365,0.485,0.365
366,0.475,0.355
367,0.465,0.355
368,0.465,0.345
369,0.465,0.345
370,0.455,0.345
371,0.455,0.335
372,0.455,0.325
373,0.445,0.325
374,0.445,0.315
375,0.435,0.315
376,0.435,0.305
377,0.425,0.305
378,0.415,0.305
379,0.415,0.295
380,0.405,0.285
381,0.405,0.285
382,0.395,0.265
383,0.385,0.265
384,0.385,0.265
385,0.375,0.255
386,0.365,0.245
387,0.365,0.245
388,0.355,0.235
389,0.345,0.235
390,0.335,0.235
391,0.335,0.215
392,0.325,0.215
393,0.315,0.205
394,0.305,0.205
395,0.305,0.195
396,0.295,0.185
397,0.285,0.185
398,0.285,0.175
399,0.275,0.165
400,0.265,0.155
401,0.255,0.155
402,0.245,0.145
403,0.235,0.135
404,0.235,0.135
405,0.225,0.125
406,0.215,0.115
407,0.205,0.105
408,0.195,0.105
409,0.185,0.105
410,0.175,0.095
411,0.165,0.085
412,0.155,0.065
413,0.145,0.075
414,0.135,0.065
415,0.125,0.055
416,0.105,0.045
417,0.085,0.045
418,0.085,-0.485
419,-0.595,-0.645
420,-0.625,-0.575
421,-0.575,-0.535
422,-0.545,-0.525
423,-0.535,-0.525
424,-0.535,-0.525
425,-0.535,-0.515
426,-0.535,-0.515
427,-0.525,-0.515
428,-0.525,-0.515
429,-0.525,-0.495
430,-0.515,-0.505
431,-0.515,-0.505
432,-0.505,-0.495
433,-0.515,-0.485
434,-0.505,-0.485
435,-0.505,-0.475
436,-0.495,-0.475
437,-0.495,-0.465
438,-0.495,-0.465
439,-0.485,-0.455
440,-0.475,-0.455
441,-0.465,-0.445
442,-0.465,-0.445
443,-0.465,-0.435
444,-0.455,-0.435
445,-0.445,-0.425
446,-0.445,-0.415
447,-0.435,-0.415
448,-0.425,-0.405
449,-0.425,-0.395
450,-0.415,-0.395
451,-0.405,-0.395
452,-0.405,-0.385
453,-0.395,-0.365
454,-0.385,-0.365
455,-0.375,-0.365
456,-0.375,-0.355
457,-0.365,-0.345
458,-0.355,-0.345
459,-0.345,-0.345
460,-0.345,-0.335
461,-0.335,-0.325
462,-0.335,-0.315
463,-0.325,-0.315
464,-0.315,-0.305
465,-0.305,-0.295
466,-0.295,-0.285
467,-0.295,-0.285
468,-0.285,-0.275
469,-0.275,-0.265
470,-0.265,-0.265
471,-0.255,-0.265
472,-0.245,-0.255
473,-0.235,-0.245
474,-0.225,-0.235
475,-0.215,-0.235
476,-0.205,-0.225
477,-0.195,-0.215
478,-0.185,-0.215
479,-0.175,-0.205
480,-0.155,-0.195
481,-0.135,-0.175
482,-0.115,0.145
483,0.445,0.505
484,0.595,0.435
485,0.535,0.395
486,0.495,0.385
487,0.485,0.375
488,0.485,0.375
489,0.485,0.365
490,0.485,0.365
491,0.475,0.355
492,0.475,0.355
493,0.475,0.355
494,0.465,0.345
495,0.465,0.345
496,0.465,0.345
497,0.455,0.335
498,0.455,0.335
499,0.445,0.315
500,0.445,0.325
501,0.445,0.325
502,0.435,0.305
503,0.425,0.305
504,0.425,0.295
505,0.415,0.295
506,0.415,0.285
507,0.395,0.275
508,0.395,0.275
509,0.395,0.265
510,0.385,0.265
511,0.375,0.255
512,0.375,0.245
513,0.365,0.245
514,0.355,0.235
515,0.345,0.225
516,0.345,0.225
517,0.335,0.225
518,0.325,0.215
519,0.315,0.205
520,0.315,0.195
521,0.305,0.185
522,0.295,0.185
523,0.295,0.185
524,0.285,0.165
525,0.275,0.165
526,0.265,0.165
527,0.265,0.155
528,0.255,0.145
529,0.255,0.145
530,0.235,0.135
531,0.235,0.125
532,0.215,0.115
533,0.215,0.115
534,0.205,0.105
535,0.195,0.095
536,0.185,0.085
537,0.175,0.085
538,0.165,0.075
539,0.155,0.065
540,0.145,0.065
541,0.135,0.065
542,0.125,0.045
543,0.115,0.035
544,0.105,0.025
545,0.085,0.025
546,0.055,-0.105
547,-0.355,-0.685
548,-0.675,-0.615
549,-0.595,-0.565
550,-0.565,-0.545
551,-0.545,-0.545
552,-0.545,-0.535
553,-0.545,-0.535
554,-0.545,-0.535
555,-0.535,-0.525
556,-0.535,-0.525
557,-0.535,-0.515
558,-0.535,-0.525
559,-0.535,-0.515
560,-0.525,-0.505
561,-0.525,-0.495
562,-0.515,-0.495
563,-0.515,-0.495
564,-0.505,-0.485
565,-0.495,-0.475
566,-0.495,-0.475
567,-0.485,-0.475
568,-0.485,-0.465
569,-0.475,-0.455
570,-0.465,-0.455
571,-0.465,-0.445
572,-0.465,-0.445
573,-0.455,-0.435
574,-0.445,-0.425
575,-0.435,-0.425
576,-0.425,-0.415
577,-0.425,-0.405
578,-0.415,-0.405
579,-0.415,-0.405
580,-0.405,-0.395
581,-0.405,-0.385
582,-0.395,-0.385
583,-0.385,-0.375
584,-0.375,-0.375
585,-0.375,-0.365
586,-0.365,-0.365
587,-0.355,-0.355
588,-0.345,-0.355
589,-0.345,-0.335
590,-0.335,-0.335
591,-0.325,-0.335
592,-0.315,-0.325
593,-0.315,-0.315
594,-0.305,-0.305
595,-0.295,-0.305
596,-0.285,-0.295
597,-0.275,-0.285
598,-0.265,-0.285
599,-0.255,-0.275
600,-0.245,-0.265
601,-0.235,-0.255
602,-0.225,-0.255
603,-0.215,-0.245
604,-0.205,-0.235
605,-0.195,-0.225
606,-0.185,-0.225
607,-0.175,-0.225
608,-0.165,-0.205
609,-0.145,-0.185
610,-0.115,0.085
611,0.395,0.495
612,0.605,0.415
613,0.535,0.375
614,0.495,0.365
615,0.485,0.355
616,0.485,0.355
617,0.485,0.345
618,0.475,0.345
619,0.475,0.345
620,0.475,0.345
621,0.475,0.335
622,0.465,0.335
623,0.465,0.325
624,0.465,0.325
625,0.455,0.325
626,0.445,0.315
627,0.445,0.315
628,0.445,0.305
629,0.435,0.305
630,0.425,0.295
631,0.425,0.295
632,0.425,0.285
633,0.415,0.285
634,0.405,0.275
635,0.405,0.265
636,0.395,0.265
637,0.385,0.255
638,0.375,0.245
639,0.375,0.245
640,0.365,0.235
641,0.365,0.245
642,0.355,0.225
643,0.345,0.215
644,0.345,0.215
645,0.335,0.205
646,0.325,0.205
647,0.325,0.205
648,0.315,0.195
649,0.305,0.195
650,0.295,0.185
651,0.285,0.175
652,0.285,0.175
653,0.285,0.165
654,0.275,0.155
655,0.265,0.145
656,0.255,0.145
657,0.255,0.145
658,0.245,0.125
659,0.235,0.125
660,0.225,0.115
661,0.215,0.105
662,0.205,0.105
663,0.195,0.095
664,0.185,0.085
665,0.175,0.085
666,0.165,0.075
667,0.155,0.075
668,0.145,0.065
669,0.135,0.055
670,0.125,0.055
671,0.115,0.045
672,0.105,0.035
673,0.085,0.025
674,0.065,-0.025
675,-0.245,-0.685
676,-0.675,-0.615
677,-0.605,-0.565
678,-0.565,-0.545
679,-0.555,-0.535
680,-0.545,-0.535
681,-0.545,-0.525
682,-0.545,-0.525
683,-0.545,-0.525
684,-0.545,-0.525
685,-0.535,-0.515
686,-0.535,-0.515
687,-0.525,-0.515
688,-0.525,-0.505
689,-0.515,-0.495
690,-0.515,-0.495
691,-0.505,-0.485
692,-0.505,-0.485
693,-0.505,-0.475
694,-0.495,-0.465
695,-0.485,-0.465
696,-0.475,-0.455
697,-0.475,-0.445
698,-0.465,-0.445
699,-0.465,-0.445
700,-0.455,-0.435
701,-0.445,-0.425
702,-0.445,-0.425
703,-0.435,-0.415
704,-0.425,-0.405
705,-0.425,-0.405
706,-0.425,-0.395
707,-0.415,-0.395
708,-0.405,-0.385
709,-0.395,-0.375
710,-0.395,-0.375
711,-0.385,-0.365
712,-0.385,-0.365
713,-0.375,-0.355
714,-0.365,-0.355
715,-0.365,-0.345
716,-0.355,-0.345
717,-0.345,-0.335
718,-0.345,-0.325
719,-0.335,-0.325
720,-0.325,-0.315
721,-0.315,-0.305
722,-0.305,-0.305
723,-0.305,-0.295
724,-0.295,-0.285
725,-0.285,-0.275
726,-0.275,-0.275
727,-0.265,-0.265
728,-0.255,-0.265
729,-0.245,-0.245
730,-0.235,-0.245
731,-0.225,-0.235
732,-0.215,-0.235
733,-0.205,-0.225
734,-0.195,-0.215
735,-0.185,-0.215
736,-0.175,-0.205
737,-0.155,-0.185
738,-0.135,-0.015
739,0.315,0.495
740,0.595,0.435
741,0.525,0.395
742,0.495,0.375
743,0.475,0.365
744,0.485,0.355
745,0.475,0.365
746,0.475,0.355
747,0.475,0.355
748,0.465,0.345
749,0.465,0.345
750,0.455,0.345
751,0.455,0.335
752,0.455,0.325
753,0.455,0.335
754,0.445,0.325
755,0.435,0.315
756,0.435,0.315
757,0.425,0.305
758,0.415,0.305
759,0.415,0.295
760,0.405,0.285
761,0.405,0.285
762,0.395,0.275
763,0.385,0.265
764,0.385,0.265
765,0.375,0.265
766,0.365,0.255
767,0.365,0.245
768,0.355,0.235
769,0.345,0.235
770,0.345,0.235
771,0.335,0.225
772,0.325,0.225
773,0.325,0.205
774,0.315,0.205
775,0.305,0.205
776,0.305,0.185
777,0.295,0.185
778,0.285,0.185
779,0.285,0.175
780,0.275,0.165
781,0.265,0.165
782,0.255,0.165
783,0.255,0.155
784,0.245,0.145
785,0.245,0.145
786,0.235,0.135
787,0.225,0.125
788,0.215,0.125
789,0.205,0.115
790,0.195,0.105
791,0.185,0.105
792,0.175,0.085
793,0.165,0.085
794,0.155,0.085
795,0.155,0.075
796,0.145,0.065
797,0.135,0.065
798,0.115,0.045
799,0.105,0.045
800,0.095,0.045
801,0.075,0.035
802,0.055,-0.075
803,-0.315,-0.675
804,-0.675,-0.615
805,-0.615,-0.555
806,-0.575,-0.545
807,-0.555,-0.535
808,-0.555,-0.525
809,-0.545,-0.525
810,-0.555,-0.525
811,-0.545,-0.525
812,-0.545,-0.515
813,-0.535,-0.505
814,-0.535,-0.505
815,-0.545,-0.505
816,-0.525,-0.495
817,-0.525,-0.485
818,-0.525,-0.495
819,-0.515,-0.485
820,-0.515,-0.475
821,-0.505,-0.465
822,-0.505,-0.465
823,-0.495,-0.465
824,-0.485,-0.455
825,-0.475,-0.445
826,-0.475,-0.445
827,-0.475,-0.435
828,-0.465,-0.435
829,-0.455,-0.425
830,-0.455,-0.425
831,-0.455,-0.415
832,-0.445,-0.405
833,-0.435,-0.405
834,-0.435,-0.395
835,-0.425,-0.395
836,-0.415,-0.385
837,-0.405,-0.375
838,-0.405,-0.375
839,-0.395,-0.365
840,-0.385,-0.365
841,-0.375,-0.355
842,-0.375,-0.345
843,-0.365,-0.345
844,-0.355,-0.335
845,-0.355,-0.325
846,-0.345,-0.325
847,-0.345,-0.325
848,-0.335,-0.315
849,-0.325,-0.305
850,-0.315,-0.295
851,-0.315,-0.295
852,-0.305,-0.285
853,-0.285,-0.275
854,-0.285,-0.265
855,-0.275,-0.265
856,-0.265,-0.255
857,-0.255,-0.245
858,-0.245,-0.235
859,-0.225,-0.235
860,-0.225,-0.225
861,-0.215,-0.215
862,-0.205,-0.215
863,-0.185,-0.205
864,-0.175,-0.195
865,-0.155,-0.175
866,-0.135,0.015
867,0.335,0.515
868,0.595,0.445
869,0.535,0.405
870,0.495,0.385
871,0.485,0.375
872,0.475,0.365
873,0.475,0.375
874,0.475,0.365
875,0.475,0.365
876,0.465,0.365
877,0.455,0.365
878,0.455,0.345
879,0.455,0.345
880,0.455,0.345
881,0.445,0.335
882,0.435,0.335
883,0.435,0.325
884,0.435,0.315
885,0.425,0.315
886,0.415,0.305
887,0.415,0.305
888,0.405,0.295
889,0.395,0.285
890,0.395,0.285
891,0.395,0.275
892,0.385,0.275
893,0.375,0.275
894,0.375,0.265
895,0.365,0.255
896,0.365,0.245
897,0.355,0.255
898,0.345,0.245
899,0.345,0.235
900,0.335,0.225
901,0.335,0.225
902,0.325,0.225
903,0.315,0.215
904,0.315,0.205
905,0.305,0.205
906,0.295,0.185
907,0.285,0.195
908,0.285,0.185
909,0.285,0.185
910,0.275,0.165
911,0.265,0.165
912,0.255,0.165
913,0.255,0.155
914,0.245,0.155
915,0.235,0.145
916,0.225,0.135
917,0.225,0.135
918,0.215,0.125
919,0.195,0.115
920,0.195,0.105
921,0.185,0.105
922,0.175,0.085
923,0.155,0.095
924,0.155,0.085
925,0.145,0.075
926,0.135,0.065
927,0.115,0.055
928,0.115,0.045
929,0.095,0.045
930,0.065,0.025
931,-0.195,-0.655
932,-0.665,-0.605
933,-0.595,-0.545
934,-0.565,-0.535
935,-0.545,-0.525
936,-0.545,-0.525
937,-0.535,-0.515
938,-0.535,-0.515
939,-0.535,-0.505
940,-0.525,-0.505
941,-0.525,-0.495
942,-0.525,-0.495
943,-0.515,-0.495
944,-0.515,-0.495
945,-0.515,-0.485
946,-0.505,-0.475
947,-0.495,-0.475
948,-0.495,-0.465
949,-0.485,-0.455
950,-0.485,-0.455
951,-0.475,-0.455
952,-0.475,-0.445
953,-0.465,-0.435
954,-0.465,-0.435
955,-0.455,-0.425
956,-0.445,-0.425
957,-0.445,-0.405
958,-0.435,-0.405
959,-0.425,-0.405
960,-0.425,-0.395
961,-0.415,-0.385
962,-0.415,-0.385
963,-0.405,-0.385
964,-0.395,-0.375
965,-0.395,-0.365
966,-0.385,-0.365
967,-0.375,-0.365
968,-0.375,-0.355
969,-0.365,-0.345
970,-0.355,-0.345
971,-0.355,-0.335
972,-0.345,-0.335
973,-0.335,-0.325
974,-0.325,-0.325
975,-0.325,-0.315
976,-0.315,-0.305
977,-0.315,-0.305
978,-0.305,-0.295
979,-0.295,-0.295
980,-0.285,-0.285
981,-0.285,-0.275
982,-0.275,-0.265
983,-0.265,-0.265
984,-0.255,-0.255
985,-0.245,-0.245
986,-0.235,-0.245
987,-0.225,-0.235
988,-0.215,-0.235
989,-0.205,-0.215
990,-0.195,-0.215
991,-0.185,-0.215
992,-0.165,-0.205
993,-0.155,-0.175
994,-0.125,-0.015
995,0.325,0.505
996,0.605,0.435
997,0.535,0.395
998,0.495,0.375
999,0.485,0.365
1000,0.485,0.365
1001,0.485,0.365
1002,0.475,0.355
1003,0.475,0.355
1004,0.475,0.345
1005,0.465,0.345
1006,0.455,0.345
1007,0.455,0.345
1008,0.455,0.325
1009,0.455,0.335
1010,0.445,0.325
1011,0.445,0.315
1012,0.435,0.315
1013,0.435,0.315
1014,0.425,0.305
1015,0.415,0.295
1016,0.415,0.295
1017,0.415,0.295
1018,0.405,0.285
1019,0.405,0.285
1020,0.395,0.275
1021,0.395,0.275
1022,0.385,0.265
1023,0.375,0.255
1024,0.375,0.245
1025,0.375,0.245
1026,0.355,0.235
1027,0.355,0.235
1028,0.345,0.225
1029,0.345,0.225
1030,0.335,0.215
1031,0.325,0.205
1032,0.325,0.205
1033,0.315,0.205
1034,0.305,0.195
1035,0.305,0.185
1036,0.295,0.175
1037,0.285,0.185
1038,0.285,0.175
1039,0.275,0.165
1040,0.265,0.145
1041,0.265,0.155
1042,0.255,0.145
1043,0.245,0.135
1044,0.245,0.135
1045,0.235,0.125
1046,0.215,0.105
1047,0.205,0.105
1048,0.205,0.095
1049,0.195,0.105
1050,0.185,0.085
1051,0.175,0.075
1052,0.165,0.065
1053,0.155,0.075
1054,0.135,0.055
1055,0.125,0.055
1056,0.115,0.045
1057,0.095,0.035
1058,0.075,-0.145
1059,-0.405,-0.675
1060,-0.655,-0.605
1061,-0.585,-0.555
1062,-0.545,-0.535
1063,-0.535,-0.535
1064,-0.525,-0.535
1065,-0.535,-0.525
1066,-0.525,-0.525
1067,-0.525,-0.515
1068,-0.525,-0.515
1069,-0.515,-0.505
1070,-0.515,-0.505
1071,-0.515,-0.505
1072,-0.515,-0.505
1073,-0.505,-0.495
1074,-0.505,-0.495
1075,-0.495,-0.495
1076,-0.495,-0.485
1077,-0.485,-0.475
1078,-0.485,-0.475
1079,-0.475,-0.465
1080,-0.475,-0.465
1081,-0.465,-0.455
1082,-0.465,-0.455
1083,-0.455,-0.445
1084,-0.445,-0.445
1085,-0.445,-0.435
1086,-0.445,-0.425
1087,-0.425,-0.425
1088,-0.425,-0.415
1089,-0.415,-0.415
1090,-0.415,-0.405
1091,-0.405,-0.405
1092,-0.395,-0.395
1093,-0.395,-0.385
1094,-0.385,-0.385
1095,-0.375,-0.385
1096,-0.375,-0.375
1097,-0.365,-0.365
1098,-0.355,-0.365
1099,-0.355,-0.365
1100,-0.345,-0.355
1101,-0.335,-0.345
1102,-0.335,-0.335
1103,-0.325,-0.335
1104,-0.315,-0.325
1105,-0.315,-0.325
1106,-0.305,-0.315
1107,-0.295,-0.305
1108,-0.285,-0.295
1109,-0.285,-0.295
1110,-0.265,-0.285
1111,-0.265,-0.285
1112,-0.255,-0.275
1113,-0.245,-0.265
1114,-0.235,-0.265
1115,-0.225,-0.255
1116,-0.215,-0.245
1117,-0.205,-0.235
1118,-0.195,-0.235
1119,-0.175,-0.225
1120,-0.165,-0.215
1121,-0.145,-0.195
1122,-0.125,0.185
1123,0.445,0.485
1124,0.575,0.415
1125,0.515,0.375
1126,0.485,0.365
1127,0.475,0.355
1128,0.475,0.345
1129,0.475,0.355
1130,0.465,0.345
1131,0.465,0.335
1132,0.465,0.325
1133,0.465,0.345
1134,0.455,0.325
1135,0.455,0.325
1136,0.455,0.325
1137,0.455,0.325
1138,0.445,0.315
1139,0.445,0.305
1140,0.435,0.315
1141,0.435,0.305
1142,0.425,0.295
1143,0.425,0.295
1144,0.415,0.285
1145,0.415,0.285
1146,0.405,0.275
1147,0.405,0.275
1148,0.395,0.265
1149,0.395,0.265
1150,0.385,0.255
1151,0.375,0.245
1152,0.375,0.245
1153,0.365,0.245
1154,0.355,0.235
1155,0.355,0.225
1156,0.355,0.215
1157,0.345,0.215
1158,0.335,0.215
1159,0.325,0.205
1160,0.325,0.195
1161,0.315,0.195
1162,0.305,0.185
1163,0.305,0.185
1164,0.295,0.165
1165,0.295,0.175
1166,0.285,0.165
1167,0.275,0.155
1168,0.275,0.155
1169,0.265,0.155
1170,0.255,0.145
1171,0.245,0.125
1172,0.245,0.125
1173,0.235,0.125
1174,0.225,0.115
1175,0.215,0.105
1176,0.215,0.095
1177,0.195,0.095
1178,0.185,0.095
1179,0.185,0.085
1180,0.165,0.075
1181,0.155,0.075
1182,0.145,0.055
1183,0.135,0.055
1184,0.125,0.045
1185,0.105,0.035
1186,0.075,-0.245
1187,-0.475,-0.665
1188,-0.645,-0.595
1189,-0.575,-0.545
1190,-0.535,-0.535
1191,-0.535,-0.535
1192,-0.535,-0.525
1193,-0.525,-0.515
1194,-0.525,-0.515
1195,-0.525,-0.515
1196,-0.525,-0.515
1197,-0.515,-0.505
1198,-0.515,-0.505
1199,-0.515,-0.495
1200,-0.505,-0.495
1201,-0.505,-0.495
1202,-0.505,-0.495
1203,-0.505,-0.485
1204,-0.495,-0.485
1205,-0.485,-0.475
1206,-0.485,-0.475
1207,-0.485,-0.465
1208,-0.465,-0.455
1209,-0.465,-0.445
1210,-0.465,-0.445
1211,-0.455,-0.435
1212,-0.445,-0.435
1213,-0.445,-0.425
1214,-0.435,-0.425
1215,-0.425,-0.425
1216,-0.425,-0.415
1217,-0.415,-0.405
1218,-0.405,-0.395
1219,-0.405,-0.395
1220,-0.395,-0.385
1221,-0.385,-0.385
1222,-0.385,-0.375
1223,-0.385,-0.375
1224,-0.375,-0.365
1225,-0.365,-0.355
1226,-0.355,-0.355
1227,-0.345,-0.355
1228,-0.345,-0.345
1229,-0.335,-0.335
1230,-0.335,-0.335
1231,-0.325,-0.325
1232,-0.315,-0.325
1233,-0.305,-0.305
1234,-0.295,-0.305
1235,-0.295,-0.305
1236,-0.285,-0.295
1237,-0.275,-0.285
1238,-0.265,-0.275
1239,-0.255,-0.265
1240,-0.245,-0.265
1241,-0.235,-0.245
1242,-0.225,-0.245
1243,-0.215,-0.245
1244,-0.205,-0.235
1245,-0.195,-0.225
1246,-0.185,-0.215
1247,-0.175,-0.215
1248,-0.165,-0.205
1249,-0.145,-0.185
1250,-0.125,0.075
1251,0.425,0.495
1252,0.585,0.435
1253,0.525,0.395
1254,0.495,0.365
1255,0.485,0.365
1256,0.485,0.365
1257,0.485,0.365
1258,0.475,0.355
1259,0.475,0.355
1260,0.475,0.345
1261,0.475,0.355
1262,0.465,0.345
1263,0.465,0.345
1264,0.465,0.335
1265,0.455,0.335
1266,0.455,0.335
1267,0.455,0.325
1268,0.455,0.325
1269,0.445,0.325
1270,0.445,0.315
1271,0.435,0.305
1272,0.435,0.305
1273,0.425,0.305
1274,0.415,0.295
1275,0.415,0.285
1276,0.405,0.285
1277,0.405,0.285
1278,0.395,0.275
1279,0.395,0.265
1280,0.385,0.265
1281,0.375,0.265
1282,0.375,0.255
1283,0.365,0.245
1284,0.365,0.235
1285,0.355,0.235
1286,0.345,0.225
1287,0.345,0.225
1288,0.335,0.215
1289,0.325,0.205
1290,0.315,0.205
1291,0.315,0.195
1292,0.305,0.195
1293,0.305,0.185
1294,0.285,0.185
1295,0.285,0.175
1296,0.275,0.165
1297,0.275,0.165
1298,0.265,0.165
1299,0.255,0.155
1300,0.245,0.145
1301,0.245,0.145
1302,0.235,0.135
1303,0.215,0.125
1304,0.215,0.115
1305,0.205,0.115
1306,0.185,0.105
1307,0.175,0.095
1308,0.175,0.095
1309,0.165,0.095
1310,0.155,0.085
1311,0.135,0.075
1312,0.125,0.065
1313,0.115,0.045
1314,0.085,0.045
1315,-0.235,-0.655
1316,-0.615,-0.595
1317,-0.565,-0.535
1318,-0.535,-0.525
1319,-0.525,-0.515
1320,-0.515,-0.515
1321,-0.515,-0.505
1322,-0.515,-0.505
1323,-0.515,-0.505
1324,-0.515,-0.495
1325,-0.505,-0.485
1326,-0.505,-0.495
1327,-0.505,-0.495
1328,-0.495,-0.485
1329,-0.495,-0.475
1330,-0.495,-0.475
1331,-0.495,-0.475
1332,-0.485,-0.465
1333,-0.485,-0.455
1334,-0.475,-0.455
1335,-0.475,-0.455
1336,-0.465,-0.445
1337,-0.465,-0.435
1338,-0.455,-0.435
1339,-0.455,-0.425
1340,-0.445,-0.425
1341,-0.435,-0.415
1342,-0.435,-0.415
1343,-0.435,-0.405
1344,-0.425,-0.395
1345,-0.405,-0.385
1346,-0.405,-0.385
1347,-0.405,-0.385
1348,-0.395,-0.375
1349,-0.385,-0.365
1350,-0.385,-0.365
1351,-0.375,-0.355
1352,-0.375,-0.355
1353,-0.365,-0.345
1354,-0.355,-0.345
1355,-0.345,-0.335
1356,-0.335,-0.335
1357,-0.325,-0.325
1358,-0.335,-0.315
1359,-0.325,-0.315
1360,-0.315,-0.305
1361,-0.305,-0.285
1362,-0.305,-0.285
1363,-0.295,-0.285
1364,-0.275,-0.265
1365,-0.265,-0.255
1366,-0.255,-0.255
1367,-0.245,-0.255
1368,-0.245,-0.235
1369,-0.225,-0.225
1370,-0.225,-0.225
1371,-0.215,-0.215
1372,-0.195,-0.205
1373,-0.185,-0.195
1374,-0.175,-0.195
1375,-0.165,-0.185
1376,-0.145,-0.175
1377,-0.135,-0.165
1378,-0.125,0.285
1379,0.545,0.445
1380,0.565,0.385
1381,0.515,0.365
1382,0.485,0.345
1383,0.485,0.345
1384,0.485,0.335
1385,0.485,0.345
1386,0.475,0.335
1387,0.475,0.325
1388,0.475,0.345
1389,0.465,0.345
1390,0.465,0.345
1391,0.465,0.335
1392,0.465,0.325
1393,0.455,0.325
1394,0.455,0.325
1395,0.455,0.325
1396,0.445,0.315
1397,0.445,0.315
1398,0.435,0.315
1399,0.425,0.305
1400,0.425,0.295
1401,0.425,0.295
1402,0.415,0.295
1403,0.405,0.285
1404,0.405,0.285
1405,0.395,0.285
1406,0.385,0.275
1407,0.385,0.265
1408,0.375,0.255
1409,0.365,0.255
1410,0.365,0.255
1411,0.355,0.245
1412,0.355,0.235
1413,0.345,0.235
1414,0.335,0.225
1415,0.335,0.225
1416,0.325,0.215
1417,0.315,0.205
1418,0.305,0.205
1419,0.305,0.195
1420,0.295,0.185
1421,0.285,0.195
1422,0.285,0.175
1423,0.275,0.165
1424,0.265,0.165
1425,0.255,0.155
1426,0.245,0.145
1427,0.235,0.145
1428,0.235,0.125
1429,0.225,0.125
1430,0.205,0.125
1431,0.205,0.115
1432,0.195,0.105
1433,0.185,0.105
1434,0.175,0.095
1435,0.165,0.085
1436,0.155,0.085
1437,0.145,0.065
1438,0.135,0.065
1439,0.125,0.065
1440,0.105,0.055
1441,0.095,0.045
1442,0.075,-0.435
1443,-0.575,-0.655
1444,-0.635,-0.575
1445,-0.575,-0.535
1446,-0.545,-0.525
1447,-0.535,-0.525
1448,-0.535,-0.525
1449,-0.535,-0.515
1450,-0.525,-0.515
1451,-0.525,-0.505
1452,-0.525,-0.505
1453,-0.525,-0.505
1454,-0.525,-0.495
1455,-0.515,-0.495
1456,-0.515,-0.495
1457,-0.515,-0.485
1458,-0.505,-0.485
1459,-0.495,-0.475
1460,-0.495,-0.475
1461,-0.485,-0.465
1462,-0.485,-0.465
1463,-0.485,-0.465
1464,-0.475,-0.455
1465,-0.465,-0.445
1466,-0.465,-0.445
1467,-0.455,-0.435
1468,-0.455,-0.435
1469,-0.445,-0.425
1470,-0.435,-0.415
1471,-0.435,-0.415
1472,-0.425,-0.405
1473,-0.425,-0.405
1474,-0.415,-0.395
1475,-0.405,-0.395
1476,-0.405,-0.385
1477,-0.395,-0.375
1478,-0.385,-0.375
1479,-0.385,-0.375
1480,-0.375,-0.365
1481,-0.375,-0.355
1482,-0.365,-0.345
1483,-0.355,-0.355
1484,-0.345,-0.345
1485,-0.345,-0.325
1486,-0.335,-0.325
1487,-0.325,-0.325
1488,-0.315,-0.315
1489,-0.305,-0.305
1490,-0.305,-0.305
1491,-0.295,-0.295
1492,-0.285,-0.295
1493,-0.275,-0.285
1494,-0.275,-0.275
1495,-0.265,-0.265
1496,-0.245,-0.255
1497,-0.235,-0.255
1498,-0.235,-0.245
1499,-0.225,-0.245
1500,-0.215,-0.235
1501,-0.195,-0.225
1502,-0.195,-0.225
1503,-0.185,-0.215
1504,-0.165,-0.205
1505,-0.155,-0.195
1506,-0.135,-0.205
1507,0.135,0.495
1508,0.605,0.455
1509,0.545,0.395
1510,0.505,0.375
1511,0.485,0.365
1512,0.485,0.355
1513,0.485,0.365
1514,0.475,0.355
1515,0.475,0.355
1516,0.475,0.345
1517,0.475,0.345
1518,0.465,0.345
1519,0.465,0.345
1520,0.465,0.335
1521,0.465,0.325
1522,0.455,0.325
1523,0.455,0.325
1524,0.445,0.315
1525,0.445,0.315
1526,0.435,0.305
1527,0.425,0.305
1528,0.425,0.295
1529,0.425,0.285
1530,0.415,0.285
1531,0.405,0.285
1532,0.395,0.265
1533,0.395,0.265
1534,0.385,0.265
1535,0.375,0.255
1536,0.375,0.245
1537,0.375,0.245
1538,0.365,0.235
1539,0.355,0.225
1540,0.355,0.225
1541,0.345,0.215
1542,0.335,0.205
1543,0.325,0.205
1544,0.325,0.195
1545,0.315,0.185
1546,0.305,0.185
1547,0.295,0.185
1548,0.295,0.175
1549,0.285,0.165
1550,0.275,0.155
1551,0.265,0.155
1552,0.265,0.145
1553,0.255,0.125
1554,0.245,0.125
1555,0.225,0.125
1556,0.225,0.115
1557,0.215,0.105
1558,0.205,0.105
1559,0.195,0.095
1560,0.185,0.085
1561,0.175,0.085
1562,0.165,0.075
1563,0.155,0.065
1564,0.145,0.055
1565,0.135,0.045
1566,0.115,0.045
1567,0.105,0.035
1568,0.095,0.025
1569,0.075,0.005
1570,0.065,-0.475
1571,-0.605,-0.665
1572,-0.645,-0.595
1573,-0.585,-0.565
1574,-0.555,-0.545
1575,-0.555,-0.545
1576,-0.545,-0.545
1577,-0.545,-0.535
1578,-0.545,-0.535
1579,-0.535,-0.535
1580,-0.535,-0.525
1581,-0.535,-0.515
1582,-0.535,-0.515
1583,-0.525,-0.515
1584,-0.525,-0.515
1585,-0.515,-0.505
1586,-0.515,-0.495
1587,-0.505,-0.495
1588,-0.505,-0.495
1589,-0.495,-0.485
1590,-0.495,-0.475
1591,-0.485,-0.475
1592,-0.485,-0.465
1593,-0.475,-0.465
1594,-0.465,-0.455
1595,-0.465,-0.445
1596,-0.455,-0.445
1597,-0.445,-0.435
1598,-0.445,-0.435
1599,-0.435,-0.425
1600,-0.425,-0.425
1601,-0.425,-0.415
1602,-0.415,-0.405
1603,-0.405,-0.405
1604,-0.405,-0.395
1605,-0.395,-0.385
1606,-0.385,-0.385
1607,-0.385,-0.375
1608,-0.375,-0.375
1609,-0.365,-0.355
1610,-0.365,-0.355
1611,-0.355,-0.355
1612,-0.345,-0.345
1613,-0.335,-0.335
1614,-0.335,-0.335
1615,-0.325,-0.325
1616,-0.315,-0.315
1617,-0.305,-0.305
1618,-0.305,-0.305
1619,-0.295,-0.295
1620,-0.275,-0.295
1621,-0.265,-0.275
1622,-0.265,-0.275
1623,-0.255,-0.265
1624,-0.245,-0.265
1625,-0.235,-0.245
1626,-0.225,-0.245
1627,-0.215,-0.245
1628,-0.205,-0.235
1629,-0.195,-0.225
1630,-0.185,-0.215
1631,-0.165,-0.215
1632,-0.155,-0.205
1633,-0.145,-0.185
1634,-0.125,0.215
1635,0.495,0.495
1636,0.595,0.415
1637,0.535,0.385
1638,0.505,0.375
1639,0.495,0.365
1640,0.485,0.365
1641,0.485,0.365
1642,0.475,0.355
1643,0.485,0.345
1644,0.475,0.345
1645,0.475,0.345
1646,0.465,0.345
1647,0.465,0.335
1648,0.465,0.335
1649,0.455,0.325
1650,0.445,0.325
1651,0.445,0.315
1652,0.435,0.305
1653,0.435,0.305
1654,0.425,0.305
1655,0.425,0.285
1656,0.415,0.285
1657,0.405,0.285
1658,0.395,0.275
1659,0.395,0.265
1660,0.385,0.265
1661,0.375,0.265
1662,0.365,0.255
1663,0.365,0.245
1664,0.355,0.235
1665,0.345,0.235
1666,0.335,0.225
1667,0.335,0.225
1668,0.325,0.215
1669,0.315,0.215
1670,0.305,0.205
1671,0.305,0.205
1672,0.295,0.195
1673,0.295,0.195
1674,0.285,0.185
1675,0.275,0.175
1676,0.275,0.175
1677,0.265,0.175
1678,0.255,0.155
1679,0.255,0.145
1680,0.245,0.145
1681,0.235,0.145
1682,0.225,0.135
1683,0.225,0.125
1684,0.215,0.115
1685,0.205,0.105
1686,0.195,0.105
1687,0.185,0.095
1688,0.175,0.095
1689,0.165,0.095
1690,0.155,0.075
1691,0.145,0.075
1692,0.145,0.075
1693,0.135,0.065
1694,0.125,0.055
1695,0.105,0.045
1696,0.095,0.035
1697,0.085,0.035
1698,0.055,-0.135
1699,-0.355,-0.685
1700,-0.635,-0.615
1701,-0.585,-0.555
1702,-0.555,-0.545
1703,-0.545,-0.545
1704,-0.535,-0.535
1705,-0.535,-0.525
1706,-0.545,-0.535
1707,-0.535,-0.525
1708,-0.535,-0.525
1709,-0.535,-0.515
1710,-0.535,-0.515
1711,-0.525,-0.515
1712,-0.525,-0.505
1713,-0.515,-0.505
1714,-0.515,-0.495
1715,-0.515,-0.495
1716,-0.505,-0.485
1717,-0.495,-0.475
1718,-0.495,-0.475
1719,-0.485,-0.465
1720,-0.475,-0.465
1721,-0.465,-0.455
1722,-0.465,-0.445
1723,-0.465,-0.445
1724,-0.455,-0.435
1725,-0.445,-0.425
1726,-0.445,-0.425
1727,-0.435,-0.415
1728,-0.425,-0.415
1729,-0.425,-0.395
1730,-0.415,-0.395
1731,-0.415,-0.395
1732,-0.405,-0.385
1733,-0.395,-0.375
1734,-0.395,-0.375
1735,-0.395,-0.375
1736,-0.385,-0.365
1737,-0.375,-0.355
1738,-0.375,-0.355
1739,-0.365,-0.345
1740,-0.355,-0.345
1741,-0.345,-0.335
1742,-0.335,-0.325
1743,-0.335,-0.325
1744,-0.325,-0.315
1745,-0.315,-0.305
1746,-0.305,-0.295
1747,-0.295,-0.285
1748,-0.285,-0.285
1749,-0.275,-0.265
1750,-0.265,-0.265
1751,-0.255,-0.265
1752,-0.245,-0.255
1753,-0.235,-0.245
1754,-0.235,-0.245
1755,-0.215,-0.235
1756,-0.215,-0.225
1757,-0.195,-0.215
1758,-0.185,-0.215
1759,-0.175,-0.205
1760,-0.165,-0.195
1761,-0.145,-0.175
1762,-0.125,0.185
1763,0.425,0.475
1764,0.565,0.415
1765,0.515,0.385
1766,0.485,0.365
1767,0.475,0.355
1768,0.465,0.345
1769,0.465,0.345
1770,0.455,0.345
1771,0.455,0.345
1772,0.455,0.335
1773,0.445,0.335
1774,0.445,0.335
1775,0.435,0.325
1776,0.435,0.335
1777,0.425,0.325
1778,0.425,0.315
1779,0.425,0.305
1780,0.415,0.305
1781,0.405,0.305
1782,0.405,0.295
1783,0.405,0.295
1784,0.395,0.285
1785,0.385,0.285
1786,0.385,0.275
1787,0.375,0.265
1788,0.375,0.265
1789,0.365,0.265
1790,0.365,0.255
1791,0.355,0.245
1792,0.355,0.245
1793,0.345,0.245
1794,0.335,0.235
1795,0.335,0.225
1796,0.325,0.225
1797,0.315,0.215
1798,0.315,0.215
1799,0.305,0.205
1800,0.305,0.195
1801,0.295,0.195
1802,0.285,0.185
1803,0.275,0.185
1804,0.275,0.165
1805,0.265,0.175
1806,0.265,0.165
1807,0.255,0.155
1808,0.245,0.145
1809,0.235,0.145
1810,0.235,0.125
1811,0.225,0.125
1812,0.215,0.125
1813,0.205,0.115
1814,0.195,0.115
1815,0.185,0.105
1816,0.185,0.085
1817,0.175,0.095
1818,0.155,0.085
1819,0.145,0.075
1820,0.145,0.075
1821,0.135,0.065
1822,0.115,0.065
1823,0.105,0.055
1824,0.095,0.045
1825,0.085,0.035
1826,0.065,0.045
1827,0.035,-0.615
1828,-0.665,-0.645
1829,-0.635,-0.565
1830,-0.585,-0.545
1831,-0.565,-0.535
1832,-0.555,-0.535
1833,-0.545,-0.525
1834,-0.555,-0.525
1835,-0.555,-0.525
1836,-0.545,-0.515
1837,-0.535,-0.505
1838,-0.535,-0.505
1839,-0.535,-0.505
1840,-0.525,-0.495
1841,-0.525,-0.485
1842,-0.515,-0.485
1843,-0.515,-0.485
1844,-0.505,-0.475
1845,-0.495,-0.465
1846,-0.495,-0.465
1847,-0.485,-0.455
1848,-0.485,-0.445
1849,-0.475,-0.445
1850,-0.475,-0.435
1851,-0.465,-0.435
1852,-0.455,-0.425
1853,-0.445,-0.415
1854,-0.445,-0.415
1855,-0.435,-0.405
1856,-0.435,-0.405
1857,-0.425,-0.395
1858,-0.425,-0.395
1859,-0.415,-0.385
1860,-0.405,-0.385
1861,-0.395,-0.375
1862,-0.395,-0.365
1863,-0.385,-0.365
1864,-0.375,-0.365
1865,-0.375,-0.345
1866,-0.365,-0.345
1867,-0.355,-0.345
1868,-0.355,-0.335
1869,-0.345,-0.325
1870,-0.335,-0.325
1871,-0.325,-0.315
1872,-0.325,-0.305
1873,-0.315,-0.295
1874,-0.315,-0.295
1875,-0.295,-0.285
1876,-0.295,-0.285
1877,-0.285,-0.275
1878,-0.275,-0.265
1879,-0.265,-0.265
1880,-0.255,-0.255
1881,-0.245,-0.235
1882,-0.235,-0.235
1883,-0.225,-0.235
1884,-0.215,-0.225
1885,-0.205,-0.215
1886,-0.195,-0.205
1887,-0.175,-0.205
1888,-0.165,-0.195
1889,-0.155,-0.185
1890,-0.135,0.295
1891,0.515,0.505
1892,0.585,0.425
1893,0.515,0.395
1894,0.485,0.385
1895,0.485,0.375
1896,0.475,0.375
1897,0.475,0.375
1898,0.475,0.365
1899,0.465,0.355
1900,0.465,0.355
1901,0.465,0.355
1902,0.465,0.345
1903,0.455,0.345
1904,0.455,0.325
1905,0.445,0.335
1906,0.445,0.325
1907,0.435,0.325
1908,0.435,0.315
1909,0.425,0.315
1910,0.425,0.305
1911,0.415,0.295
1912,0.405,0.295
1913,0.405,0.295
1914,0.395,0.285
1915,0.395,0.275
1916,0.385,0.265
1917,0.375,0.265
1918,0.375,0.265
1919,0.365,0.255
1920,0.365,0.255
1921,0.355,0.245
1922,0.345,0.245
1923,0.345,0.225
1924,0.335,0.225
1925,0.335,0.225
1926,0.325,0.215
1927,0.315,0.215
1928,0.315,0.205
1929,0.305,0.205
1930,0.295,0.195
1931,0.295,0.185
1932,0.285,0.185
1933,0.275,0.175
1934,0.265,0.175
1935,0.265,0.165
1936,0.255,0.165
1937,0.245,0.155
1938,0.245,0.145
1939,0.235,0.135
1940,0.225,0.125
1941,0.215,0.125
1942,0.215,0.125
1943,0.205,0.105
1944,0.195,0.105
1945,0.185,0.105
1946,0.175,0.085
1947,0.165,0.085
1948,0.155,0.075
1949,0.145,0.075
1950,0.135,0.065
1951,0.125,0.055
1952,0.105,0.045
1953,0.095,0.035
1954,0.065,-0.205
1955,-0.445,-0.665
1956,-0.655,-0.595
1957,-0.585,-0.545
1958,-0.555,-0.535
1959,-0.545,-0.535
1960,-0.535,-0.525
1961,-0.535,-0.515
1962,-0.535,-0.515
1963,-0.535,-0.515
1964,-0.525,-0.505
1965,-0.525,-0.505
1966,-0.525,-0.505
1967,-0.515,-0.495
1968,-0.515,-0.495
1969,-0.505,-0.485
1970,-0.505,-0.475
1971,-0.495,-0.475
1972,-0.495,-0.475
1973,-0.485,-0.465
1974,-0.485,-0.465
1975,-0.475,-0.455
1976,-0.465,-0.445
1977,-0.465,-0.435
1978,-0.455,-0.435
1979,-0.455,-0.435
1980,-0.445,-0.425
1981,-0.435,-0.415
1982,-0.435,-0.415
1983,-0.425,-0.415
1984,-0.425,-0.405
1985,-0.415,-0.395
1986,-0.405,-0.395
1987,-0.395,-0.385
1988,-0.395,-0.385
1989,-0.385,-0.375
1990,-0.385,-0.375
1991,-0.375,-0.365
1992,-0.365,-0.365
1993,-0.365,-0.355
1994,-0.355,-0.345
1995,-0.345,-0.345
1996,-0.345,-0.345
1997,-0.335,-0.335
1998,-0.325,-0.335
1999,-0.325,-0.325
2000,-0.315,-0.315
2001,-0.305,-0.305
2002,-0.295,-0.305
2003,-0.295,-0.305
2004,-0.285,-0.295
2005,-0.275,-0.275
2006,-0.265,-0.275
2007,-0.255,-0.275
2008,-0.245,-0.265
2009,-0.235,-0.255
2010,-0.225,-0.255
2011,-0.225,-0.245
2012,-0.205,-0.235
2013,-0.195,-0.225
2014,-0.185,-0.225
2015,-0.185,-0.225
2016,-0.165,-0.215
2017,-0.145,-0.195
2018,-0.125,-0.215
2019,0.065,0.485
2020,0.575,0.455
2021,0.535,0.395
2022,0.495,0.365
2023,0.475,0.365
2024,0.475,0.355
2025,0.475,0.365
2026,0.475,0.345
2027,0.465,0.345
2028,0.465,0.345
2029,0.465,0.345
2030,0.455,0.335
2031,0.455,0.325
2032,0.455,0.325
2033,0.455,0.325
2034,0.445,0.315
2035,0.435,0.315
2036,0.435,0.305
2037,0.435,0.305
2038,0.425,0.295
2039,0.415,0.285
2040,0.405,0.275
2041,0.405,0.275
2042,0.395,0.265
2043,0.395,0.265
2044,0.385,0.255
2045,0.375,0.255
2046,0.365,0.245
2047,0.365,0.235
2048,0.365,0.235
2049,0.355,0.225
2050,0.345,0.225
2051,0.345,0.215
2052,0.335,0.215
2053,0.325,0.215
2054,0.325,0.205
2055,0.315,0.195
2056,0.305,0.195
2057,0.305,0.185
2058,0.295,0.185
2059,0.295,0.175
2060,0.285,0.165
2061,0.275,0.165
2062,0.265,0.155
2063,0.265,0.145
2064,0.255,0.145
2065,0.245,0.135
2066,0.235,0.125
2067,0.235,0.125
2068,0.225,0.115
2069,0.215,0.105
2070,0.205,0.105
2071,0.205,0.095
2072,0.195,0.085
2073,0.175,0.085
2074,0.165,0.075
2075,0.165,0.065
2076,0.155,0.065
2077,0.145,0.045
2078,0.125,0.055
2079,0.115,0.035
2080,0.105,0.025
2081,0.085,0.005
2082,0.075,-0.415
2083,-0.555,-0.665
2084,-0.635,-0.595
2085,-0.585,-0.555
2086,-0.555,-0.545
2087,-0.545,-0.535
2088,-0.535,-0.535
2089,-0.535,-0.535
2090,-0.535,-0.525
2091,-0.535,-0.525
2092,-0.535,-0.525
2093,-0.525,-0.515
2094,-0.525,-0.515
2095,-0.525,-0.515
2096,-0.515,-0.505
2097,-0.505,-0.495
2098,-0.505,-0.495
2099,-0.505,-0.495
2100,-0.495,-0.485
2101,-0.495,-0.475
2102,-0.485,-0.475
2103,-0.485,-0.465
2104,-0.475,-0.465
2105,-0.475,-0.455
2106,-0.465,-0.455
2107,-0.465,-0.445
2108,-0.455,-0.445
2109,-0.445,-0.435
2110,-0.445,-0.425
2111,-0.435,-0.425
2112,-0.435,-0.425
2113,-0.425,-0.415
2114,-0.415,-0.405
2115,-0.415,-0.395
2116,-0.405,-0.395
2117,-0.395,-0.385
2118,-0.395,-0.385
2119,-0.395,-0.375
2120,-0.375,-0.375
2121,-0.375,-0.365
2122,-0.375,-0.365
2123,-0.365,-0.355
2124,-0.355,-0.355
2125,-0.345,-0.345
2126,-0.345,-0.335
2127,-0.335,-0.335
2128,-0.325,-0.325
2129,-0.315,-0.315
2130,-0.315,-0.315
2131,-0.305,-0.305
2132,-0.295,-0.295
2133,-0.285,-0.285
2134,-0.285,-0.285
2135,-0.275,-0.285
2136,-0.265,-0.275
2137,-0.255,-0.265
2138,-0.245,-0.255
2139,-0.245,-0.255
2140,-0.225,-0.245
2141,-0.215,-0.235
2142,-0.205,-0.225
2143,-0.195,-0.225
2144,-0.175,-0.215
2145,-0.165,-0.195
2146,-0.135,-0.025
2147,0.365,0.505
2148,0.585,0.425
2149,0.515,0.385
2150,0.485,0.365
2151,0.475,0.355
2152,0.465,0.355
2153,0.465,0.355
2154,0.465,0.345
2155,0.455,0.345
2156,0.455,0.345
2157,0.455,0.345
2158,0.445,0.335
2159,0.445,0.325
2160,0.445,0.325
2161,0.435,0.325
2162,0.435,0.315
2163,0.425,0.315
2164,0.425,0.305
2165,0.415,0.305
2166,0.405,0.295
2167,0.405,0.295
2168,0.395,0.285
2169,0.395,0.285
2170,0.385,0.275
2171,0.385,0.265
2172,0.375,0.265
2173,0.375,0.265
2174,0.365,0.245
2175,0.365,0.245
2176,0.355,0.245
2177,0.345,0.235
2178,0.345,0.235
2179,0.335,0.225
2180,0.335,0.215
2181,0.325,0.215
2182,0.325,0.205
2183,0.315,0.205
2184,0.305,0.195
2185,0.305,0.195
2186,0.295,0.185
2187,0.295,0.185
2188,0.285,0.165
2189,0.285,0.175
2190,0.275,0.165
2191,0.265,0.155
2192,0.255,0.145
2193,0.255,0.155
2194,0.245,0.145
2195,0.245,0.135
2196,0.235,0.125
2197,0.225,0.125
2198,0.215,0.115
2199,0.215,0.105
2200,0.195,0.085
2201,0.195,0.095
2202,0.185,0.095
2203,0.175,0.085
2204,0.165,0.075
2205,0.155,0.075
2206,0.145,0.065
2207,0.135,0.055
2208,0.125,0.045
2209,0.115,0.045
2210,0.085,-0.055
2211,-0.345,-0.665
2212,-0.635,-0.605
2213,-0.575,-0.545
2214,-0.535,-0.535
2215,-0.535,-0.535
2216,-0.525,-0.525
2217,-0.515,-0.515
2218,-0.515,-0.515
2219,-0.525,-0.515
2220,-0.515,-0.515
2221,-0.505,-0.505
2222,-0.505,-0.505
2223,-0.505,-0.495
2224,-0.505,-0.495
2225,-0.495,-0.485
2226,-0.495,-0.485
2227,-0.495,-0.475
2228,-0.485,-0.475
2229,-0.475,-0.455
2230,-0.475,-0.465
2231,-0.465,-0.455
2232,-0.455,-0.445
2233,-0.455,-0.435
2234,-0.445,-0.435
2235,-0.445,-0.435
2236,-0.435,-0.425
2237,-0.425,-0.415
2238,-0.425,-0.405
2239,-0.415,-0.405
2240,-0.405,-0.405
2241,-0.405,-0.395
2242,-0.395,-0.385
2243,-0.395,-0.385
2244,-0.385,-0.375
2245,-0.375,-0.365
2246,-0.375,-0.365
2247,-0.365,-0.355
2248,-0.355,-0.355
2249,-0.345,-0.345
2250,-0.345,-0.345
2251,-0.345,-0.335
2252,-0.325,-0.335
2253,-0.325,-0.315
2254,-0.315,-0.315
2255,-0.315,-0.315
2256,-0.305,-0.305
2257,-0.295,-0.295
2258,-0.295,-0.295
2259,-0.285,-0.285
2260,-0.275,-0.275
2261,-0.265,-0.265
2262,-0.255,-0.265
2263,-0.245,-0.255
2264,-0.245,-0.255
2265,-0.225,-0.245
2266,-0.225,-0.245
2267,-0.215,-0.235
2268,-0.205,-0.225
2269,-0.195,-0.215
2270,-0.185,-0.215
2271,-0.165,-0.205
2272,-0.155,-0.195
2273,-0.135,-0.175
2274,-0.115,0.245
2275,0.525,0.505
2276,0.585,0.435
2277,0.525,0.395
2278,0.495,0.385
2279,0.495,0.375
2280,0.485,0.375
2281,0.485,0.365
2282,0.475,0.375
2283,0.485,0.365
2284,0.475,0.355
2285,0.475,0.355
2286,0.465,0.355
2287,0.465,0.345
2288,0.465,0.345
2289,0.455,0.345
2290,0.455,0.335
2291,0.445,0.325
2292,0.445,0.325
2293,0.435,0.325
2294,0.435,0.315
2295,0.425,0.305
2296,0.425,0.305
2297,0.415,0.305
2298,0.405,0.295
2299,0.405,0.285
2300,0.395,0.275
2301,0.395,0.275
2302,0.385,0.275
2303,0.375,0.265
2304,0.375,0.255
2305,0.375,0.245
2306,0.365,0.245
2307,0.355,0.245
2308,0.355,0.245
2309,0.345,0.225
2310,0.335,0.225
2311,0.335,0.225
2312,0.325,0.215
2313,0.315,0.205
2314,0.315,0.205
2315,0.305,0.195
2316,0.295,0.195
2317,0.285,0.185
2318,0.285,0.185
2319,0.275,0.175
2320,0.265,0.165
2321,0.265,0.165
2322,0.255,0.155
2323,0.245,0.145
2324,0.245,0.145
2325,0.235,0.125
2326,0.225,0.125
2327,0.205,0.125
2328,0.205,0.115
2329,0.195,0.105
2330,0.185,0.105
2331,0.175,0.095
2332,0.165,0.095
2333,0.155,0.085
2334,0.145,0.075
2335,0.135,0.065
2336,0.115,0.055
2337,0.095,0.045
2338,0.095,-0.425
2339,-0.605,-0.635
2340,-0.625,-0.565
2341,-0.565,-0.525
2342,-0.535,-0.515
2343,-0.525,-0.515
2344,-0.525,-0.505
2345,-0.525,-0.505
2346,-0.525,-0.495
2347,-0.525,-0.495
2348,-0.515,-0.495
2349,-0.515,-0.485
2350,-0.505,-0.485
2351,-0.505,-0.485
2352,-0.505,-0.475
2353,-0.495,-0.475
2354,-0.505,-0.465
2355,-0.485,-0.465
2356,-0.485,-0.455
2357,-0.475,-0.455
2358,-0.475,-0.445
2359,-0.465,-0.445
2360,-0.465,-0.435
2361,-0.455,-0.425
2362,-0.455,-0.425
2363,-0.445,-0.425
2364,-0.445,-0.415
2365,-0.435,-0.405
2366,-0.425,-0.405
2367,-0.425,-0.395
2368,-0.415,-0.395
2369,-0.405,-0.375
2370,-0.405,-0.375
2371,-0.395,-0.375
2372,-0.385,-0.365
2373,-0.385,-0.355
2374,-0.375,-0.355
2375,-0.375,-0.345
2376,-0.365,-0.345
2377,-0.355,-0.335
2378,-0.355,-0.325
2379,-0.345,-0.325
2380,-0.335,-0.325
2381,-0.335,-0.315
2382,-0.325,-0.315
2383,-0.315,-0.305
2384,-0.315,-0.305
2385,-0.305,-0.285
2386,-0.305,-0.285
2387,-0.285,-0.285
2388,-0.285,-0.275
2389,-0.275,-0.265
2390,-0.265,-0.255
2391,-0.255,-0.255
2392,-0.245,-0.245
2393,-0.235,-0.235
2394,-0.235,-0.235
2395,-0.215,-0.225
2396,-0.205,-0.225
2397,-0.205,-0.205
2398,-0.185,-0.205
2399,-0.175,-0.195
2400,-0.155,-0.185
2401,-0.145,-0.175
2402,-0.135,0.285
2403,0.545,0.495
2404,0.575,0.425
2405,0.515,0.395
2406,0.485,0.375
2407,0.485,0.375
2408,0.475,0.375
2409,0.475,0.365
2410,0.475,0.365
2411,0.475,0.355
2412,0.465,0.355
2413,0.465,0.365
2414,0.465,0.355
2415,0.455,0.345
2416,0.455,0.345
2417,0.455,0.345
2418,0.445,0.335
2419,0.445,0.335
2420,0.445,0.325
2421,0.435,0.325
2422,0.435,0.315
2423,0.425,0.305
2424,0.425,0.305
2425,0.415,0.305
2426,0.415,0.295
2427,0.405,0.285
2428,0.395,0.285
2429,0.395,0.285
2430,0.385,0.265
2431,0.375,0.265
2432,0.375,0.255
2433,0.375,0.255
2434,0.365,0.255
2435,0.355,0.235
2436,0.355,0.235
2437,0.345,0.235
2438,0.335,0.225
2439,0.325,0.215
2440,0.325,0.215
2441,0.315,0.215
2442,0.305,0.205
2443,0.295,0.195
2444,0.295,0.195
2445,0.295,0.185
2446,0.285,0.185
2447,0.275,0.175
2448,0.275,0.175
2449,0.265,0.175
2450,0.255,0.165
2451,0.245,0.145
2452,0.245,0.145
2453,0.235,0.145
2454,0.225,0.135
2455,0.215,0.125
2456,0.205,0.115
2457,0.195,0.105
2458,0.185,0.105
2459,0.175,0.095
2460,0.175,0.085
2461,0.155,0.085
2462,0.145,0.075
2463,0.135,0.065
2464,0.115,0.055
2465,0.105,0.055
2466,0.075,-0.095
2467,-0.365,-0.655
2468,-0.555,-0.585
2469,-0.505,-0.535
2470,-0.475,-0.525
2471,-0.465,-0.515
2472,-0.455,-0.515
2473,-0.445,-0.505
2474,-0.445,-0.505
2475,-0.435,-0.505
2476,-0.425,-0.505
2477,-0.415,-0.495
2478,-0.405,-0.495
2479,-0.405,-0.485
2480,-0.395,-0.485
2481,-0.385,-0.475
2482,-0.385,-0.475
2483,-0.375,-0.475
2484,-0.365,-0.465
2485,-0.355,-0.455
2486,-0.355,-0.455
2487,-0.355,-0.455
2488,-0.345,-0.445
2489,-0.335,-0.435
2490,-0.335,-0.435
2491,-0.335,-0.435
2492,-0.335,-0.435
2493,-0.325,-0.425
2494,-0.325,-0.415
2495,-0.325,-0.415
2496,-0.315,-0.405
2497,-0.315,-0.395
2498,-0.315,-0.395
2499,-0.305,-0.385
2500,-0.305,-0.385
2501,-0.305,-0.375
2502,-0.305,-0.375
2503,-0.305,-0.365
2504,-0.305,-0.365
2505,-0.295,-0.355
2506,-0.295,-0.345
2507,-0.295,-0.345
2508,-0.295,-0.345
2509,-0.295,-0.335
2510,-0.285,-0.325
2511,-0.285,-0.325
2512,-0.285,-0.325
2513,-0.275,-0.305
2514,-0.275,-0.305
2515,-0.265,-0.295
2516,-0.265,-0.285
2517,-0.255,-0.275
2518,-0.245,-0.275
2519,-0.245,-0.275
2520,-0.235,-0.265
2521,-0.225,-0.255
2522,-0.225,-0.245
2523,-0.215,-0.245
2524,-0.205,-0.235
2525,-0.205,-0.225
2526,-0.195,-0.225
2527,-0.175,-0.225
2528,-0.165,-0.205
2529,-0.155,-0.185
2530,-0.135,0.175
2531,0.465,0.495
2532,0.555,0.415
2533,0.505,0.385
2534,0.475,0.365
2535,0.465,0.365
2536,0.465,0.355
2537,0.465,0.365
2538,0.455,0.345
2539,0.455,0.345
2540,0.455,0.345
2541,0.455,0.345
2542,0.445,0.335
2543,0.445,0.335
2544,0.445,0.325
2545,0.435,0.325
2546,0.435,0.325
2547,0.435,0.305
2548,0.425,0.305
2549,0.425,0.305
2550,0.415,0.295
2551,0.415,0.285
2552,0.405,0.285
2553,0.405,0.285
2554,0.395,0.275
2555,0.385,0.265
2556,0.385,0.265
2557,0.375,0.245
2558,0.365,0.245
2559,0.365,0.245
2560,0.365,0.245
2561,0.355,0.245
2562,0.345,0.225
2563,0.335,0.225
2564,0.335,0.225
2565,0.335,0.215
2566,0.315,0.205
2567,0.315,0.205
2568,0.315,0.195
2569,0.305,0.185
2570,0.295,0.185
2571,0.285,0.175
2572,0.285,0.175
2573,0.275,0.165
2574,0.265,0.165
2575,0.265,0.155
2576,0.255,0.155
2577,0.245,0.145
2578,0.235,0.135
2579,0.225,0.125
2580,0.225,0.125
2581,0.215,0.125
2582,0.205,0.115
2583,0.195,0.105
2584,0.185,0.095
2585,0.175,0.095
2586,0.165,0.085
2587,0.155,0.075
2588,0.145,0.065
2589,0.135,0.065
2590,0.125,0.065
2591,0.115,0.045
2592,0.105,0.035
2593,0.085,0.025
2594,0.065,-0.315
2595,-0.545,-0.665
2596,-0.635,-0.595
2597,-0.575,-0.545
2598,-0.545,-0.535
2599,-0.545,-0.535
2600,-0.535,-0.525
2601,-0.535,-0.525
2602,-0.535,-0.525
2603,-0.535,-0.525
2604,-0.535,-0.515
2605,-0.525,-0.505
2606,-0.525,-0.505
2607,-0.515,-0.505
2608,-0.515,-0.495
2609,-0.515,-0.485
2610,-0.515,-0.485
2611,-0.505,-0.485
2612,-0.495,-0.475
2613,-0.495,-0.465
2614,-0.495,-0.465
2615,-0.485,-0.465
2616,-0.485,-0.455
2617,-0.475,-0.445
2618,-0.475,-0.445
2619,-0.465,-0.435
2620,-0.465,-0.425
2621,-0.445,-0.425
2622,-0.445,-0.415
2623,-0.445,-0.415
2624,-0.435,-0.405
2625,-0.425,-0.395
2626,-0.425,-0.395
2627,-0.415,-0.395
2628,-0.405,-0.385
2629,-0.405,-0.375
2630,-0.395,-0.375
2631,-0.385,-0.365
2632,-0.385,-0.365
2633,-0.375,-0.355
2634,-0.375,-0.345
2635,-0.365,-0.345
2636,-0.355,-0.335
2637,-0.345,-0.325
2638,-0.345,-0.325
2639,-0.335,-0.325
2640,-0.325,-0.315
2641,-0.315,-0.305
2642,-0.315,-0.295
2643,-0.305,-0.295
2644,-0.295,-0.285
2645,-0.285,-0.275
2646,-0.275,-0.265
2647,-0.265,-0.265
2648,-0.255,-0.255
2649,-0.245,-0.245
2650,-0.245,-0.245
2651,-0.225,-0.245
2652,-0.215,-0.235
2653,-0.215,-0.225
2654,-0.195,-0.215
2655,-0.185,-0.215
2656,-0.175,-0.205
2657,-0.155,-0.185
2658,-0.145,0.285
2659,0.535,0.495
2660,0.565,0.415
2661,0.505,0.385
2662,0.475,0.375
2663,0.475,0.365
2664,0.465,0.365
2665,0.465,0.365
2666,0.465,0.355
2667,0.465,0.355
2668,0.455,0.345
2669,0.455,0.345
2670,0.445,0.345
2671,0.455,0.335
2672,0.445,0.335
2673,0.435,0.325
2674,0.435,0.325
2675,0.435,0.325
2676,0.425,0.315
2677,0.425,0.315
2678,0.415,0.305
2679,0.405,0.295
2680,0.405,0.295
2681,0.395,0.295
2682,0.385,0.285
2683,0.385,0.275
2684,0.375,0.265
2685,0.375,0.275
2686,0.365,0.255
2687,0.365,0.255
2688,0.355,0.245
2689,0.345,0.245
2690,0.335,0.235
2691,0.335,0.235
2692,0.325,0.225
2693,0.325,0.225
2694,0.315,0.215
2695,0.315,0.205
2696,0.305,0.205
2697,0.295,0.205
2698,0.285,0.195
2699,0.285,0.185
2700,0.275,0.185
2701,0.265,0.175
2702,0.255,0.175
2703,0.255,0.155
2704,0.245,0.155
2705,0.245,0.145
2706,0.225,0.145
2707,0.225,0.135
2708,0.215,0.125
2709,0.205,0.125
2710,0.195,0.115
2711,0.185,0.105
2712,0.175,0.095
2713,0.165,0.085
2714,0.155,0.085
2715,0.145,0.085
2716,0.135,0.075
2717,0.135,0.065
2718,0.115,0.065
2719,0.105,0.055
2720,0.095,0.045
2721,0.085,0.035
2722,0.055,0.045
2723,-0.245,-0.655
2724,-0.655,-0.615
2725,-0.605,-0.555
2726,-0.575,-0.535
2727,-0.555,-0.525
2728,-0.555,-0.525
2729,-0.545,-0.525
2730,-0.555,-0.515
2731,-0.545,-0.515
2732,-0.545,-0.515
2733,-0.545,-0.505
2734,-0.545,-0.505
2735,-0.535,-0.505
2736,-0.535,-0.495
2737,-0.525,-0.485
2738,-0.525,-0.485
2739,-0.525,-0.485
2740,-0.515,-0.475
2741,-0.505,-0.465
2742,-0.505,-0.465
2743,-0.505,-0.465
2744,-0.495,-0.455
2745,-0.485,-0.445
2746,-0.475,-0.445
2747,-0.475,-0.435
2748,-0.465,-0.435
2749,-0.455,-0.425
2750,-0.455,-0.415
2751,-0.455,-0.415
2752,-0.445,-0.405
2753,-0.435,-0.395
2754,-0.425,-0.395
2755,-0.425,-0.395
2756,-0.415,-0.385
2757,-0.405,-0.375
2758,-0.405,-0.375
2759,-0.395,-0.365
2760,-0.385,-0.355
2761,-0.385,-0.355
2762,-0.375,-0.345
2763,-0.375,-0.345
2764,-0.365,-0.335
2765,-0.355,-0.325
2766,-0.345,-0.325
2767,-0.335,-0.315
2768,-0.335,-0.305
2769,-0.325,-0.295
2770,-0.315,-0.295
2771,-0.305,-0.285
2772,-0.295,-0.275
2773,-0.295,-0.265
2774,-0.275,-0.255
2775,-0.275,-0.255
2776,-0.265,-0.245
2777,-0.255,-0.245
2778,-0.245,-0.235
2779,-0.235,-0.225
2780,-0.215,-0.225
2781,-0.215,-0.215
2782,-0.205,-0.205
2783,-0.185,-0.205
2784,-0.175,-0.195
2785,-0.165,-0.175
2786,-0.155,0.355
2787,0.545,0.495
2788,0.555,0.425
2789,0.495,0.395
2790,0.465,0.385
2791,0.465,0.375
2792,0.455,0.375
2793,0.455,0.375
2794,0.455,0.365
2795,0.445,0.365
2796,0.445,0.345
2797,0.435,0.345
2798,0.435,0.355
2799,0.435,0.345
2800,0.425,0.345
2801,0.425,0.345
2802,0.425,0.325
2803,0.415,0.325
2804,0.405,0.325
2805,0.405,0.315
2806,0.395,0.315
2807,0.385,0.305
2808,0.385,0.305
2809,0.385,0.295
2810,0.375,0.285
2811,0.365,0.275
2812,0.365,0.275
2813,0.355,0.275
2814,0.345,0.265
2815,0.335,0.255
2816,0.335,0.245
2817,0.335,0.255
2818,0.325,0.245
2819,0.315,0.235
2820,0.305,0.225
2821,0.305,0.225
2822,0.295,0.215
2823,0.295,0.215
2824,0.285,0.205
2825,0.275,0.215
2826,0.265,0.195
2827,0.265,0.185
2828,0.255,0.185
2829,0.245,0.185
2830,0.245,0.175
2831,0.235,0.165
2832,0.225,0.155
2833,0.215,0.145
2834,0.215,0.145
2835,0.205,0.135
2836,0.195,0.125
2837,0.185,0.135
2838,0.175,0.115
2839,0.165,0.115
2840,0.155,0.105
2841,0.145,0.105
2842,0.135,0.085
2843,0.135,0.085
2844,0.125,0.085
2845,0.105,0.065
2846,0.095,0.065
2847,0.095,0.055
2848,0.075,0.045
2849,0.055,0.045
2850,0.045,-0.405
2851,-0.615,-0.655
2852,-0.665,-0.575
2853,-0.595,-0.535
2854,-0.575,-0.525
2855,-0.565,-0.525
2856,-0.555,-0.515
2857,-0.555,-0.515
2858,-0.555,-0.515
2859,-0.555,-0.505
2860,-0.545,-0.505
2861,-0.545,-0.495
2862,-0.545,-0.495
2863,-0.545,-0.495
2864,-0.535,-0.495
2865,-0.525,-0.485
2866,-0.525,-0.475
2867,-0.525,-0.475
2868,-0.515,-0.465
2869,-0.505,-0.455
2870,-0.505,-0.455
2871,-0.495,-0.455
2872,-0.495,-0.445
2873,-0.485,-0.425
2874,-0.475,-0.425
2875,-0.475,-0.425
2876,-0.465,-0.415
2877,-0.455,-0.415
2878,-0.455,-0.405
2879,-0.445,-0.405
2880,-0.435,-0.395
2881,-0.425,-0.385
2882,-0.425,-0.385
2883,-0.415,-0.375
2884,-0.415,-0.375
2885,-0.405,-0.365
2886,-0.395,-0.355
2887,-0.395,-0.355
2888,-0.385,-0.345
2889,-0.375,-0.335
2890,-0.375,-0.335
2891,-0.365,-0.335
2892,-0.355,-0.325
2893,-0.345,-0.315
2894,-0.345,-0.315
2895,-0.335,-0.305
2896,-0.325,-0.305
2897,-0.325,-0.285
2898,-0.315,-0.285
2899,-0.305,-0.275
2900,-0.295,-0.275
2901,-0.285,-0.265
2902,-0.275,-0.255
2903,-0.265,-0.255
2904,-0.255,-0.245
2905,-0.245,-0.235
2906,-0.235,-0.225
2907,-0.225,-0.225
2908,-0.215,-0.215
2909,-0.205,-0.205
2910,-0.195,-0.205
2911,-0.185,-0.195
2912,-0.165,-0.185
2913,-0.155,-0.175
2914,-0.125,0.085
2915,0.425,0.515
2916,0.595,0.445
2917,0.525,0.405
2918,0.485,0.385
2919,0.475,0.375
2920,0.475,0.375
2921,0.475,0.365
2922,0.465,0.375
2923,0.465,0.365
2924,0.465,0.355
2925,0.455,0.355
2926,0.455,0.355
2927,0.455,0.345
2928,0.445,0.345
2929,0.445,0.345
2930,0.445,0.335
2931,0.435,0.325
2932,0.425,0.325
2933,0.425,0.325
2934,0.415,0.315
2935,0.415,0.305
2936,0.405,0.295
2937,0.405,0.295
2938,0.395,0.285
2939,0.395,0.285
2940,0.385,0.275
2941,0.375,0.275
2942,0.375,0.265
2943,0.365,0.255
2944,0.355,0.245
2945,0.355,0.255
2946,0.345,0.245
2947,0.335,0.235
2948,0.335,0.225
2949,0.325,0.225
2950,0.325,0.215
2951,0.315,0.205
2952,0.315,0.205
2953,0.305,0.205
2954,0.295,0.195
2955,0.295,0.185
2956,0.285,0.185
2957,0.275,0.185
2958,0.265,0.175
2959,0.265,0.165
2960,0.255,0.155
2961,0.255,0.145
2962,0.245,0.145
2963,0.235,0.135
2964,0.225,0.125
2965,0.215,0.125
2966,0.205,0.115
2967,0.195,0.105
2968,0.185,0.105
2969,0.175,0.095
2970,0.165,0.095
2971,0.155,0.085
2972,0.155,0.075
2973,0.145,0.075
2974,0.135,0.065
2975,0.115,0.055
2976,0.105,0.045
2977,0.085,0.025
2978,0.055,-0.185
2979,-0.445,-0.665
2980,-0.655,-0.595
2981,-0.575,-0.545
2982,-0.555,-0.535
2983,-0.535,-0.535
2984,-0.535,-0.525
2985,-0.535,-0.515
2986,-0.525,-0.515
2987,-0.525,-0.525
2988,-0.525,-0.515
2989,-0.515,-0.505
2990,-0.525,-0.505
2991,-0.515,-0.505
2992,-0.515,-0.505
2993,-0.505,-0.485
2994,-0.505,-0.485
2995,-0.495,-0.485
2996,-0.495,-0.485
2997,-0.485,-0.465
2998,-0.485,-0.465
2999,-0.475,-0.465
3000,-0.475,-0.455
3001,-0.465,-0.445
3002,-0.455,-0.445
3003,-0.455,-0.445
3004,-0.445,-0.435
3005,-0.435,-0.425
3006,-0.435,-0.425
3007,-0.425,-0.425
3008,-0.425,-0.415
3009,-0.415,-0.405
3010,-0.405,-0.405
3011,-0.405,-0.395
3012,-0.395,-0.395
3013,-0.385,-0.375
3014,-0.385,-0.375
3015,-0.375,-0.375
3016,-0.365,-0.365
3017,-0.365,-0.355
3018,-0.355,-0.365
3019,-0.345,-0.355
3020,-0.345,-0.345
3021,-0.335,-0.335
3022,-0.335,-0.335
3023,-0.325,-0.325
3024,-0.315,-0.325
3025,-0.305,-0.305
3026,-0.305,-0.305
3027,-0.285,-0.295
3028,-0.285,-0.295
3029,-0.275,-0.285
3030,-0.265,-0.275
3031,-0.255,-0.275
3032,-0.245,-0.265
3033,-0.235,-0.255
3034,-0.225,-0.245
3035,-0.215,-0.245
3036,-0.205,-0.245
3037,-0.195,-0.225
3038,-0.185,-0.225
3039,-0.175,-0.215
3040,-0.165,-0.215
3041,-0.145,-0.195
3042,-0.125,-0.155
3043,0.225,0.495
3044,0.595,0.445
3045,0.535,0.395
3046,0.495,0.375
3047,0.485,0.365
3048,0.485,0.355
3049,0.475,0.355
3050,0.475,0.355
3051,0.465,0.345
3052,0.465,0.345
3053,0.465,0.345
3054,0.455,0.335
3055,0.455,0.335
3056,0.455,0.325
3057,0.445,0.335
3058,0.445,0.315
3059,0.435,0.315
3060,0.435,0.305
3061,0.435,0.305
3062,0.425,0.295
3063,0.415,0.295
3064,0.415,0.285
3065,0.405,0.285
3066,0.405,0.275
3067,0.395,0.265
3068,0.385,0.255
3069,0.385,0.255
3070,0.375,0.245
3071,0.375,0.235
3072,0.365,0.235
3073,0.355,0.225
3074,0.345,0.215
3075,0.345,0.205
3076,0.335,0.195
3077,0.335,0.195
3078,0.325,0.185
3079,0.315,0.175
3080,0.315,0.165
3081,0.305,0.165
3082,0.295,0.155
3083,0.295,0.145
3084,0.285,0.145
3085,0.275,0.135
3086,0.265,0.125
3087,0.265,0.115
3088,0.255,0.115
3089,0.255,0.105
3090,0.235,0.095
3091,0.235,0.085
3092,0.225,0.085
3093,0.215,0.075
3094,0.205,0.075
3095,0.195,0.065
3096,0.185,0.065
3097,0.185,0.065
3098,0.175,0.055
3099,0.165,0.045
3100,0.155,0.045
3101,0.145,0.045
3102,0.125,0.035
3103,0.115,0.035
3104,0.105,0.025
3105,0.085,0.015
3106,0.065,-0.235
3107,-0.505,-0.635
3108,-0.645,-0.575
3109,-0.575,-0.545
3110,-0.545,-0.535
3111,-0.545,-0.535
3112,-0.535,-0.525
3113,-0.535,-0.525
3114,-0.535,-0.525
3115,-0.525,-0.525
3116,-0.525,-0.515
3117,-0.525,-0.505
3118,-0.525,-0.505
3119,-0.515,-0.505
3120,-0.515,-0.495
3121,-0.505,-0.485
3122,-0.505,-0.485
3123,-0.505,-0.485
3124,-0.495,-0.475
3125,-0.485,-0.465
3126,-0.485,-0.465
3127,-0.475,-0.455
3128,-0.475,-0.455
3129,-0.465,-0.445
3130,-0.465,-0.445
3131,-0.455,-0.435
3132,-0.445,-0.425
3133,-0.445,-0.425
3134,-0.435,-0.415
3135,-0.435,-0.415
3136,-0.425,-0.405
3137,-0.415,-0.395
3138,-0.405,-0.395
3139,-0.405,-0.385
3140,-0.395,-0.385
3141,-0.395,-0.375
3142,-0.385,-0.375
3143,-0.385,-0.375
3144,-0.375,-0.365
3145,-0.365,-0.355
3146,-0.355,-0.355
3147,-0.355,-0.345
3148,-0.345,-0.335
3149,-0.335,-0.335
3150,-0.335,-0.325
3151,-0.325,-0.325
3152,-0.315,-0.315
3153,-0.315,-0.305
3154,-0.305,-0.305
3155,-0.295,-0.295
3156,-0.285,-0.285
3157,-0.285,-0.275
3158,-0.275,-0.265
3159,-0.265,-0.265
3160,-0.255,-0.255
3161,-0.245,-0.245
3162,-0.235,-0.245
3163,-0.225,-0.245
3164,-0.215,-0.235
3165,-0.205,-0.225
3166,-0.195,-0.215
3167,-0.185,-0.215
3168,-0.165,-0.205
3169,-0.145,-0.185
3170,-0.125,-0.045
3171,0.365,0.495
3172,0.595,0.435
3173,0.525,0.395
3174,0.495,0.375
3175,0.475,0.365
3176,0.485,0.365
3177,0.475,0.365
3178,0.475,0.365
3179,0.475,0.355
3180,0.465,0.345
3181,0.465,0.355
3182,0.465,0.345
3183,0.455,0.335
3184,0.455,0.325
3185,0.445,0.335
3186,0.445,0.335
3187,0.445,0.325
3188,0.435,0.315
3189,0.435,0.315
3190,0.425,0.315
3191,0.425,0.305
3192,0.415,0.295
3193,0.405,0.285
3194,0.405,0.285
3195,0.395,0.275
3196,0.395,0.265
3197,0.385,0.275
3198,0.375,0.265
3199,0.375,0.265
3200,0.365,0.245
3201,0.365,0.245
3202,0.355,0.245
3203,0.345,0.235
3204,0.345,0.235
3205,0.345,0.235
3206,0.335,0.225
3207,0.325,0.215
3208,0.315,0.215
3209,0.315,0.205
3210,0.305,0.205
3211,0.295,0.195
3212,0.285,0.185
3213,0.285,0.185
3214,0.275,0.175
3215,0.265,0.175
3216,0.265,0.165
3217,0.255,0.165
3218,0.245,0.155
3219,0.245,0.145
3220,0.235,0.145
3221,0.225,0.135
3222,0.215,0.125
3223,0.205,0.115
3224,0.205,0.115
3225,0.195,0.115
3226,0.185,0.105
3227,0.165,0.095
3228,0.165,0.085
3229,0.155,0.085
3230,0.145,0.085
3231,0.125,0.065
3232,0.115,0.065
3233,0.105,0.055
3234,0.065,-0.025
3235,-0.365,-0.645
3236,-0.645,-0.585
3237,-0.575,-0.535
3238,-0.545,-0.515
3239,-0.525,-0.515
3240,-0.525,-0.505
3241,-0.525,-0.505
3242,-0.525,-0.505
3243,-0.525,-0.495
3244,-0.515,-0.495
3245,-0.515,-0.485
3246,-0.515,-0.485
3247,-0.505,-0.485
3248,-0.505,-0.475
3249,-0.505,-0.465
3250,-0.495,-0.465
3251,-0.485,-0.465
3252,-0.485,-0.455
3253,-0.475,-0.445
3254,-0.475,-0.435
3255,-0.465,-0.435
3256,-0.465,-0.435
3257,-0.465,-0.425
3258,-0.455,-0.425
3259,-0.445,-0.415
3260,-0.435,-0.405
3261,-0.435,-0.405
3262,-0.425,-0.395
3263,-0.425,-0.395
3264,-0.415,-0.385
3265,-0.405,-0.375
3266,-0.405,-0.375
3267,-0.395,-0.365
3268,-0.395,-0.365
3269,-0.385,-0.345
3270,-0.375,-0.345
3271,-0.365,-0.345
3272,-0.365,-0.345
3273,-0.355,-0.325
3274,-0.355,-0.325
3275,-0.345,-0.325
3276,-0.335,-0.315
3277,-0.335,-0.305
3278,-0.325,-0.305
3279,-0.315,-0.295
3280,-0.305,-0.295
3281,-0.295,-0.285
3282,-0.295,-0.275
3283,-0.285,-0.275
3284,-0.275,-0.265
3285,-0.275,-0.255
3286,-0.265,-0.245
3287,-0.255,-0.245
3288,-0.245,-0.235
3289,-0.235,-0.225
3290,-0.225,-0.225
3291,-0.215,-0.215
3292,-0.205,-0.215
3293,-0.195,-0.195
3294,-0.185,-0.195
3295,-0.175,-0.185
3296,-0.155,-0.175
3297,-0.135,-0.165
3298,-0.125,-0.045
3299,0.375,0.505
3300,0.585,0.445
3301,0.525,0.405
3302,0.495,0.395
3303,0.485,0.385
3304,0.475,0.375
3305,0.485,0.375
3306,0.475,0.375
3307,0.465,0.365
3308,0.465,0.365
3309,0.465,0.365
3310,0.455,0.365
3311,0.455,0.355
3312,0.455,0.355
3313,0.455,0.345
3314,0.445,0.345
3315,0.445,0.335
3316,0.435,0.335
3317,0.425,0.325
3318,0.425,0.325
3319,0.415,0.315
3320,0.415,0.305
3321,0.405,0.315
3322,0.405,0.305
3323,0.395,0.295
3324,0.385,0.285
3325,0.385,0.295
3326,0.375,0.275
3327,0.375,0.275
3328,0.365,0.265
3329,0.355,0.265
3330,0.345,0.255
3331,0.345,0.245
3332,0.335,0.245
3333,0.335,0.245
3334,0.325,0.235
3335,0.315,0.225
3336,0.315,0.225
3337,0.305,0.225
3338,0.295,0.215
3339,0.295,0.205
3340,0.285,0.195
3341,0.275,0.195
3342,0.275,0.185
3343,0.265,0.185
3344,0.255,0.175
3345,0.245,0.165
3346,0.235,0.165
3347,0.235,0.155
3348,0.225,0.145
3349,0.215,0.145
3350,0.205,0.135
3351,0.195,0.125
3352,0.185,0.115
3353,0.175,0.105
3354,0.165,0.105
3355,0.165,0.095
3356,0.145,0.095
3357,0.145,0.085
3358,0.125,0.085
3359,0.115,0.075
3360,0.105,0.065
3361,0.085,0.045
3362,0.065,-0.265
3363,-0.555,-0.655
3364,-0.645,-0.575
3365,-0.575,-0.525
3366,-0.545,-0.515
3367,-0.535,-0.515
3368,-0.535,-0.505
3369,-0.535,-0.495
3370,-0.535,-0.505
3371,-0.535,-0.495
3372,-0.525,-0.495
3373,-0.525,-0.485
3374,-0.525,-0.485
3375,-0.515,-0.485
3376,-0.515,-0.475
3377,-0.505,-0.465
3378,-0.505,-0.465
3379,-0.505,-0.455
3380,-0.495,-0.455
3381,-0.485,-0.445
3382,-0.485,-0.445
3383,-0.485,-0.445
3384,-0.475,-0.435
3385,-0.465,-0.425
3386,-0.465,-0.425
3387,-0.455,-0.415
3388,-0.455,-0.415
3389,-0.445,-0.405
3390,-0.435,-0.405
3391,-0.435,-0.395
3392,-0.425,-0.385
3393,-0.415,-0.375
3394,-0.415,-0.375
3395,-0.405,-0.375
3396,-0.405,-0.365
3397,-0.395,-0.355
3398,-0.385,-0.345
3399,-0.385,-0.345
3400,-0.375,-0.345
3401,-0.365,-0.335
3402,-0.365,-0.325
3403,-0.355,-0.325
3404,-0.355,-0.315
3405,-0.345,-0.315
3406,-0.335,-0.305
3407,-0.325,-0.305
3408,-0.325,-0.295
3409,-0.315,-0.285
3410,-0.305,-0.285
3411,-0.295,-0.275
3412,-0.285,-0.275
3413,-0.275,-0.255
3414,-0.275,-0.255
3415,-0.265,-0.245
3416,-0.255,-0.245
3417,-0.235,-0.225
3418,-0.235,-0.225
3419,-0.225,-0.225
3420,-0.215,-0.215
3421,-0.205,-0.195
3422,-0.195,-0.205
3423,-0.175,-0.195
3424,-0.165,-0.185
3425,-0.145,-0.175
3426,-0.135,0.395
3427,0.565,0.495
3428,0.555,0.425
3429,0.495,0.405
3430,0.475,0.385
3431,0.475,0.385
3432,0.465,0.375
3433,0.465,0.375
3434,0.455,0.375
3435,0.465,0.365
3436,0.455,0.365
3437,0.455,0.365
3438,0.455,0.365
3439,0.445,0.355
3440,0.445,0.345
3441,0.445,0.345
3442,0.435,0.345
3443,0.435,0.335
3444,0.425,0.325
3445,0.425,0.325
3446,0.415,0.315
3447,0.405,0.305
3448,0.405,0.305
3449,0.395,0.305
3450,0.385,0.295
3451,0.385,0.285
3452,0.375,0.275
3453,0.375,0.275
3454,0.365,0.275
3455,0.365,0.265
3456,0.355,0.255
3457,0.345,0.255
3458,0.345,0.245
3459,0.335,0.235
3460,0.335,0.235
3461,0.325,0.225
3462,0.315,0.225
3463,0.315,0.215
3464,0.305,0.205
3465,0.295,0.205
3466,0.285,0.195
3467,0.285,0.195
3468,0.275,0.185
3469,0.275,0.185
3470,0.265,0.175
3471,0.255,0.165
3472,0.255,0.165
3473,0.245,0.165
3474,0.235,0.155
3475,0.225,0.135
3476,0.215,0.135
3477,0.205,0.135
3478,0.205,0.125
3479,0.195,0.115
3480,0.185,0.105
3481,0.175,0.105
3482,0.165,0.095
3483,0.155,0.085
3484,0.145,0.075
3485,0.135,0.065
3486,0.125,0.065
3487,0.115,0.055
3488,0.095,0.055
3489,0.085,0.045
3490,0.065,-0.285
3491,-0.545,-0.665
3492,-0.625,-0.585
3493,-0.565,-0.535
3494,-0.545,-0.525
3495,-0.535,-0.525
3496,-0.535,-0.525
3497,-0.525,-0.505
3498,-0.525,-0.515
3499,-0.525,-0.505
3500,-0.525,-0.505
3501,-0.515,-0.495
3502,-0.515,-0.495
3503,-0.515,-0.495
3504,-0.505,-0.485
3505,-0.505,-0.475
3506,-0.505,-0.475
3507,-0.495,-0.475
3508,-0.495,-0.465
3509,-0.485,-0.455
3510,-0.485,-0.455
3511,-0.485,-0.445
3512,-0.475,-0.445
3513,-0.465,-0.425
3514,-0.455,-0.425
3515,-0.455,-0.415
3516,-0.445,-0.415
3517,-0.445,-0.395
3518,-0.435,-0.405
3519,-0.435,-0.395
3520,-0.425,-0.385
3521,-0.415,-0.375
3522,-0.415,-0.375
3523,-0.405,-0.365
3524,-0.395,-0.365
3525,-0.395,-0.355
3526,-0.385,-0.345
3527,-0.385,-0.335
3528,-0.375,-0.335
3529,-0.365,-0.325
3530,-0.365,-0.325
3531,-0.355,-0.315
3532,-0.345,-0.315
3533,-0.335,-0.305
3534,-0.335,-0.305
3535,-0.325,-0.305
3536,-0.315,-0.295
3537,-0.315,-0.285
3538,-0.305,-0.285
3539,-0.295,-0.275
3540,-0.285,-0.265
3541,-0.275,-0.265
3542,-0.275,-0.255
3543,-0.265,-0.255
3544,-0.255,-0.245
3545,-0.245,-0.245
3546,-0.235,-0.235
3547,-0.225,-0.235
3548,-0.215,-0.225
3549,-0.205,-0.215
3550,-0.195,-0.215
3551,-0.185,-0.205
3552,-0.175,-0.205
3553,-0.145,-0.185
3554,-0.135,0.135
3555,0.485,0.485
3556,0.555,0.415
3557,0.505,0.385
3558,0.475,0.365
3559,0.465,0.355
3560,0.465,0.365
3561,0.465,0.355
3562,0.455,0.355
3563,0.455,0.345
3564,0.455,0.345
3565,0.455,0.345
3566,0.445,0.345
3567,0.445,0.335
3568,0.445,0.335
3569,0.445,0.335
3570,0.435,0.325
3571,0.425,0.315
3572,0.425,0.315
3573,0.425,0.315
3574,0.415,0.305
3575,0.415,0.305
3576,0.405,0.295
3577,0.405,0.295
3578,0.395,0.285
3579,0.385,0.275
3580,0.385,0.275
3581,0.375,0.275
3582,0.375,0.265
3583,0.365,0.255
3584,0.355,0.255
3585,0.355,0.245
3586,0.345,0.245
3587,0.335,0.235
3588,0.335,0.235
3589,0.335,0.225
3590,0.325,0.225
3591,0.315,0.215
3592,0.315,0.215
3593,0.305,0.205
3594,0.295,0.205
3595,0.295,0.195
3596,0.285,0.185
3597,0.285,0.185
3598,0.275,0.185
3599,0.265,0.175
3600,0.265,0.165
3601,0.255,0.165
3602,0.245,0.155
3603,0.235,0.145
3604,0.235,0.145
3605,0.225,0.145
3606,0.215,0.125
3607,0.205,0.125
3608,0.195,0.115
3609,0.185,0.115
3610,0.175,0.105
3611,0.165,0.095
3612,0.155,0.085
3613,0.145,0.085
3614,0.135,0.075
3615,0.125,0.065
3616,0.105,0.055
3617,0.095,0.045
3618,0.085,-0.455
3619,-0.595,-0.635
3620,-0.595,-0.565
3621,-0.535,-0.515
3622,-0.515,-0.515
3623,-0.515,-0.515
3624,-0.515,-0.505
3625,-0.505,-0.495
3626,-0.505,-0.495
3627,-0.505,-0.495
3628,-0.495,-0.485
3629,-0.495,-0.485
3630,-0.495,-0.485
3631,-0.495,-0.475
3632,-0.485,-0.475
3633,-0.485,-0.465
3634,-0.475,-0.465
3635,-0.475,-0.465
3636,-0.465,-0.455
3637,-0.465,-0.445
3638,-0.455,-0.445
3639,-0.455,-0.445
3640,-0.445,-0.435
3641,-0.445,-0.425
3642,-0.445,-0.425
3643,-0.435,-0.415
3644,-0.425,-0.405
3645,-0.415,-0.395
3646,-0.415,-0.395
3647,-0.405,-0.395
3648,-0.395,-0.385
3649,-0.395,-0.375
3650,-0.385,-0.375
3651,-0.385,-0.375
3652,-0.375,-0.365
3653,-0.375,-0.355
3654,-0.365,-0.355
3655,-0.355,-0.345
3656,-0.345,-0.345
3657,-0.345,-0.335
3658,-0.335,-0.335
3659,-0.335,-0.325
3660,-0.325,-0.315
3661,-0.315,-0.305
3662,-0.305,-0.305
3663,-0.305,-0.305
3664,-0.295,-0.295
3665,-0.295,-0.285
3666,-0.285,-0.285
3667,-0.275,-0.275
3668,-0.265,-0.265
3669,-0.265,-0.255
3670,-0.255,-0.255
3671,-0.235,-0.245
3672,-0.225,-0.235
3673,-0.225,-0.225
3674,-0.215,-0.225
3675,-0.195,-0.225
3676,-0.195,-0.215
3677,-0.185,-0.205
3678,-0.175,-0.195
3679,-0.155,-0.195
3680,-0.145,-0.185
3681,-0.125,-0.165
3682,-0.125,0.295
3683,0.545,0.505
3684,0.565,0.435
3685,0.505,0.405
3686,0.485,0.395
3687,0.475,0.385
3688,0.475,0.385
3689,0.475,0.385
3690,0.475,0.375
3691,0.465,0.375
3692,0.465,0.365
3693,0.465,0.365
3694,0.465,0.365
3695,0.465,0.355
3696,0.455,0.355
3697,0.455,0.355
3698,0.445,0.345
3699,0.445,0.335
3700,0.445,0.335
3701,0.435,0.335
3702,0.435,0.325
3703,0.425,0.315
3704,0.425,0.315
3705,0.415,0.315
3706,0.415,0.295
3707,0.405,0.295
3708,0.405,0.295
3709,0.395,0.285
3710,0.385,0.275
3711,0.385,0.275
3712,0.375,0.265
3713,0.375,0.265
3714,0.365,0.255
3715,0.355,0.245
3716,0.355,0.245
3717,0.345,0.245
3718,0.335,0.235
3719,0.335,0.225
3720,0.325,0.225
3721,0.315,0.225
3722,0.315,0.215
3723,0.305,0.205
3724,0.305,0.205
3725,0.295,0.195
3726,0.285,0.185
3727,0.275,0.185
3728,0.275,0.175
3729,0.265,0.175
3730,0.265,0.165
3731,0.255,0.155
3732,0.245,0.145
3733,0.235,0.145
3734,0.225,0.135
3735,0.215,0.135
3736,0.205,0.125
3737,0.205,0.125
3738,0.195,0.115
3739,0.185,0.105
3740,0.175,0.095
3741,0.165,0.085
3742,0.155,0.085
3743,0.135,0.075
3744,0.135,0.075
3745,0.115,0.055
3746,0.085,-0.015
3747,-0.365,-0.645
3748,-0.595,-0.575
3749,-0.535,-0.525
3750,-0.505,-0.505
3751,-0.495,-0.505
3752,-0.495,-0.495
3753,-0.485,-0.495
3754,-0.485,-0.485
3755,-0.485,-0.495
3756,-0.485,-0.485
3757,-0.475,-0.475
3758,-0.475,-0.475
3759,-0.475,-0.475
3760,-0.475,-0.465
3761,-0.465,-0.455
3762,-0.465,-0.455
3763,-0.455,-0.455
3764,-0.455,-0.455
3765,-0.445,-0.435
3766,-0.445,-0.435
3767,-0.435,-0.435
3768,-0.425,-0.425
3769,-0.425,-0.415
3770,-0.425,-0.415
3771,-0.415,-0.415
3772,-0.405,-0.405
3773,-0.405,-0.395
3774,-0.385,-0.395
3775,-0.385,-0.385
3776,-0.375,-0.375
3777,-0.375,-0.365
3778,-0.365,-0.365
3779,-0.355,-0.365
3780,-0.355,-0.355
3781,-0.345,-0.345
3782,-0.335,-0.345
3783,-0.335,-0.335
3784,-0.325,-0.335
3785,-0.315,-0.315
3786,-0.315,-0.315
3787,-0.305,-0.315
3788,-0.295,-0.305
3789,-0.285,-0.295
3790,-0.285,-0.295
3791,-0.275,-0.285
3792,-0.265,-0.275
3793,-0.255,-0.265
3794,-0.245,-0.255
3795,-0.245,-0.255
3796,-0.235,-0.245
3797,-0.225,-0.235
3798,-0.215,-0.235
3799,-0.195,-0.225
3800,-0.195,-0.215
3801,-0.185,-0.205
3802,-0.165,-0.205
3803,-0.165,-0.195
3804,-0.145,-0.185
3805,-0.135,-0.175
3806,-0.125,-0.175
3807,-0.115,-0.165
3808,-0.095,-0.155
3809,-0.075,-0.135
3810,-0.065,0.355
3811,0.585,0.535
3812,0.595,0.455
3813,0.545,0.435
3814,0.525,0.425
3815,0.525,0.415
3816,0.525,0.415
3817,0.515,0.405
3818,0.515,0.405
3819,0.515,0.405
3820,0.515,0.395
3821,0.515,0.405
3822,0.505,0.395
3823,0.505,0.385
3824,0.505,0.385
3825,0.495,0.385
3826,0.495,0.385
3827,0.495,0.375
3828,0.495,0.375
3829,0.485,0.365
3830,0.485,0.365
3831,0.485,0.355
3832,0.475,0.345
3833,0.475,0.345
3834,0.465,0.345
3835,0.465,0.335
3836,0.455,0.325
3837,0.455,0.325
3838,0.455,0.325
3839,0.445,0.315
3840,0.445,0.305
3841,0.435,0.305
3842,0.425,0.305
3843,0.425,0.295
3844,0.425,0.295
3845,0.415,0.295
3846,0.415,0.285
3847,0.405,0.275
3848,0.405,0.275
3849,0.405,0.275
3850,0.395,0.265
3851,0.385,0.255
3852,0.385,0.255
3853,0.375,0.245
3854,0.375,0.245
3855,0.365,0.235
3856,0.365,0.235
3857,0.355,0.235
3858,0.345,0.225
3859,0.345,0.215
3860,0.335,0.205
3861,0.325,0.205
3862,0.315,0.195
3863,0.315,0.195
3864,0.305,0.185
3865,0.295,0.175
3866,0.285,0.175
3867,0.285,0.165
3868,0.275,0.165
3869,0.265,0.165
3870,0.255,0.145
3871,0.245,0.145
3872,0.235,0.125
3873,0.215,0.125
3874,0.215,-0.315
3875,-0.425,-0.555
3876,-0.455,-0.485
3877,-0.395,-0.445
3878,-0.375,-0.435
3879,-0.365,-0.425
3880,-0.365,-0.425
3881,-0.355,-0.415
3882,-0.355,-0.415
3883,-0.345,-0.405
3884,-0.335,-0.405
3885,-0.335,-0.395
3886,-0.335,-0.395
3887,-0.325,-0.385
3888,-0.325,-0.385
3889,-0.315,-0.375
3890,-0.305,-0.375
3891,-0.305,-0.365
3892,-0.295,-0.365
3893,-0.285,-0.355
3894,-0.285,-0.345
3895,-0.275,-0.345
3896,-0.265,-0.335
3897,-0.255,-0.325
3898,-0.255,-0.315
3899,-0.245,-0.315
3900,-0.235,-0.305
3901,-0.225,-0.295
3902,-0.215,-0.285
3903,-0.205,-0.285
3904,-0.195,-0.275
3905,-0.185,-0.265
3906,-0.185,-0.255
3907,-0.165,-0.255
3908,-0.155,-0.245
3909,-0.155,-0.235
3910,-0.145,-0.235
3911,-0.135,-0.235
3912,-0.115,-0.215
3913,-0.105,-0.205
3914,-0.105,-0.205
3915,-0.085,-0.195
3916,-0.075,-0.185
3917,-0.065,-0.175
3918,-0.055,-0.165
3919,-0.045,-0.165
3920,-0.035,-0.155
3921,-0.025,-0.145
3922,-0.015,-0.135
3923,-0.005,-0.135
3924,0.015,-0.125
3925,0.025,-0.105
3926,0.035,-0.105
3927,0.045,-0.095
3928,0.065,-0.085
3929,0.085,-0.075
3930,0.085,-0.065
3931,0.105,-0.065
3932,0.125,-0.055
3933,0.135,-0.045
3934,0.145,-0.035
3935,0.165,-0.025
3936,0.185,-0.015
3937,0.205,-0.005
3938,0.235,-0.005
3939,0.585,0.695
3940,0.945,0.645
3941,0.895,0.585
3942,0.865,0.575
3943,0.855,0.565
3944,0.855,0.565
3945,0.865,0.575
3946,0.865,0.565
3947,0.865,0.565
3948,0.865,0.565
3949,0.875,0.565
3950,0.875,0.555
3951,0.875,0.555
3952,0.885,0.555
3953,0.885,0.555
3954,0.885,0.545
3955,0.885,0.545
3956,0.885,0.545
3957,0.885,0.545
3958,0.885,0.535
3959,0.885,0.535
3960,0.895,0.525
3961,0.895,0.525
3962,0.895,0.525
3963,0.895,0.515
3964,0.885,0.505
3965,0.895,0.505
3966,0.885,0.505
3967,0.885,0.495
3968,0.885,0.485
3969,0.875,0.485
3970,0.875,0.475
3971,0.875,0.465
3972,0.865,0.465
3973,0.865,0.455
3974,0.855,0.445
3975,0.855,0.435
3976,0.845,0.435
3977,0.845,0.425
3978,0.835,0.415
3979,0.825,0.405
3980,0.825,0.405
3981,0.815,0.395
3982,0.815,0.385
3983,0.805,0.375
3984,0.805,0.365
3985,0.795,0.355
3986,0.785,0.345
3987,0.775,0.335
3988,0.775,0.325
3989,0.765,0.325
3990,0.755,0.315
3991,0.745,0.305
3992,0.745,0.295
3993,0.735,0.285
3994,0.715,0.275
3995,0.715,0.265
3996,0.705,0.255
3997,0.695,0.245
3998,0.685,0.245
3999,0.675,0.235
4000,0.665,0.215
4001,0.645,0.205
4002,0.635,-0.325
4003,-0.035,-0.475
4004,-0.045,-0.395
4005,0.005,-0.365
4006,0.025,-0.365
4007,0.045,-0.365
4008,0.045,-0.355
4009,0.045,-0.345
4010,0.045,-0.345
4011,0.045,-0.355
4012,0.055,-0.355
4013,0.055,-0.345
4014,0.055,-0.345
4015,0.065,-0.345
4016,0.065,-0.345
4017,0.065,-0.335
4018,0.075,-0.335
4019,0.075,-0.335
4020,0.085,-0.335
4021,0.085,-0.325
4022,0.085,-0.325
4023,0.095,-0.325
4024,0.095,-0.325
4025,0.095,-0.315
4026,0.095,-0.315
4027,0.105,-0.315
4028,0.105,-0.315
4029,0.105,-0.305
4030,0.105,-0.305
4031,0.115,-0.305
4032,0.115,-0.305
4033,0.125,-0.295
4034,0.125,-0.305
4035,0.125,-0.295
4036,0.125,-0.295
4037,0.125,-0.285
4038,0.135,-0.285
4039,0.135,-0.285
4040,0.145,-0.285
4041,0.145,-0.275
4042,0.145,-0.275
4043,0.155,-0.275
4044,0.155,-0.265
4045,0.155,-0.265
4046,0.155,-0.255
4047,0.165,-0.255
4048,0.165,-0.255
4049,0.175,-0.245
4050,0.175,-0.245
4051,0.175,-0.245
4052,0.185,-0.235
4053,0.195,-0.225
4054,0.195,-0.225
4055,0.195,-0.215
4056,0.205,-0.215
4057,0.215,-0.205
4058,0.215,-0.205
4059,0.215,-0.205
4060,0.225,-0.205
4061,0.235,-0.195
4062,0.245,-0.185
4063,0.255,-0.185
4064,0.265,-0.175
4065,0.275,-0.165
4066,0.285,0.205
4067,0.895,0.515
4068,0.975,0.435
4069,0.905,0.395
4070,0.875,0.385
4071,0.865,0.375
4072,0.855,0.365
4073,0.845,0.365
4074,0.845,0.355
4075,0.835,0.345
4076,0.825,0.345
4077,0.815,0.345
4078,0.815,0.325
4079,0.805,0.325
4080,0.805,0.325
4081,0.795,0.325
4082,0.785,0.315
4083,0.775,0.305
4084,0.775,0.295
4085,0.765,0.305
4086,0.755,0.295
4087,0.745,0.285
4088,0.745,0.285
4089,0.735,0.285
4090,0.725,0.275
4091,0.715,0.265
4092,0.705,0.245
4093,0.705,0.255
4094,0.695,0.245
4095,0.685,0.245
4096,0.675,0.235
4097,0.665,0.235
4098,0.655,0.225
4099,0.655,0.215
4100,0.645,0.205
4101,0.635,0.215
4102,0.625,0.205
4103,0.615,0.205
4104,0.615,0.195
4105,0.605,0.195
4106,0.595,0.185
4107,0.585,0.185
4108,0.585,0.165
4109,0.575,0.175
4110,0.565,0.165
4111,0.555,0.155
4112,0.545,0.155
4113,0.535,0.145
4114,0.525,0.145
4115,0.515,0.135
4116,0.505,0.125
4117,0.495,0.125
4118,0.485,0.115
4119,0.475,0.105
4120,0.465,0.105
4121,0.455,0.105
4122,0.445,0.085
4123,0.425,0.085
4124,0.415,0.085
4125,0.415,0.075
4126,0.395,0.065
4127,0.385,0.065
4128,0.365,0.045
4129,0.355,0.045
4130,0.335,-0.365
4131,-0.315,-0.645
4132,-0.365,-0.565
4133,-0.295,-0.525
4134,-0.275,-0.505
4135,-0.265,-0.505
4136,-0.265,-0.505
4137,-0.265,-0.495
4138,-0.265,-0.485
4139,-0.255,-0.485
4140,-0.265,-0.485
4141,-0.265,-0.475
4142,-0.255,-0.475
4143,-0.255,-0.465
4144,-0.255,-0.465
4145,-0.255,-0.455
4146,-0.245,-0.455
4147,-0.245,-0.455
4148,-0.245,-0.445
4149,-0.245,-0.435
4150,-0.245,-0.435
4151,-0.235,-0.435
4152,-0.235,-0.425
4153,-0.235,-0.425
4154,-0.235,-0.415
4155,-0.235,-0.415
4156,-0.235,-0.415
4157,-0.235,-0.405
4158,-0.235,-0.405
4159,-0.225,-0.405
4160,-0.225,-0.395
4161,-0.225,-0.385
4162,-0.225,-0.385
4163,-0.215,-0.385
4164,-0.215,-0.375
4165,-0.215,-0.375
4166,-0.215,-0.365
4167,-0.215,-0.375
4168,-0.205,-0.365
4169,-0.205,-0.355
4170,-0.205,-0.355
4171,-0.205,-0.355
4172,-0.195,-0.345
4173,-0.195,-0.335
4174,-0.195,-0.335
4175,-0.185,-0.335
4176,-0.185,-0.325
4177,-0.185,-0.315
4178,-0.175,-0.305
4179,-0.175,-0.305
4180,-0.175,-0.305
4181,-0.165,-0.295
4182,-0.165,-0.295
4183,-0.155,-0.295
4184,-0.155,-0.285
4185,-0.145,-0.275
4186,-0.145,-0.265
4187,-0.135,-0.265
4188,-0.125,-0.265
4189,-0.125,-0.255
4190,-0.115,-0.255
4191,-0.105,-0.245
4192,-0.105,-0.235
4193,-0.085,-0.225
4194,-0.065,0.105
4195,0.515,0.465
4196,0.615,0.385
4197,0.555,0.345
4198,0.525,0.325
4199,0.505,0.315
4200,0.505,0.315
4201,0.495,0.315
4202,0.485,0.305
4203,0.485,0.305
4204,0.485,0.295
4205,0.475,0.295
4206,0.465,0.285
4207,0.465,0.275
4208,0.455,0.275
4209,0.445,0.275
4210,0.445,0.265
4211,0.435,0.265
4212,0.435,0.255
4213,0.425,0.255
4214,0.415,0.255
4215,0.415,0.245
4216,0.405,0.235
4217,0.405,0.235
4218,0.395,0.225
4219,0.395,0.225
4220,0.385,0.225
4221,0.385,0.225
4222,0.375,0.215
4223,0.375,0.205
4224,0.365,0.205
4225,0.355,0.205
4226,0.355,0.195
4227,0.345,0.195
4228,0.335,0.185
4229,0.335,0.195
4230,0.325,0.185
4231,0.325,0.175
4232,0.315,0.175
4233,0.305,0.165
4234,0.295,0.165
4235,0.295,0.155
4236,0.285,0.155
4237,0.275,0.145
4238,0.265,0.145
4239,0.265,0.145
4240,0.255,0.135
4241,0.245,0.125
4242,0.235,0.125
4243,0.235,0.115
4244,0.215,0.115
4245,0.215,0.105
4246,0.195,0.105
4247,0.195,0.095
4248,0.175,0.085
4249,0.175,0.085
4250,0.155,0.085
4251,0.145,0.075
4252,0.135,0.075
4253,0.125,0.065
4254,0.115,0.065
4255,0.105,0.055
4256,0.085,0.045
4257,0.065,0.025
4258,0.045,-0.365
4259,-0.595,-0.655
4260,-0.645,-0.575
4261,-0.585,-0.535
4262,-0.565,-0.525
4263,-0.565,-0.525
4264,-0.555,-0.515
4265,-0.565,-0.505
4266,-0.565,-0.505
4267,-0.565,-0.515
4268,-0.575,-0.515
4269,-0.595,-0.515
4270,-0.615,-1.145
4271,-1.795,-1.685
4272,-1.715,-1.505
4273,-1.615,-1.435
4274,-1.595,-1.420
4275,-1.605,-1.410
4276,-1.605,-1.400
4277,-1.615,-1.380
4278,-1.625,-1.365
4279,-1.625,-1.345
4280,-1.635,-1.335
4281,-1.635,-1.325
4282,-1.635,-1.315
4283,-1.645,-1.305
4284,-1.645,-1.295
4285,-1.645,-1.275
4286,-1.655,-1.270
4287,-1.655,-1.250
4288,-1.655,-1.250
4289,-1.655,-1.230
4290,-1.665,-1.225
4291,-1.665,-1.205
4292,-1.665,-1.195
4293,-1.665,-1.175
4294,-1.675,-1.170
4295,-1.675,-1.160
4296,-1.675,-1.150
4297,-1.665,-1.140
4298,-1.675,-1.115
4299,-1.675,-1.105
4300,-1.675,-1.075
4301,-1.675,-1.045
4302,-1.675,-1.030
4303,-1.675,-1.020
4304,-1.675,-1.010
4305,-1.665,-1.000
4306,-1.665,-0.985
4307,-1.665,-0.975
4308,-1.665,-0.945
4309,-1.665,-0.965
4310,-1.665,-0.970
4311,-1.655,-0.950
4312,-1.655,-0.940
4313,-1.645,-0.920
4314,-1.645,-0.915
4315,-1.645,-0.895
4316,-1.635,-0.875
4317,-1.635,-0.855
4318,-1.635,-0.810
4319,-1.635,-0.710
4320,-1.635,-0.560
4321,-1.635,-0.660
4322,-1.625,-0.655
4323,-1.615,-0.925
4324,-1.615,-1.015
4325,-1.615,-0.885
4326,-1.615,-0.760
4327,-1.615,-0.720
4328,-1.615,-0.700
4329,-1.605,-0.680
4330,-1.605,-0.665
4331,-1.605,-0.655
4332,-1.605,-0.625
4333,-1.595,-0.605
4334,-1.595,-0.600
4335,-1.595,-0.600
4336,-1.595,-0.620
4337,-1.595,-0.620
4338,-1.585,-0.625
4339,-1.585,-0.585
4340,-1.575,-0.555
4341,-1.575,-0.525
4342,-1.575,-0.495
4343,-1.565,-0.495
4344,-1.565,-0.475
4345,-1.565,-0.475
4346,-1.565,-0.455
4347,-1.565,-0.425
4348,-1.565,-0.395
4349,-1.555,-0.355
4350,-1.555,-0.335
4351,-1.545,-0.315
4352,-1.545,-0.315
4353,-1.545,-0.325
4354,-1.545,-0.335
4355,-1.545,-0.355
4356,-1.545,-0.375
4357,-1.545,-0.395
4358,-1.535,-0.415
4359,-1.535,-0.425
4360,-1.535,-0.435
4361,-1.525,-0.435
4362,-1.525,-0.425
4363,-1.525,-0.425
4364,-1.525,-0.425
4365,-1.515,-0.405
4366,-1.515,-0.405
4367,-1.515,-0.395
4368,-1.515,-0.385
4369,-1.505,-0.385
4370,-1.515,-0.385
4371,-1.515,-0.385
4372,-1.505,-0.385
4373,-1.505,-0.365
4374,-1.505,-0.375
4375,-1.505,-0.375
4376,-1.505,-0.375
4377,-1.505,-0.375
4378,-1.505,-0.375
4379,-1.505,-0.385
4380,-1.505,-0.375
4381,-1.495,-0.365
4382,-1.495,-0.375
4383,-1.495,-0.365
4384,-1.485,-0.355
4385,-1.485,-0.335
4386,-1.485,-0.325
4387,-1.485,-0.315
4388,-1.475,-0.295
4389,-1.465,-0.305
4390,-1.455,-0.315
4391,-1.455,-0.315
4392,-1.435,-0.325
4393,-1.435,-0.295
4394,-1.435,-0.315
4395,-1.445,-0.345
4396,-1.445,-0.365
4397,-1.435,-0.345
4398,-1.435,-0.345
4399,-1.425,-0.335
4400,-1.425,-0.335
4401,-1.425,-0.335
4402,-1.415,-0.335
4403,-1.405,-0.335
4404,-1.395,-0.245
4405,-1.385,-0.115
4406,-1.275,-0.045
4407,-1.025,-0.165
4408,-0.725,-0.185
4409,-1.085,-0.545
4410,-1.435,-0.545
4411,-1.425,-0.375
4412,-1.355,-0.275
4413,-1.315,-0.255
4414,-1.305,-0.255
4415,-1.295,-0.265
4416,-1.285,-0.255
4417,-1.265,-0.245
4418,-1.255,-0.245
4419,-1.255,-0.245
4420,-1.225,-0.235
4421,-1.205,-0.215
4422,-1.195,-0.205
4423,-1.175,-0.195
4424,-1.145,-0.185
4425,-1.125,-0.175
4426,-1.105,-0.165
4427,-1.075,-0.155
4428,-1.045,-0.145
4429,-1.005,-0.105
4430,-0.975,-0.095
4431,-0.935,-0.075
4432,-0.905,-0.055
4433,-0.875,-0.035
4434,-0.855,-0.025
4435,-0.845,-0.025
4436,-0.825,-0.015
4437,-0.815,-0.015
4438,-0.815,-0.025
4439,-0.825,-0.035
4440,-0.835,-0.065
4441,-0.855,-0.095
4442,-0.885,-0.125
4443,-0.905,-0.155
4444,-0.915,-0.165
4445,-0.915,-0.165
4446,-0.905,-0.175
4447,-0.895,-0.175
4448,-0.895,-0.175
4449,-0.885,-0.175
4450,-0.865,-0.175
4451,-0.855,-0.175
4452,-0.835,-0.165
4453,-0.825,-0.155
4454,-0.805,-0.145
4455,-0.785,-0.155
4456,-0.775,-0.145
4457,-0.765,-0.135
4458,-0.745,-0.145
4459,-0.735,-0.145
4460,-0.735,-0.145
4461,-0.715,-0.135
4462,-0.705,-0.135
4463,-0.695,-0.135
4464,-0.695,-0.145
4465,-0.685,-0.135
4466,-0.675,-0.145
4467,-0.675,-0.145
4468,-0.655,-0.135
4469,-0.655,-0.135
4470,-0.635,-0.125
4471,-0.625,-0.125
4472,-0.595,-0.105
4473,-0.565,-0.085
4474,-0.535,-0.075
4475,-0.525,-0.065
4476,-0.485,-0.065
4477,-0.475,-0.075
4478,-0.445,-0.085
4479,-0.425,-0.095
4480,-0.425,-0.075
4481,-0.425,-0.065
4482,-0.465,-0.125
4483,-0.515,-0.145
4484,-0.525,-0.145
4485,-0.515,-0.135
4486,-0.515,-0.145
4487,-0.495,-0.145
4488,-0.495,-0.145
4489,-0.495,-0.135
4490,-0.475,-0.125
4491,-0.465,-0.135
4492,-0.455,-0.035
4493,-0.375,0.105
4494,-0.115,0.125
4495,0.265,-0.015
4496,0.595,-0.045
4497,-0.025,-0.455
4498,-0.535,-0.375
4499,-0.555,-0.165
4500,-0.405,-0.095
4501,-0.365,-0.095
4502,-0.365,-0.095
4503,-0.365,-0.095
4504,-0.345,-0.095
4505,-0.335,-0.085
4506,-0.325,-0.085
4507,-0.315,-0.085
4508,-0.295,-0.085
4509,-0.285,-0.075
4510,-0.265,-0.065
4511,-0.245,-0.065
4512,-0.225,-0.055
4513,-0.205,-0.045
4514,-0.185,-0.045
4515,-0.165,-0.035
4516,-0.125,-0.015
4517,-0.085,0.015
4518,-0.055,0.025
4519,-0.015,0.055
4520,0.005,0.075
4521,0.035,0.085
4522,0.035,0.085
4523,0.045,0.095
4524,0.045,0.085
4525,0.045,0.065
4526,0.025,0.065
4527,-0.005,0.035
4528,-0.045,-0.005
4529,-0.095,-0.035
4530,-0.135,-0.085
4531,-0.165,-0.105
4532,-0.195,-0.125
4533,-0.215,-0.125
4534,-0.215,-0.135
4535,-0.215,-0.135
4536,-0.225,-0.145
4537,-0.215,-0.145
4538,-0.215,-0.145
4539,-0.205,-0.145
4540,-0.195,-0.145
4541,-0.195,-0.135
4542,-0.185,-0.135
4543,-0.175,-0.135
4544,-0.175,-0.135
4545,-0.175,-0.125
4546,-0.165,-0.135
4547,-0.155,-0.145
4548,-0.155,-0.145
4549,-0.155,-0.145
4550,-0.155,-0.135
4551,-0.145,-0.145
4552,-0.155,-0.145
4553,-0.155,-0.145
4554,-0.155,-0.155
4555,-0.155,-0.155
4556,-0.145,-0.145
4557,-0.145,-0.145
4558,-0.145,-0.135
4559,-0.135,-0.135
4560,-0.115,-0.115
4561,-0.085,-0.095
4562,-0.075,-0.105
4563,-0.065,-0.085
4564,-0.025,-0.085
4565,-0.015,-0.075
4566,0.025,-0.075
4567,0.025,-0.095
4568,0.025,-0.075
4569,0.015,-0.065
4570,-0.025,-0.115
4571,-0.085,-0.135
4572,-0.105,-0.135
4573,-0.085,-0.115
4574,-0.085,-0.115
4575,-0.075,-0.105
4576,-0.065,-0.105
4577,-0.055,-0.095
4578,-0.055,-0.085
4579,-0.035,-0.075
4580,-0.025,-0.005
4581,0.015,0.115
4582,0.215,0.225
4583,0.555,0.055
4584,0.895,0.055
4585,0.485,-0.325
4586,-0.055,-0.275
4587,-0.095,-0.075
4588,0.035,0.015
4589,0.085,0.005
4590,0.085,0.025
4591,0.105,0.025
4592,0.115,0.035
4593,0.135,0.045
4594,0.145,0.045
4595,0.165,0.055
4596,0.185,0.065
4597,0.205,0.065
4598,0.225,0.085
4599,0.245,0.095
4600,0.265,0.105
4601,0.285,0.125
4602,0.315,0.135
4603,0.325,0.135
4604,0.365,0.165
4605,0.395,0.185
4606,0.425,0.215
4607,0.465,0.235
4608,0.495,0.255
4609,0.525,0.285
4610,0.535,0.275
4611,0.535,0.285
4612,0.545,0.285
4613,0.545,0.295
4614,0.545,0.285
4615,0.535,0.265
4616,0.505,0.235
4617,0.465,0.205
4618,0.415,0.155
4619,0.375,0.125
4620,0.345,0.105
4621,0.335,0.085
4622,0.315,0.085
4623,0.315,0.075
4624,0.315,0.075
4625,0.305,0.085
4626,0.315,0.075
4627,0.325,0.075
4628,0.335,0.075
4629,0.335,0.085
4630,0.345,0.085
4631,0.355,0.085
4632,0.365,0.085
4633,0.365,0.085
4634,0.375,0.095
4635,0.355,0.085
4636,0.375,0.085
4637,0.375,0.085
4638,0.375,0.085
4639,0.375,0.085
4640,0.385,0.085
4641,0.375,0.085
4642,0.375,0.075
4643,0.375,0.075
4644,0.385,0.085
4645,0.395,0.085
4646,0.405,0.105
4647,0.425,0.105
4648,0.445,0.115
4649,0.455,0.125
4650,0.465,0.125
4651,0.485,0.115
4652,0.515,0.105
4653,0.525,0.095
4654,0.515,0.105
4655,0.515,0.115
4656,0.475,0.065
4657,0.415,0.055
4658,0.385,0.035
4659,0.395,0.055
4660,0.405,0.055
4661,0.395,0.055
4662,0.405,0.055
4663,0.405,0.055
4664,0.415,0.055
4665,0.425,0.065
4666,0.415,0.145
4667,0.465,0.275
4668,0.735,0.305
4669,1.065,0.235
4670,1.345,0.155
4671,0.845,-0.195
4672,0.265,-0.155
4673,0.275,0.005
4674,0.375,0.085
4675,0.445,0.085
4676,0.455,0.095
4677,0.455,0.085
4678,0.465,0.105
4679,0.475,0.095
4680,0.485,0.095
4681,0.485,0.105
4682,0.505,0.105
4683,0.525,0.105
4684,0.535,0.115
4685,0.545,0.135
4686,0.565,0.135
4687,0.585,0.135
4688,0.605,0.145
4689,0.625,0.165
4690,0.645,0.165
4691,0.685,0.195
4692,0.715,0.205
4693,0.755,0.235
4694,0.785,0.245
4695,0.795,0.245
4696,0.805,0.265
4697,0.805,0.265
4698,0.795,0.255
4699,0.795,0.255
4700,0.775,0.235
4701,0.735,0.225
4702,0.695,0.195
4703,0.655,0.165
4704,0.615,0.135
4705,0.575,0.085
4706,0.535,0.075
4707,0.525,0.055
4708,0.505,0.045
4709,0.495,0.045
4710,0.495,0.055
4711,0.495,0.035
4712,0.495,0.035
4713,0.495,0.045
4714,0.505,0.045
4715,0.495,0.055
4716,0.505,0.055
4717,0.505,0.055
4718,0.505,0.045
4719,0.515,0.045
4720,0.495,0.255
4721,0.375,-0.025
4722,0.415,0.045
4723,0.505,0.065
4724,0.515,0.045
4725,0.515,0.025
4726,0.505,0.025
4727,0.505,0.035
4728,0.505,0.015
4729,0.495,0.005
4730,0.485,-0.015
4731,0.485,-0.035
4732,0.505,-0.005
4733,0.515,0.035
4734,0.495,0.285
4735,0.655,-0.285
4736,0.845,0.375
4737,0.475,-0.125
4738,0.325,0.085
4739,0.585,0.055
4740,0.575,0.025
4741,0.545,0.045
4742,0.525,0.025
4743,0.465,-0.005
4744,0.425,-0.025
4745,0.395,-0.015
4746,0.405,-0.015
4747,0.395,-0.025
4748,0.395,-0.025
4749,0.405,-0.025
4750,0.395,-0.015
4751,0.405,0.005
4752,0.395,0.105
4753,0.485,0.295
4754,0.815,0.205
4755,1.225,0.155
4756,1.215,-0.205
4757,0.415,-0.285
4758,0.165,-0.125
4759,0.275,-0.005
4760,0.365,0.015
4761,0.385,0.025
4762,0.375,0.025
4763,0.375,0.015
4764,0.385,0.025
4765,0.395,0.025
4766,0.405,0.035
4767,0.425,0.045
4768,0.425,0.045
4769,0.425,0.045
4770,0.445,0.065
4771,0.455,0.065
4772,0.465,0.065
4773,0.495,0.085
4774,0.505,0.105
4775,0.535,0.115
4776,0.565,0.125
4777,0.585,0.145
4778,0.615,0.175
4779,0.625,0.185
4780,0.655,0.185
4781,0.665,0.205
4782,0.665,0.205
4783,0.665,0.195
4784,0.645,0.185
4785,0.615,0.185
4786,0.585,0.145
4787,0.535,0.115
4788,0.495,0.085
4789,0.445,0.065
4790,0.395,0.035
4791,0.365,0.015
4792,0.345,0.005
4793,0.315,-0.005
4794,0.315,-0.015
4795,0.295,-0.015
4796,0.305,-0.015
4797,0.305,-0.015
4798,0.295,-0.015
4799,0.305,-0.015
4800,0.305,-0.005
4801,0.305,-0.005
4802,0.295,-0.005
4803,0.285,-0.005
4804,0.295,-0.005
4805,0.305,-0.005
4806,0.295,-0.005
4807,0.285,-0.005
4808,0.285,-0.015
4809,0.285,-0.005
4810,0.275,-0.015
4811,0.255,-0.015
4812,0.265,-0.025
4813,0.255,-0.015
4814,0.255,-0.025
4815,0.255,-0.025
4816,0.245,-0.025
4817,0.255,0.005
4818,0.275,0.005
4819,0.285,0.015
4820,0.305,0.005
4821,0.295,0.025
4822,0.305,-0.005
4823,0.325,-0.005
4824,0.325,-0.025
4825,0.295,-0.005
4826,0.275,-0.005
4827,0.235,-0.045
4828,0.185,-0.065
4829,0.155,-0.065
4830,0.155,-0.065
4831,0.155,-0.075
4832,0.145,-0.065
4833,0.145,-0.065
4834,0.145,-0.065
4835,0.135,-0.065
4836,0.155,-0.005
4837,0.155,0.125
4838,0.365,0.235
4839,0.755,0.075
4840,1.155,0.075
4841,0.835,-0.345
4842,0.055,-0.335
4843,-0.105,-0.125
4844,0.055,-0.025
4845,0.125,-0.015
4846,0.125,-0.015
4847,0.125,-0.025
4848,0.135,-0.015
4849,0.135,-0.015
4850,0.135,-0.015
4851,0.145,-0.015
4852,0.165,-0.005
4853,0.165,0.005
4854,0.175,0.005
4855,0.195,0.025
4856,0.205,0.025
4857,0.215,0.045
4858,0.235,0.045
4859,0.245,0.055
4860,0.275,0.085
4861,0.305,0.105
4862,0.335,0.125
4863,0.375,0.145
4864,0.395,0.165
4865,0.425,0.185
4866,0.425,0.185
4867,0.425,0.185
4868,0.415,0.185
4869,0.405,0.185
4870,0.395,0.165
4871,0.375,0.155
4872,0.315,0.105
4873,0.275,0.085
4874,0.225,0.025
4875,0.165,0.005
4876,0.135,-0.015
4877,0.115,-0.025
4878,0.095,-0.045
4879,0.085,-0.055
4880,0.075,-0.055
4881,0.065,-0.055
4882,0.065,-0.055
4883,0.065,-0.055
4884,0.075,-0.055
4885,0.075,-0.055
4886,0.085,-0.045
4887,0.085,-0.045
4888,0.085,-0.055
4889,0.075,-0.045
4890,0.085,-0.055
4891,0.065,-0.055
4892,0.065,-0.055
4893,0.075,-0.055
4894,0.065,-0.055
4895,0.065,-0.055
4896,0.055,-0.065
4897,0.055,-0.065
4898,0.045,-0.065
4899,0.035,-0.085
4900,0.035,-0.085
4901,0.035,-0.075
4902,0.035,-0.085
4903,0.045,-0.075
4904,0.045,-0.055
4905,0.085,-0.035
4906,0.085,-0.035
4907,0.085,-0.025
4908,0.115,-0.035
4909,0.105,-0.045
4910,0.135,-0.055
4911,0.125,-0.065
4912,0.105,-0.035
4913,0.085,-0.055
4914,0.025,-0.095
4915,-0.045,-0.115
4916,-0.035,-0.105
4917,-0.045,-0.105
4918,-0.035,-0.115
4919,-0.035,-0.115
4920,-0.035,-0.105
4921,-0.035,-0.105
4922,-0.025,-0.105
4923,-0.045,-0.015
4924,0.015,0.115
4925,0.245,0.185
4926,0.635,0.015
4927,0.995,-0.025
4928,0.445,-0.435
4929,-0.185,-0.345
4930,-0.245,-0.135
4931,-0.085,-0.055
4932,-0.025,-0.055
4933,-0.025,-0.045
4934,-0.035,-0.055
4935,-0.015,-0.045
4936,-0.025,-0.045
4937,-0.005,-0.035
4938,-0.005,-0.035
4939,0.015,-0.035
4940,0.015,-0.025
4941,0.035,-0.005
4942,0.045,-0.005
4943,0.065,-0.005
4944,0.085,0.015
4945,0.105,0.025
4946,0.115,0.025
4947,0.135,0.045
4948,0.165,0.065
4949,0.205,0.105
4950,0.235,0.125
4951,0.265,0.145
4952,0.295,0.155
4953,0.295,0.165
4954,0.305,0.165
4955,0.295,0.165
4956,0.295,0.165
4957,0.285,0.155
4958,0.255,0.125
4959,0.225,0.095
4960,0.165,0.055
4961,0.115,0.015
4962,0.065,-0.015
4963,0.025,-0.045
4964,-0.005,-0.065
4965,-0.015,-0.055
4966,-0.025,-0.075
4967,-0.025,-0.075
4968,-0.035,-0.075
4969,-0.035,-0.075
4970,-0.025,-0.075
4971,-0.025,-0.085
4972,-0.025,-0.075
4973,-0.025,-0.075
4974,-0.015,-0.075
4975,-0.015,-0.065
4976,-0.005,-0.065
4977,-0.025,-0.065
4978,-0.015,-0.075
4979,-0.035,-0.075
4980,-0.025,-0.075
4981,-0.025,-0.075
4982,-0.035,-0.085
4983,-0.035,-0.085
4984,-0.035,-0.085
4985,-0.035,-0.085
4986,-0.035,-0.095
4987,-0.055,-0.095
4988,-0.045,-0.095
4989,-0.055,-0.095
4990,-0.055,-0.095
4991,-0.045,-0.095
4992,-0.045,-0.075
4993,-0.015,-0.055
4994,-0.005,-0.065
4995,-0.015,-0.055
4996,0.015,-0.055
4997,0.035,-0.055
4998,0.055,-0.065
4999,0.065,-0.075
5000,0.055,-0.055
5001,0.035,-0.075
5002,-0.035,-0.115
5003,-0.105,-0.135
5004,-0.115,-0.125
5005,-0.115,-0.115
5006,-0.115,-0.125
5007,-0.115,-0.125
5008,-0.125,-0.125
5009,-0.125,-0.115
5010,-0.115,-0.125
5011,-0.115,-0.095
5012,-0.105,0.015
5013,0.015,0.185
5014,0.375,0.035
5015,0.805,0.025
5016,0.685,-0.355
5017,-0.105,-0.425
5018,-0.355,-0.235
5019,-0.215,-0.095
5020,-0.105,-0.075
5021,-0.115,-0.075
5022,-0.105,-0.075
5023,-0.105,-0.085
5024,-0.095,-0.075
5025,-0.095,-0.065
5026,-0.085,-0.075
5027,-0.075,-0.065
5028,-0.065,-0.055
5029,-0.055,-0.045
5030,-0.045,-0.035
5031,-0.015,-0.025
5032,-0.015,-0.025
5033,0.005,-0.005
5034,0.025,0.005
5035,0.055,0.025
5036,0.085,0.025
5037,0.105,0.065
5038,0.145,0.085
5039,0.185,0.105
5040,0.215,0.105
5041,0.225,0.125
5042,0.235,0.125
5043,0.225,0.125
5044,0.225,0.125
5045,0.225,0.135
5046,0.205,0.115
5047,0.175,0.085
5048,0.135,0.045
5049,0.085,0.015
5050,0.025,-0.025
5051,-0.025,-0.055
5052,-0.055,-0.075
5053,-0.075,-0.095
5054,-0.105,-0.105
5055,-0.105,-0.105
5056,-0.115,-0.105
5057,-0.105,-0.105
5058,-0.105,-0.105
5059,-0.115,-0.115
5060,-0.105,-0.105
5061,-0.095,-0.105
5062,-0.105,-0.105
5063,-0.085,-0.105
5064,-0.085,-0.105
5065,-0.085,-0.105
5066,-0.095,-0.105
5067,-0.115,-0.105
5068,-0.105,-0.105
5069,-0.105,-0.105
5070,-0.105,-0.115
5071,-0.105,-0.105
5072,-0.105,-0.105
5073,-0.105,-0.115
5074,-0.105,-0.115
5075,-0.115,-0.115
5076,-0.115,-0.115
5077,-0.115,-0.115
5078,-0.115,-0.115
5079,-0.115,-0.115
5080,-0.105,-0.105
5081,-0.075,-0.095
5082,-0.075,-0.085
5083,-0.065,-0.085
5084,-0.035,-0.095
5085,-0.025,-0.085
5086,0.005,-0.095
5087,-0.005,-0.085
5088,-0.025,-0.075
5089,-0.045,-0.115
5090,-0.125,-0.145
5091,-0.165,-0.155
5092,-0.175,-0.145
5093,-0.175,-0.145
5094,-0.175,-0.135
5095,-0.165,-0.145
5096,-0.175,-0.145
5097,-0.175,-0.135
5098,-0.165,-0.145
5099,-0.175,-0.045
5100,-0.115,0.085
5101,0.115,0.135
5102,0.485,0.025
5103,0.825,-0.015
5104,0.385,-0.385
5105,-0.295,-0.385
5106,-0.405,-0.235
5107,-0.295,-0.135
5108,-0.185,-0.095
5109,-0.155,-0.095
5110,-0.155,-0.095
5111,-0.155,-0.095
5112,-0.145,-0.095
5113,-0.135,-0.085
5114,-0.125,-0.085
5115,-0.115,-0.075
5116,-0.095,-0.075
5117,-0.085,-0.065
5118,-0.075,-0.055
5119,-0.045,-0.045
5120,-0.045,-0.045
5121,-0.015,-0.035
5122,-0.005,-0.015
5123,0.015,-0.015
5124,0.045,0.005
5125,0.085,0.025
5126,0.105,0.045
5127,0.135,0.065
5128,0.165,0.065
5129,0.185,0.085
5130,0.195,0.095
5131,0.205,0.105
5132,0.205,0.105
5133,0.195,0.105
5134,0.175,0.085
5135,0.145,0.075
5136,0.115,0.045
5137,0.055,0.005
5138,-0.005,-0.025
5139,-0.045,-0.065
5140,-0.075,-0.075
5141,-0.095,-0.095
5142,-0.115,-0.105
5143,-0.125,-0.105
5144,-0.125,-0.105
5145,-0.125,-0.095
5146,-0.125,-0.105
5147,-0.135,-0.105
5148,-0.125,-0.105
5149,-0.115,-0.095
5150,-0.115,-0.105
5151,-0.105,-0.095
5152,-0.105,-0.095
5153,-0.095,-0.095
5154,-0.095,-0.105
5155,-0.115,-0.115
5156,-0.105,-0.115
5157,-0.105,-0.105
5158,-0.105,-0.115
5159,-0.095,-0.115
5160,-0.115,-0.125
5161,-0.115,-0.115
5162,-0.125,-0.125
5163,-0.135,-0.135
5164,-0.125,-0.125
5165,-0.115,-0.115
5166,-0.095,-0.105
5167,-0.075,-0.085
5168,-0.055,-0.075
5169,-0.045,-0.075
5170,-0.055,-0.085
5171,-0.045,-0.105
5172,-0.015,-0.105
5173,-0.025,-0.095
5174,-0.035,-0.085
5175,-0.055,-0.125
5176,-0.125,-0.145
5177,-0.165,-0.145
5178,-0.165,-0.155
5179,-0.175,-0.145
5180,-0.175,-0.145
5181,-0.165,-0.135
5182,-0.165,-0.125
5183,-0.155,-0.135
5184,-0.155,-0.105
5185,-0.155,0.005
5186,-0.045,0.155
5187,0.305,0.065
5188,0.705,0.025
5189,0.795,-0.185
5190,0.005,-0.425
5191,-0.395,-0.285
5192,-0.295,-0.125
5193,-0.185,-0.085
5194,-0.155,-0.095
5195,-0.155,-0.095
5196,-0.145,-0.095
5197,-0.135,-0.085
5198,-0.125,-0.085
5199,-0.105,-0.075
5200,-0.095,-0.075
5201,-0.095,-0.065
5202,-0.085,-0.065
5203,-0.065,-0.045
5204,-0.055,-0.045
5205,-0.035,-0.035
5206,-0.015,-0.015
5207,0.005,-0.015
5208,0.035,0.005
5209,0.055,0.025
5210,0.085,0.035
5211,0.105,0.055
5212,0.155,0.085
5213,0.185,0.085
5214,0.195,0.105
5215,0.205,0.105
5216,0.205,0.105
5217,0.195,0.105
5218,0.185,0.105
5219,0.175,0.085
5220,0.135,0.065
5221,0.105,0.045
5222,0.065,0.005
5223,0.015,-0.035
5224,-0.035,-0.065
5225,-0.065,-0.085
5226,-0.085,-0.095
5227,-0.105,-0.105
5228,-0.105,-0.105
5229,-0.115,-0.105
5230,-0.115,-0.105
5231,-0.105,-0.105
5232,-0.105,-0.115
5233,-0.105,-0.095
5234,-0.095,-0.095
5235,-0.105,-0.105
5236,-0.095,-0.105
5237,-0.085,-0.105
5238,-0.085,-0.095
5239,-0.085,-0.105
5240,-0.085,-0.105
5241,-0.095,-0.095
5242,-0.095,-0.105
5243,-0.095,-0.105
5244,-0.095,-0.105
5245,-0.105,-0.105
5246,-0.105,-0.105
5247,-0.095,-0.115
5248,-0.105,-0.115
5249,-0.105,-0.115
5250,-0.095,-0.095
5251,-0.075,-0.085
5252,-0.045,-0.075
5253,-0.035,-0.075
5254,-0.035,-0.065
5255,-0.015,-0.075
5256,-0.005,-0.095
5257,0.015,-0.105
5258,-0.015,-0.095
5259,-0.035,-0.095
5260,-0.055,-0.125
5261,-0.125,-0.145
5262,-0.165,-0.155
5263,-0.155,-0.145
5264,-0.155,-0.145
5265,-0.175,-0.145
5266,-0.175,-0.145
5267,-0.175,-0.145
5268,-0.145,-0.145
5269,-0.145,-0.105
5270,-0.145,0.015
5271,-0.035,0.185
5272,0.295,0.055
5273,0.705,0.005
5274,0.855,-0.225
5275,0.045,-0.505
5276,-0.375,-0.305
5277,-0.285,-0.095
5278,-0.165,-0.085
5279,-0.135,-0.085
5280,-0.145,-0.095
5281,-0.155,-0.085
5282,-0.155,-0.075
5283,-0.135,-0.085
5284,-0.125,-0.085
5285,-0.115,-0.065
5286,-0.115,-0.045
5287,-0.085,-0.045
5288,-0.085,-0.045
5289,-0.065,-0.035
5290,-0.045,-0.025
5291,-0.025,-0.015
5292,-0.005,0.005
5293,0.015,0.025
5294,0.055,0.055
5295,0.095,0.085
5296,0.125,0.085
5297,0.145,0.125
5298,0.175,0.135
5299,0.185,0.145
5300,0.205,0.155
5301,0.195,0.155
5302,0.185,0.155
5303,0.185,0.145
5304,0.175,0.125
5305,0.125,0.105
5306,0.085,0.065
5307,0.035,0.005
5308,-0.015,-0.025
5309,-0.055,-0.055
5310,-0.095,-0.075
5311,-0.105,-0.085
5312,-0.125,-0.095
5313,-0.135,-0.105
5314,-0.145,-0.115
5315,-0.145,-0.115
5316,-0.135,-0.105
5317,-0.125,-0.105
5318,-0.125,-0.105
5319,-0.115,-0.105
5320,-0.125,-0.105
5321,-0.125,-0.095
5322,-0.125,-0.095
5323,-0.115,-0.105
5324,-0.105,-0.105
5325,-0.105,-0.105
5326,-0.115,-0.105
5327,-0.105,-0.105
5328,-0.115,-0.105
5329,-0.135,-0.105
5330,-0.135,-0.115
5331,-0.135,-0.115
5332,-0.125,-0.115
5333,-0.135,-0.115
5334,-0.125,-0.115
5335,-0.125,-0.115
5336,-0.125,-0.105
5337,-0.115,-0.095
5338,-0.085,-0.085
5339,-0.085,-0.075
5340,-0.065,-0.065
5341,-0.045,-0.085
5342,-0.035,-0.085
5343,0.005,-0.095
5344,-0.025,-0.085
5345,-0.025,-0.065
5346,-0.055,-0.085
5347,-0.125,-0.125
5348,-0.175,-0.165
5349,-0.195,-0.145
5350,-0.205,-0.145
5351,-0.195,-0.145
5352,-0.195,-0.155
5353,-0.185,-0.135
5354,-0.185,-0.145
5355,-0.195,-0.155
5356,-0.165,-0.035
5357,-0.105,0.135
5358,0.175,0.115
5359,0.575,-0.015
5360,0.885,-0.195
5361,0.135,-0.545
5362,-0.405,-0.375
5363,-0.375,-0.175
5364,-0.225,-0.115
5365,-0.175,-0.105
5366,-0.165,-0.095
5367,-0.175,-0.105
5368,-0.165,-0.105
5369,-0.145,-0.085
5370,-0.135,-0.085
5371,-0.145,-0.085
5372,-0.115,-0.065
5373,-0.105,-0.065
5374,-0.075,-0.055
5375,-0.065,-0.045
5376,-0.065,-0.035
5377,-0.035,-0.025
5378,-0.005,-0.015
5379,0.005,0.005
5380,0.045,0.025
5381,0.065,0.045
5382,0.095,0.065
5383,0.135,0.095
5384,0.165,0.125
5385,0.185,0.145
5386,0.195,0.145
5387,0.195,0.145
5388,0.205,0.145
5389,0.185,0.125
5390,0.175,0.115
5391,0.155,0.075
5392,0.105,0.025
5393,0.065,-0.005
5394,0.015,-0.055
5395,-0.045,-0.085
5396,-0.055,-0.105
5397,-0.085,-0.115
5398,-0.095,-0.135
5399,-0.105,-0.135
5400,-0.105,-0.135
5401,-0.115,-0.135
5402,-0.105,-0.145
5403,-0.115,-0.135
5404,-0.105,-0.125
5405,-0.095,-0.115
5406,-0.085,-0.125
5407,-0.085,-0.125
5408,-0.095,-0.125
5409,-0.095,-0.115
5410,-0.085,-0.125
5411,-0.085,-0.135
5412,-0.075,-0.125
5413,-0.075,-0.125
5414,-0.085,-0.125
5415,-0.075,-0.125
5416,-0.085,-0.125
5417,-0.075,-0.125
5418,-0.085,-0.125
5419,-0.085,-0.135
5420,-0.075,-0.115
5421,-0.055,-0.095
5422,-0.035,-0.085
5423,-0.005,-0.075
5424,0.005,-0.085
5425,-0.015,-0.085
5426,0.025,-0.105
5427,0.035,-0.105
5428,0.015,-0.095
5429,0.005,-0.075
5430,-0.015,-0.125
5431,-0.075,-0.145
5432,-0.125,-0.155
5433,-0.135,-0.155
5434,-0.135,-0.155
5435,-0.145,-0.175
5436,-0.135,-0.165
5437,-0.125,-0.145
5438,-0.135,-0.155
5439,-0.125,-0.135
5440,-0.135,-0.005
5441,-0.015,0.185
5442,0.315,0.065
5443,0.695,-0.015
5444,0.895,-0.255
5445,0.065,-0.515
5446,-0.365,-0.325
5447,-0.285,-0.145
5448,-0.155,-0.115
5449,-0.125,-0.105
5450,-0.125,-0.105
5451,-0.135,-0.095
5452,-0.115,-0.095
5453,-0.105,-0.085
5454,-0.095,-0.075
5455,-0.085,-0.085
5456,-0.065,-0.075
5457,-0.055,-0.065
5458,-0.045,-0.075
5459,-0.035,-0.065
5460,-0.015,-0.045
5461,0.005,-0.025
5462,0.025,-0.015
5463,0.055,0.005
5464,0.075,0.035
5465,0.115,0.045
5466,0.135,0.075
5467,0.155,0.095
5468,0.185,0.105
5469,0.185,0.115
5470,0.195,0.115
5471,0.195,0.115
5472,0.195,0.105
5473,0.185,0.095
5474,0.165,0.075
5475,0.125,0.045
5476,0.095,-0.005
5477,0.055,-0.035
5478,0.005,-0.085
5479,-0.025,-0.105
5480,-0.065,-0.125
5481,-0.085,-0.125
5482,-0.095,-0.145
5483,-0.105,-0.145
5484,-0.085,-0.135
5485,-0.095,-0.135
5486,-0.085,-0.135
5487,-0.075,-0.135
5488,-0.075,-0.125
5489,-0.075,-0.125
5490,-0.065,-0.135
5491,-0.065,-0.135
5492,-0.055,-0.135
5493,-0.065,-0.125
5494,-0.065,-0.125
5495,-0.045,-0.135
5496,-0.065,-0.135
5497,-0.065,-0.125
5498,-0.075,-0.135
5499,-0.075,-0.135
5500,-0.065,-0.135
5501,-0.075,-0.135
5502,-0.075,-0.135
5503,-0.075,-0.135
5504,-0.055,-0.115
5505,-0.025,-0.085
5506,-0.005,-0.085
5507,0.015,-0.085
5508,0.005,-0.095
5509,0.015,-0.105
5510,0.045,-0.115
5511,0.025,-0.105
5512,-0.005,-0.105
5513,-0.005,-0.125
5514,-0.075,-0.155
5515,-0.135,-0.175
5516,-0.135,-0.165
5517,-0.135,-0.155
5518,-0.125,-0.165
5519,-0.125,-0.165
5520,-0.125,-0.165
5521,-0.125,-0.155
5522,-0.115,-0.145
5523,-0.135,-0.005
5524,-0.015,0.175
5525,0.345,0.005
5526,0.795,-0.035
5527,0.945,-0.375
5528,0.035,-0.545
5529,-0.355,-0.315
5530,-0.265,-0.145
5531,-0.155,-0.115
5532,-0.115,-0.115
5533,-0.115,-0.105
5534,-0.115,-0.105
5535,-0.105,-0.095
5536,-0.095,-0.095
5537,-0.085,-0.085
5538,-0.075,-0.075
5539,-0.075,-0.075
5540,-0.065,-0.065
5541,-0.055,-0.055
5542,-0.035,-0.045
5543,-0.015,-0.025
5544,0.005,-0.015
5545,0.025,0.005
5546,0.035,0.025
5547,0.055,0.025
5548,0.095,0.065
5549,0.125,0.095
5550,0.165,0.115
5551,0.185,0.125
5552,0.195,0.135
5553,0.195,0.145
5554,0.195,0.135
5555,0.175,0.125
5556,0.175,0.115
5557,0.155,0.095
5558,0.115,0.055
5559,0.085,0.005
5560,0.025,-0.025
5561,-0.025,-0.065
5562,-0.055,-0.095
5563,-0.075,-0.115
5564,-0.095,-0.135
5565,-0.115,-0.135
5566,-0.115,-0.135
5567,-0.115,-0.135
5568,-0.105,-0.135
5569,-0.105,-0.125
5570,-0.105,-0.125
5571,-0.095,-0.135
5572,-0.085,-0.125
5573,-0.075,-0.115
5574,-0.085,-0.115
5575,-0.065,-0.125
5576,-0.085,-0.125
5577,-0.085,-0.125
5578,-0.085,-0.125
5579,-0.085,-0.125
5580,-0.085,-0.125
5581,-0.085,-0.125
5582,-0.085,-0.125
5583,-0.075,-0.135
5584,-0.095,-0.125
5585,-0.095,-0.125
5586,-0.095,-0.135
5587,-0.095,-0.125
5588,-0.075,-0.105
5589,-0.045,-0.075
5590,-0.025,-0.065
5591,-0.005,-0.065
5592,0.005,-0.065
5593,0.005,-0.075
5594,0.035,-0.085
5595,0.045,-0.105
5596,0.025,-0.085
5597,0.005,-0.065
5598,-0.015,-0.105
5599,-0.065,-0.145
5600,-0.125,-0.155
5601,-0.125,-0.145
5602,-0.125,-0.145
5603,-0.135,-0.155
5604,-0.125,-0.145
5605,-0.115,-0.145
5606,-0.105,-0.145
5607,-0.095,-0.125
5608,-0.095,0.005
5609,-0.005,0.195
5610,0.315,0.065
5611,0.695,-0.025
5612,0.945,-0.245
5613,0.145,-0.545
5614,-0.315,-0.345
5615,-0.275,-0.125
5616,-0.125,-0.095
5617,-0.105,-0.095
5618,-0.105,-0.085
5619,-0.105,-0.095
5620,-0.105,-0.085
5621,-0.095,-0.075
5622,-0.075,-0.075
5623,-0.075,-0.055
5624,-0.055,-0.055
5625,-0.045,-0.055
5626,-0.035,-0.035
5627,-0.025,-0.035
5628,-0.015,-0.015
5629,0.025,-0.005
5630,0.035,0.005
5631,0.065,0.025
5632,0.085,0.035
5633,0.125,0.065
5634,0.145,0.085
5635,0.175,0.105
5636,0.205,0.125
5637,0.225,0.145
5638,0.235,0.145
5639,0.235,0.145
5640,0.225,0.125
5641,0.215,0.125
5642,0.195,0.105
5643,0.145,0.065
5644,0.115,0.025
5645,0.055,-0.025
5646,0.015,-0.065
5647,-0.015,-0.095
5648,-0.055,-0.115
5649,-0.075,-0.105
5650,-0.085,-0.125
5651,-0.105,-0.135
5652,-0.085,-0.125
5653,-0.095,-0.125
5654,-0.085,-0.125
5655,-0.085,-0.125
5656,-0.075,-0.125
5657,-0.065,-0.115
5658,-0.075,-0.125
5659,-0.085,-0.125
5660,-0.065,-0.115
5661,-0.065,-0.115
5662,-0.075,-0.115
5663,-0.075,-0.115
5664,-0.075,-0.115
5665,-0.085,-0.115
5666,-0.085,-0.125
5667,-0.085,-0.125
5668,-0.085,-0.125
5669,-0.085,-0.115
5670,-0.095,-0.125
5671,-0.095,-0.115
5672,-0.075,-0.095
5673,-0.055,-0.085
5674,-0.035,-0.075
5675,-0.025,-0.065
5676,-0.005,-0.075
5677,-0.015,-0.085
5678,0.015,-0.095
5679,0.025,-0.105
5680,-0.005,-0.095
5681,-0.025,-0.085
5682,-0.055,-0.135
5683,-0.135,-0.165
5684,-0.155,-0.165
5685,-0.155,-0.155
5686,-0.145,-0.165
5687,-0.165,-0.165
5688,-0.165,-0.165
5689,-0.165,-0.155
5690,-0.155,-0.165
5691,-0.155,-0.145
5692,-0.145,-0.005
5693,-0.045,0.185
5694,0.305,0.035
5695,0.715,-0.015
5696,0.835,-0.295
5697,-0.005,-0.535
5698,-0.405,-0.335
5699,-0.305,-0.155
5700,-0.175,-0.115
5701,-0.145,-0.105
5702,-0.155,-0.115
5703,-0.165,-0.105
5704,-0.155,-0.115
5705,-0.135,-0.095
5706,-0.125,-0.095
5707,-0.125,-0.095
5708,-0.105,-0.085
5709,-0.095,-0.075
5710,-0.085,-0.065
5711,-0.065,-0.055
5712,-0.045,-0.045
5713,-0.045,-0.025
5714,-0.005,-0.015
5715,0.005,-0.005
5716,0.045,0.025
5717,0.065,0.055
5718,0.095,0.065
5719,0.135,0.095
5720,0.165,0.105
5721,0.165,0.125
5722,0.175,0.125
5723,0.165,0.125
5724,0.165,0.125
5725,0.165,0.115
5726,0.145,0.095
5727,0.115,0.055
5728,0.075,0.025
5729,0.025,-0.025
5730,-0.025,-0.065
5731,-0.075,-0.095
5732,-0.095,-0.105
5733,-0.115,-0.125
5734,-0.135,-0.135
5735,-0.135,-0.135
5736,-0.135,-0.135
5737,-0.135,-0.125
5738,-0.135,-0.135
5739,-0.135,-0.135
5740,-0.115,-0.125
5741,-0.115,-0.125
5742,-0.105,-0.125
5743,-0.115,-0.125
5744,-0.115,-0.115
5745,-0.115,-0.115
5746,-0.105,-0.125
5747,-0.115,-0.125
5748,-0.105,-0.125
5749,-0.115,-0.115
5750,-0.115,-0.125
5751,-0.125,-0.125
5752,-0.115,-0.115
5753,-0.135,-0.125
5754,-0.135,-0.125
5755,-0.125,-0.125
5756,-0.115,-0.125
5757,-0.105,-0.095
5758,-0.075,-0.075
5759,-0.055,-0.085
5760,-0.055,-0.065
5761,-0.035,-0.075
5762,-0.035,-0.085
5763,-0.005,-0.105
5764,-0.015,-0.095
5765,-0.025,-0.075
5766,-0.055,-0.105
5767,-0.115,-0.155
5768,-0.185,-0.165
5769,-0.185,-0.165
5770,-0.195,-0.165
5771,-0.195,-0.165
5772,-0.185,-0.165
5773,-0.185,-0.155
5774,-0.195,-0.145
5775,-0.165,-0.155
5776,-0.185,-0.025
5777,-0.105,0.145
5778,0.195,0.095
5779,0.615,-0.025
5780,0.925,-0.225
5781,0.185,-0.565
5782,-0.365,-0.355
5783,-0.325,-0.135
5784,-0.195,-0.095
5785,-0.165,-0.095
5786,-0.175,-0.095
5787,-0.175,-0.105
5788,-0.165,-0.095
5789,-0.165,-0.095
5790,-0.145,-0.075
5791,-0.125,-0.075
5792,-0.115,-0.065
5793,-0.105,-0.045
5794,-0.085,-0.045
5795,-0.075,-0.055
5796,-0.065,-0.035
5797,-0.035,-0.015
5798,-0.025,0.005
5799,0.005,0.015
5800,0.025,0.035
5801,0.055,0.065
5802,0.085,0.085
5803,0.105,0.105
5804,0.145,0.125
5805,0.165,0.145
5806,0.165,0.145
5807,0.175,0.155
5808,0.175,0.155
5809,0.175,0.155
5810,0.155,0.135
5811,0.135,0.115
5812,0.115,0.075
5813,0.055,0.035
5814,0.015,-0.005
5815,-0.025,-0.055
5816,-0.065,-0.085
5817,-0.095,-0.095
5818,-0.105,-0.115
5819,-0.125,-0.115
5820,-0.125,-0.115
5821,-0.115,-0.105
5822,-0.105,-0.105
5823,-0.105,-0.105
5824,-0.095,-0.105
5825,-0.095,-0.105
5826,-0.085,-0.105
5827,-0.095,-0.105
5828,-0.085,-0.105
5829,-0.065,-0.095
5830,-0.085,-0.095
5831,-0.085,-0.105
5832,-0.085,-0.105
5833,-0.085,-0.095
5834,-0.095,-0.105
5835,-0.105,-0.105
5836,-0.085,-0.115
5837,-0.095,-0.115
5838,-0.095,-0.105
5839,-0.095,-0.115
5840,-0.085,-0.095
5841,-0.065,-0.075
5842,-0.045,-0.065
5843,-0.045,-0.075
5844,-0.015,-0.075
5845,-0.035,-0.075
5846,0.005,-0.095
5847,0.015,-0.115
5848,-0.005,-0.085
5849,-0.025,-0.075
5850,-0.065,-0.125
5851,-0.135,-0.155
5852,-0.175,-0.165
5853,-0.155,-0.145
5854,-0.165,-0.155
5855,-0.155,-0.165
5856,-0.175,-0.175
5857,-0.155,-0.155
5858,-0.155,-0.155
5859,-0.165,-0.115
5860,-0.165,-0.005
5861,-0.015,0.165
5862,0.355,-0.005
5863,0.815,-0.015
5864,0.565,-0.465
5865,-0.215,-0.465
5866,-0.395,-0.235
5867,-0.245,-0.125
5868,-0.145,-0.105
5869,-0.155,-0.105
5870,-0.165,-0.105
5871,-0.155,-0.105
5872,-0.145,-0.095
5873,-0.135,-0.085
5874,-0.115,-0.095
5875,-0.125,-0.095
5876,-0.085,-0.085
5877,-0.085,-0.065
5878,-0.075,-0.055
5879,-0.045,-0.045
5880,-0.025,-0.035
5881,-0.015,-0.015
5882,0.005,-0.015
5883,0.035,0.015
5884,0.055,0.025
5885,0.075,0.045
5886,0.125,0.075
5887,0.145,0.105
5888,0.165,0.105
5889,0.165,0.125
5890,0.175,0.135
5891,0.185,0.115
5892,0.155,0.095
5893,0.145,0.105
5894,0.135,0.085
5895,0.105,0.035
5896,0.045,0.005
5897,0.015,-0.035
5898,-0.035,-0.075
5899,-0.065,-0.115
5900,-0.085,-0.105
5901,-0.105,-0.095
5902,-0.115,-0.135
5903,-0.095,-0.125
5904,-0.115,-0.115
5905,-0.115,-0.125
5906,-0.115,-0.125
5907,-0.105,-0.115
5908,-0.105,-0.115
5909,-0.095,-0.115
5910,-0.095,-0.115
5911,-0.105,-0.105
5912,-0.105,-0.115
5913,-0.105,-0.125
5914,-0.105,-0.115
5915,-0.115,-0.125
5916,-0.105,-0.135
5917,-0.105,-0.115
5918,-0.115,-0.115
5919,-0.125,-0.125
5920,-0.115,-0.145
5921,-0.125,-0.115
5922,-0.105,-0.105
5923,-0.075,-0.095
5924,-0.065,-0.085
5925,-0.055,-0.085
5926,-0.045,-0.095
5927,-0.025,-0.115
5928,0.005,-0.115
5929,-0.015,-0.105
5930,-0.045,-0.105
5931,-0.065,-0.135
5932,-0.125,-0.165
5933,-0.155,-0.175
5934,-0.175,-0.175
5935,-0.175,-0.165
5936,-0.165,-0.175
5937,-0.165,-0.155
5938,-0.165,-0.175
5939,-0.165,-0.165
5940,-0.155,-0.155
5941,-0.175,-0.045
5942,-0.105,0.115
5943,0.185,0.025
5944,0.605,0.005
5945,0.745,-0.285
5946,0.015,-0.525
5947,-0.395,-0.325
5948,-0.305,-0.145
5949,-0.185,-0.115
5950,-0.145,-0.105
5951,-0.145,-0.125
5952,-0.175,-0.135
5953,-0.155,-0.105
5954,-0.155,-0.115
5955,-0.135,-0.105
5956,-0.125,-0.105
5957,-0.105,-0.085
5958,-0.095,-0.075
5959,-0.085,-0.065
5960,-0.065,-0.055
5961,-0.045,-0.045
5962,-0.045,-0.035
5963,-0.025,-0.035
5964,0.005,-0.005
5965,0.035,0.015
5966,0.065,0.035
5967,0.085,0.055
5968,0.115,0.075
5969,0.135,0.085
5970,0.135,0.105
5971,0.145,0.095
5972,0.145,0.095
5973,0.145,0.105
5974,0.135,0.085
5975,0.115,0.075
5976,0.095,0.045
5977,0.065,0.005
5978,0.015,-0.025
5979,-0.035,-0.075
5980,-0.065,-0.095
5981,-0.095,-0.105
5982,-0.115,-0.125
5983,-0.125,-0.135
5984,-0.125,-0.135
5985,-0.125,-0.125
5986,-0.125,-0.135
5987,-0.115,-0.135
5988,-0.115,-0.135
5989,-0.115,-0.125
5990,-0.115,-0.115
5991,-0.105,-0.115
5992,-0.105,-0.125
5993,-0.105,-0.115
5994,-0.095,-0.125
5995,-0.095,-0.125
5996,-0.095,-0.135
5997,-0.105,-0.135
5998,-0.125,-0.135
5999,-0.095,-0.135
6000,-0.115,-0.135
6001,-0.115,-0.135
6002,-0.115,-0.125
6003,-0.085,-0.105
6004,-0.075,-0.095
6005,-0.075,-0.085
6006,-0.055,-0.105
6007,-0.055,-0.115
6008,-0.015,-0.115
6009,-0.015,-0.135
6010,-0.035,-0.115
6011,-0.075,-0.125
6012,-0.105,-0.155
6013,-0.165,-0.175
6014,-0.185,-0.175
6015,-0.175,-0.175
6016,-0.185,-0.185
6017,-0.195,-0.175
6018,-0.195,-0.175
6019,-0.185,-0.165
6020,-0.195,-0.165
6021,-0.195,-0.105
6022,-0.195,-0.005
6023,-0.035,0.145
6024,0.335,0.005
6025,0.755,-0.005
6026,0.415,-0.435
6027,-0.275,-0.475
6028,-0.425,-0.295
6029,-0.325,-0.165
6030,-0.225,-0.145
6031,-0.215,-0.145
6032,-0.215,-0.135
6033,-0.215,-0.125
6034,-0.195,-0.135
6035,-0.195,-0.135
6036,-0.175,-0.115
6037,-0.175,-0.115
6038,-0.145,-0.115
6039,-0.135,-0.105
6040,-0.125,-0.085
6041,-0.105,-0.085
6042,-0.085,-0.075
6043,-0.085,-0.065
6044,-0.045,-0.055
6045,-0.015,-0.035
6046,0.015,-0.015
6047,0.045,0.015
6048,0.055,0.025
6049,0.105,0.065
6050,0.125,0.085
6051,0.105,0.085
6052,0.135,0.085
6053,0.145,0.095
6054,0.135,0.085
6055,0.115,0.075
6056,0.115,0.045
6057,0.085,0.035
6058,0.035,0.005
6059,-0.015,-0.045
6060,-0.035,-0.075
6061,-0.075,-0.095
6062,-0.115,-0.115
6063,-0.115,-0.125
6064,-0.115,-0.135
6065,-0.135,-0.135
6066,-0.125,-0.135
6067,-0.135,-0.135
6068,-0.125,-0.135
6069,-0.115,-0.115
6070,-0.095,-0.115
6071,-0.105,-0.115
6072,-0.105,-0.115
6073,-0.095,-0.105
6074,-0.085,-0.105
6075,-0.105,-0.115
6076,-0.095,-0.105
6077,-0.085,-0.105
6078,-0.095,-0.105
6079,-0.095,-0.115
6080,-0.075,-0.095
6081,-0.065,-0.065
6082,-0.045,-0.065
6083,-0.015,-0.075
6084,-0.025,-0.065
6085,-0.015,-0.085
6086,0.015,-0.085
6087,0.005,-0.085
6088,-0.015,-0.075
6089,-0.045,-0.095
6090,-0.085,-0.125
6091,-0.145,-0.155
6092,-0.145,-0.145
6093,-0.145,-0.135
6094,-0.155,-0.145
6095,-0.145,-0.135
6096,-0.135,-0.135
6097,-0.125,-0.125
6098,-0.125,-0.105
6099,-0.135,0.005
6100,-0.025,0.185
6101,0.315,0.055
6102,0.785,0.025
6103,0.875,-0.275
6104,-0.015,-0.495
6105,-0.345,-0.285
6106,-0.235,-0.125
6107,-0.135,-0.105
6108,-0.125,-0.105
6109,-0.125,-0.095
6110,-0.125,-0.095
6111,-0.115,-0.105
6112,-0.105,-0.095
6113,-0.105,-0.095
6114,-0.095,-0.095
6115,-0.075,-0.095
6116,-0.065,-0.075
6117,-0.045,-0.065
6118,-0.045,-0.045
6119,-0.015,-0.045
6120,-0.005,-0.045
6121,0.025,-0.005
6122,0.045,-0.005
6123,0.065,0.025
6124,0.105,0.045
6125,0.125,0.075
6126,0.165,0.105
6127,0.185,0.125
6128,0.175,0.105
6129,0.195,0.135
6130,0.185,0.105
6131,0.175,0.105
6132,0.155,0.085
6133,0.145,0.085
6134,0.115,0.045
6135,0.075,0.015
6136,0.035,-0.025
6137,-0.005,-0.055
6138,-0.035,-0.075
6139,-0.065,-0.105
6140,-0.065,-0.115
6141,-0.075,-0.115
6142,-0.085,-0.105
6143,-0.085,-0.115
6144,-0.065,-0.115
6145,-0.065,-0.115
6146,-0.055,-0.115
6147,-0.055,-0.105
6148,-0.045,-0.115
6149,-0.035,-0.095
6150,-0.045,-0.095
6151,-0.035,-0.105
6152,-0.055,-0.095
6153,-0.025,-0.095
6154,-0.035,-0.105
6155,-0.035,-0.095
6156,-0.005,-0.055
6157,0.025,-0.035
6158,0.035,-0.045
6159,0.035,-0.045
6160,0.045,-0.055
6161,0.085,-0.065
6162,0.045,-0.075
6163,0.015,-0.055
6164,0.025,-0.085
6165,-0.055,-0.115
6166,-0.095,-0.115
6167,-0.095,-0.125
6168,-0.095,-0.125
6169,-0.105,-0.115
6170,-0.095,-0.125
6171,-0.095,-0.125
6172,-0.075,-0.125
6173,-0.085,-0.065
6174,-0.095,0.055
6175,0.125,0.135
6176,0.535,-0.015
6177,0.995,-0.015
6178,0.545,-0.485
6179,-0.185,-0.415
6180,-0.265,-0.155
6181,-0.125,-0.075
6182,-0.085,-0.075
6183,-0.085,-0.085
6184,-0.105,-0.085
6185,-0.095,-0.075
6186,-0.095,-0.075
6187,-0.085,-0.085
6188,-0.065,-0.065
6189,-0.055,-0.055
6190,-0.045,-0.045
6191,-0.035,-0.045
6192,-0.035,-0.035
6193,-0.015,-0.025
6194,-0.015,-0.015
6195,0.015,-0.005
6196,0.045,0.025
6197,0.065,0.045
6198,0.105,0.075
6199,0.135,0.095
6200,0.165,0.115
6201,0.185,0.125
6202,0.195,0.145
6203,0.195,0.135
6204,0.195,0.135
6205,0.195,0.125
6206,0.175,0.125
6207,0.175,0.095
6208,0.135,0.055
6209,0.105,0.025
6210,0.065,-0.015
6211,0.015,-0.055
6212,-0.015,-0.085
6213,-0.045,-0.095
6214,-0.075,-0.095
6215,-0.055,-0.115
6216,-0.075,-0.115
6217,-0.085,-0.115
6218,-0.085,-0.125
6219,-0.075,-0.125
6220,-0.085,-0.115
6221,-0.075,-0.115
6222,-0.065,-0.105
6223,-0.065,-0.105
6224,-0.065,-0.115
6225,-0.055,-0.105
6226,-0.065,-0.115
6227,-0.065,-0.115
6228,-0.055,-0.105
6229,-0.055,-0.105
6230,-0.055,-0.105
6231,-0.055,-0.085
6232,-0.035,-0.085
6233,-0.005,-0.055
6234,0.015,-0.055
6235,0.005,-0.055
6236,0.025,-0.065
6237,0.055,-0.085
6238,0.025,-0.095
6239,0.015,-0.085
6240,0.015,-0.085
6241,-0.015,-0.105
6242,-0.085,-0.145
6243,-0.135,-0.155
6244,-0.115,-0.145
6245,-0.125,-0.135
6246,-0.125,-0.145
6247,-0.125,-0.135
6248,-0.125,-0.155
6249,-0.125,-0.145
6250,-0.125,-0.055
6251,-0.115,0.065
6252,0.155,0.065
6253,0.595,0.005
6254,0.945,-0.125
6255,0.155,-0.525
6256,-0.335,-0.355
6257,-0.275,-0.135
6258,-0.135,-0.095
6259,-0.125,-0.115
6260,-0.145,-0.115
6261,-0.125,-0.095
6262,-0.105,-0.095
6263,-0.105,-0.095
6264,-0.105,-0.085
6265,-0.085,-0.075
6266,-0.075,-0.075
6267,-0.085,-0.055
6268,-0.045,-0.045
6269,-0.035,-0.025
6270,-0.025,-0.015
6271,-0.005,-0.005
6272,0.025,0.015
6273,0.045,0.025
6274,0.065,0.045
6275,0.095,0.055
6276,0.125,0.095
6277,0.155,0.115
6278,0.175,0.125
6279,0.185,0.135
6280,0.175,0.125
6281,0.175,0.125
6282,0.155,0.125
6283,0.155,0.105
6284,0.135,0.085
6285,0.095,0.045
6286,0.055,0.015
6287,0.015,-0.035
6288,-0.035,-0.075
6289,-0.065,-0.095
6290,-0.085,-0.105
6291,-0.095,-0.125
6292,-0.115,-0.125
6293,-0.115,-0.115
6294,-0.115,-0.125
6295,-0.125,-0.125
6296,-0.105,-0.115
6297,-0.105,-0.115
6298,-0.105,-0.115
6299,-0.105,-0.115
6300,-0.095,-0.115
6301,-0.085,-0.105
6302,-0.095,-0.105
6303,-0.095,-0.105
6304,-0.085,-0.105
6305,-0.095,-0.105
6306,-0.095,-0.105
6307,-0.085,-0.115
6308,-0.095,-0.115
6309,-0.085,-0.105
6310,-0.085,-0.085
6311,-0.045,-0.085
6312,-0.035,-0.065
6313,-0.005,-0.055
6314,-0.005,-0.065
6315,-0.015,-0.075
6316,0.015,-0.095
6317,0.025,-0.095
6318,0.005,-0.085
6319,-0.015,-0.075
6320,-0.025,-0.105
6321,-0.085,-0.145
6322,-0.135,-0.155
6323,-0.155,-0.155
6324,-0.135,-0.155
6325,-0.135,-0.165
6326,-0.145,-0.155
6327,-0.125,-0.145
6328,-0.105,-0.135
6329,-0.115,-0.115
6330,-0.145,-0.005
6331,-0.025,0.175
6332,0.375,0.005
6333,0.875,0.005
6334,0.735,-0.455
6335,-0.155,-0.475
6336,-0.345,-0.235
6337,-0.175,-0.105
6338,-0.135,-0.105
6339,-0.125,-0.105
6340,-0.125,-0.105
6341,-0.105,-0.095
6342,-0.115,-0.105
6343,-0.095,-0.085
6344,-0.075,-0.085
6345,-0.075,-0.075
6346,-0.055,-0.075
6347,-0.055,-0.065
6348,-0.025,-0.055
6349,-0.025,-0.025
6350,-0.005,-0.015
6351,0.035,-0.005
6352,0.045,0.015
6353,0.075,0.035
6354,0.105,0.065
6355,0.135,0.085
6356,0.155,0.085
6357,0.175,0.125
6358,0.185,0.135
6359,0.185,0.135
6360,0.185,0.125
6361,0.165,0.115
6362,0.165,0.105
6363,0.155,0.065
6364,0.125,0.045
6365,0.085,0.005
6366,0.055,-0.025
6367,0.005,-0.065
6368,-0.015,-0.095
6369,-0.055,-0.105
6370,-0.075,-0.125
6371,-0.075,-0.135
6372,-0.085,-0.135
6373,-0.085,-0.125
6374,-0.095,-0.125
6375,-0.075,-0.135
6376,-0.065,-0.125
6377,-0.065,-0.115
6378,-0.055,-0.105
6379,-0.055,-0.115
6380,-0.065,-0.105
6381,-0.055,-0.115
6382,-0.045,-0.105
6383,-0.045,-0.115
6384,-0.065,-0.125
6385,-0.075,-0.125
6386,-0.065,-0.135
6387,-0.075,-0.145
6388,-0.075,-0.135
6389,-0.075,-0.135
6390,-0.085,-0.135
6391,-0.075,-0.135
6392,-0.065,-0.125
6393,-0.045,-0.095
6394,-0.025,-0.095
6395,-0.015,-0.085
6396,0.005,-0.075
6397,0.005,-0.085
6398,0.035,-0.095
6399,0.045,-0.105
6400,0.025,-0.095
6401,0.025,-0.075
6402,-0.015,-0.125
6403,-0.085,-0.165
6404,-0.135,-0.165
6405,-0.135,-0.155
6406,-0.135,-0.165
6407,-0.125,-0.165
6408,-0.145,-0.165
6409,-0.135,-0.145
6410,-0.135,-0.155
6411,-0.115,-0.125
6412,-0.135,-0.025
6413,0.005,0.155
6414,0.345,0.025
6415,0.765,0.015
6416,0.865,-0.265
6417,0.015,-0.525
6418,-0.335,-0.345
6419,-0.275,-0.165
6420,-0.135,-0.115
6421,-0.125,-0.115
6422,-0.135,-0.105
6423,-0.125,-0.115
6424,-0.115,-0.105
6425,-0.115,-0.095
6426,-0.105,-0.105
6427,-0.105,-0.105
6428,-0.065,-0.095
6429,-0.065,-0.075
6430,-0.045,-0.065
6431,-0.035,-0.065
6432,-0.025,-0.045
6433,-0.005,-0.035
6434,-0.005,-0.025
6435,0.025,-0.015
6436,0.055,0.005
6437,0.095,0.035
6438,0.115,0.055
6439,0.155,0.085
6440,0.165,0.105
6441,0.175,0.105
6442,0.185,0.105
6443,0.165,0.105
6444,0.175,0.105
6445,0.175,0.095
6446,0.155,0.065
6447,0.135,0.035
6448,0.085,0.005
6449,0.035,-0.035
6450,-0.005,-0.075
6451,-0.045,-0.115
6452,-0.065,-0.135
6453,-0.085,-0.125
6454,-0.085,-0.135
6455,-0.095,-0.145
6456,-0.095,-0.145
6457,-0.095,-0.145
6458,-0.105,-0.145
6459,-0.105,-0.145
6460,-0.085,-0.145
6461,-0.075,-0.145
6462,-0.085,-0.135
6463,-0.075,-0.135
6464,-0.085,-0.135
6465,-0.085,-0.125
6466,-0.075,-0.135
6467,-0.095,-0.135
6468,-0.075,-0.145
6469,-0.085,-0.125
6470,-0.095,-0.135
6471,-0.075,-0.145
6472,-0.085,-0.145
6473,-0.095,-0.125
6474,-0.115,-0.145
6475,-0.095,-0.145
6476,-0.075,-0.125
6477,-0.045,-0.095
6478,-0.035,-0.095
6479,-0.035,-0.085
6480,-0.035,-0.075
6481,-0.005,-0.085
6482,0.015,-0.095
6483,0.015,-0.115
6484,0.015,-0.085
6485,-0.005,-0.085
6486,-0.045,-0.125
6487,-0.135,-0.165
6488,-0.155,-0.165
6489,-0.155,-0.165
6490,-0.165,-0.165
6491,-0.165,-0.165
6492,-0.145,-0.165
6493,-0.155,-0.155
6494,-0.155,-0.155
6495,-0.135,-0.145
6496,-0.155,-0.045
6497,-0.055,0.105
6498,0.275,0.035
6499,0.725,0.005
6500,0.825,-0.265
6501,-0.025,-0.465
6502,-0.375,-0.305
6503,-0.255,-0.155
6504,-0.155,-0.115
6505,-0.135,-0.105
6506,-0.145,-0.115
6507,-0.165,-0.115
6508,-0.145,-0.105
6509,-0.125,-0.095
6510,-0.135,-0.095
6511,-0.105,-0.085
6512,-0.105,-0.085
6513,-0.095,-0.065
6514,-0.085,-0.065
6515,-0.055,-0.055
6516,-0.045,-0.055
6517,-0.025,-0.025
6518,0.005,-0.015
6519,0.025,-0.005
6520,0.055,0.015
6521,0.075,0.045
6522,0.105,0.055
6523,0.125,0.075
6524,0.155,0.095
6525,0.175,0.115
6526,0.175,0.115
6527,0.175,0.115
6528,0.165,0.105
6529,0.155,0.095
6530,0.145,0.075
6531,0.115,0.045
6532,0.075,0.005
6533,0.055,-0.025
6534,0.005,-0.055
6535,-0.035,-0.085
6536,-0.065,-0.115
6537,-0.095,-0.125
6538,-0.105,-0.135
6539,-0.115,-0.135
6540,-0.125,-0.145
6541,-0.105,-0.135
6542,-0.105,-0.135
6543,-0.095,-0.135
6544,-0.105,-0.125
6545,-0.095,-0.135
6546,-0.105,-0.135
6547,-0.105,-0.135
6548,-0.095,-0.135
6549,-0.105,-0.125
6550,-0.095,-0.125
6551,-0.095,-0.135
6552,-0.105,-0.135
6553,-0.105,-0.125
6554,-0.105,-0.135
6555,-0.115,-0.145
6556,-0.105,-0.125
6557,-0.115,-0.135
6558,-0.115,-0.135
6559,-0.115,-0.135
6560,-0.115,-0.135
6561,-0.125,-0.125
6562,-0.115,-0.115
6563,-0.095,-0.095
6564,-0.065,-0.105
6565,-0.065,-0.085
6566,-0.065,-0.075
6567,-0.025,-0.095
6568,0.005,-0.085
6569,0.005,-0.105
6570,-0.015,-0.095
6571,-0.015,-0.085
6572,-0.055,-0.135
6573,-0.125,-0.165
6574,-0.185,-0.165
6575,-0.175,-0.175
6576,-0.175,-0.175
6577,-0.185,-0.165
6578,-0.185,-0.175
6579,-0.195,-0.175
6580,-0.185,-0.165
6581,-0.185,-0.155
6582,-0.175,-0.125
6583,-0.185,-0.015
6584,-0.035,0.165
6585,0.345,0.055
6586,0.785,-0.015
6587,0.345,-0.455
6588,-0.295,-0.455
6589,-0.415,-0.285
6590,-0.295,-0.155
6591,-0.205,-0.145
6592,-0.185,-0.145
6593,-0.165,-0.125
6594,-0.165,-0.135
6595,-0.165,-0.145
6596,-0.155,-0.125
6597,-0.145,-0.125
6598,-0.125,-0.105
6599,-0.105,-0.085
6600,-0.095,-0.085
6601,-0.085,-0.085
6602,-0.065,-0.085
6603,-0.055,-0.085
6604,-0.025,-0.065
6605,-0.005,-0.045
6606,0.035,-0.015
6607,0.065,0.005
6608,0.085,0.035
6609,0.115,0.045
6610,0.145,0.065
6611,0.155,0.065
6612,0.175,0.065
6613,0.175,0.075
6614,0.175,0.075
6615,0.175,0.085
6616,0.165,0.075
6617,0.155,0.055
6618,0.115,0.045
6619,0.065,0.005
6620,0.025,-0.025
6621,-0.015,-0.045
6622,-0.045,-0.075
6623,-0.065,-0.095
6624,-0.095,-0.105
6625,-0.095,-0.115
6626,-0.115,-0.125
6627,-0.125,-0.125
6628,-0.115,-0.115
6629,-0.105,-0.115
6630,-0.105,-0.115
6631,-0.095,-0.115
6632,-0.095,-0.115
6633,-0.075,-0.095
6634,-0.095,-0.105
6635,-0.095,-0.105
6636,-0.095,-0.105
6637,-0.075,-0.105
6638,-0.095,-0.105
6639,-0.095,-0.105
6640,-0.085,-0.105
6641,-0.095,-0.105
6642,-0.095,-0.115
6643,-0.115,-0.115
6644,-0.105,-0.105
6645,-0.085,-0.085
6646,-0.055,-0.065
6647,-0.055,-0.065
6648,-0.035,-0.075
6649,-0.025,-0.065
6650,-0.015,-0.095
6651,0.005,-0.105
6652,-0.005,-0.095
6653,-0.025,-0.085
6654,-0.065,-0.135
6655,-0.125,-0.155
6656,-0.155,-0.165
6657,-0.165,-0.165
6658,-0.165,-0.165
6659,-0.175,-0.165
6660,-0.155,-0.165
6661,-0.155,-0.165
6662,-0.155,-0.155
6663,-0.145,-0.105
6664,-0.155,0.005
6665,0.045,0.165
6666,0.425,0.005
6667,0.815,-0.015
6668,0.525,-0.415
6669,-0.215,-0.455
6670,-0.375,-0.245
6671,-0.245,-0.135
6672,-0.165,-0.115
6673,-0.165,-0.105
6674,-0.165,-0.115
6675,-0.155,-0.115
