'sample interval','ECG1','ECG2'
'0.0078125 sec','mV','mV'
0,-0.355,-0.215
1,-0.355,-0.205
2,-0.345,-0.205
3,-0.335,-0.215
4,-0.335,-0.225
5,-0.345,-0.225
6,-0.345,-0.235
7,-0.375,-0.235
8,-0.365,-0.255
9,-0.355,-0.255
10,-0.365,-0.245
11,-0.355,-0.265
12,-0.385,-0.295
13,-0.385,-0.285
14,-0.375,-0.285
15,-0.415,-0.295
16,-0.405,-0.285
17,-0.415,-0.305
18,-0.415,-0.265
19,-0.385,-0.285
20,-0.395,-0.295
21,-0.395,-0.305
22,-0.405,-0.285
23,-0.395,-0.285
24,-0.395,-0.295
25,-0.385,-0.295
26,-0.385,-0.275
27,-0.355,-0.275
28,-0.365,-0.285
29,-0.375,-0.255
30,-0.345,-0.235
31,-0.325,-0.185
32,-0.325,-0.205
33,-0.285,-0.125
34,-0.215,-0.125
35,-0.195,-0.135
36,-0.235,-0.205
37,-0.285,-0.245
38,-0.315,-0.305
39,-0.395,-0.305
40,-0.415,-0.295
41,-0.415,-0.315
42,-0.385,-0.285
43,-0.385,-0.305
44,-0.395,-0.295
45,-0.405,-0.285
46,-0.325,-0.265
47,-0.505,-0.355
48,-0.765,-0.075
49,-0.695,0.325
50,0.095,0.125
51,1.265,-0.165
52,2.455,0.305
53,3.025,-0.135
54,1.425,-1.285
55,-0.625,-1.045
56,-1.085,-0.705
57,-0.935,-0.495
58,-0.765,-0.235
59,-0.485,0.045
60,-0.375,0.065
61,-0.375,0.065
62,-0.325,0.105
63,-0.335,0.125
64,-0.305,0.165
65,-0.285,0.185
66,-0.245,0.235
67,-0.205,0.265
68,-0.175,0.305
69,-0.185,0.335
70,-0.125,0.405
71,-0.115,0.465
72,-0.075,0.525
73,-0.025,0.625
74,0.045,0.725
75,0.135,0.805
76,0.185,0.885
77,0.275,0.975
78,0.365,1.035
79,0.435,1.065
80,0.495,1.045
81,0.545,0.975
82,0.555,0.885
83,0.565,0.715
84,0.445,0.515
85,0.295,0.325
86,0.145,0.165
87,-0.025,0.015
88,-0.145,-0.085
89,-0.245,-0.145
90,-0.285,-0.155
91,-0.305,-0.195
92,-0.345,-0.225
93,-0.365,-0.215
94,-0.365,-0.235
95,-0.385,-0.225
96,-0.385,-0.235
97,-0.375,-0.225
98,-0.365,-0.195
99,-0.365,-0.205
100,-0.365,-0.215
101,-0.365,-0.205
102,-0.355,-0.185
103,-0.375,-0.185
104,-0.355,-0.195
105,-0.365,-0.205
106,-0.355,-0.175
107,-0.335,-0.195
108,-0.335,-0.215
109,-0.345,-0.225
110,-0.355,-0.215
111,-0.365,-0.215
112,-0.365,-0.225
113,-0.355,-0.245
114,-0.385,-0.245
115,-0.375,-0.255
116,-0.385,-0.275
117,-0.385,-0.265
118,-0.385,-0.275
119,-0.395,-0.265
120,-0.395,-0.275
121,-0.385,-0.285
122,-0.395,-0.265
123,-0.385,-0.275
124,-0.385,-0.285
125,-0.395,-0.295
126,-0.365,-0.275
127,-0.395,-0.285
128,-0.375,-0.265
129,-0.385,-0.285
130,-0.365,-0.265
131,-0.345,-0.275
132,-0.365,-0.275
133,-0.365,-0.265
134,-0.355,-0.265
135,-0.375,-0.245
136,-0.335,-0.225
137,-0.305,-0.185
138,-0.295,-0.165
139,-0.225,-0.125
140,-0.175,-0.105
141,-0.175,-0.135
142,-0.195,-0.195
143,-0.245,-0.235
144,-0.275,-0.285
145,-0.315,-0.295
146,-0.345,-0.285
147,-0.345,-0.295
148,-0.345,-0.285
149,-0.325,-0.285
150,-0.325,-0.295
151,-0.335,-0.275
152,-0.295,-0.265
153,-0.505,-0.355
154,-0.695,0.045
155,-0.475,0.305
156,0.315,-0.125
157,1.475,-0.165
158,2.585,0.405
159,3.015,-0.135
160,1.345,-1.265
161,-0.595,-1.065
162,-1.015,-0.675
163,-0.815,-0.425
164,-0.635,-0.145
165,-0.345,0.075
166,-0.275,0.085
167,-0.275,0.105
168,-0.245,0.115
169,-0.225,0.145
170,-0.205,0.185
171,-0.175,0.215
172,-0.145,0.235
173,-0.115,0.265
174,-0.085,0.295
175,-0.085,0.355
176,-0.045,0.395
177,0.005,0.455
178,0.045,0.545
179,0.125,0.605
180,0.145,0.685
181,0.205,0.775
182,0.305,0.875
183,0.375,0.955
184,0.455,0.995
185,0.565,1.045
186,0.615,1.035
187,0.675,0.965
188,0.665,0.855
189,0.645,0.715
190,0.535,0.515
191,0.405,0.375
192,0.255,0.205
193,0.105,0.055
194,-0.015,-0.025
195,-0.105,-0.105
196,-0.175,-0.155
197,-0.225,-0.175
198,-0.225,-0.195
199,-0.265,-0.195
200,-0.245,-0.205
201,-0.255,-0.205
202,-0.235,-0.185
203,-0.235,-0.185
204,-0.225,-0.195
205,-0.225,-0.185
206,-0.215,-0.185
207,-0.225,-0.175
208,-0.215,-0.185
209,-0.215,-0.185
210,-0.185,-0.165
211,-0.185,-0.175
212,-0.205,-0.195
213,-0.195,-0.185
214,-0.185,-0.185
215,-0.205,-0.185
216,-0.215,-0.205
217,-0.205,-0.215
218,-0.205,-0.205
219,-0.195,-0.225
220,-0.215,-0.245
221,-0.205,-0.235
222,-0.205,-0.245
223,-0.225,-0.235
224,-0.205,-0.235
225,-0.205,-0.235
226,-0.205,-0.235
227,-0.195,-0.235
228,-0.195,-0.245
229,-0.195,-0.235
230,-0.165,-0.235
231,-0.195,-0.235
232,-0.185,-0.245
233,-0.175,-0.225
234,-0.175,-0.235
235,-0.155,-0.235
236,-0.155,-0.215
237,-0.135,-0.225
238,-0.135,-0.215
239,-0.135,-0.215
240,-0.125,-0.215
241,-0.125,-0.225
242,-0.115,-0.185
243,-0.085,-0.175
244,-0.055,-0.145
245,-0.035,-0.145
246,0.015,-0.085
247,0.075,-0.075
248,0.105,-0.095
249,0.075,-0.165
250,0.025,-0.205
251,0.025,-0.245
252,-0.025,-0.265
253,-0.045,-0.265
254,-0.025,-0.265
255,-0.045,-0.265
256,-0.035,-0.275
257,-0.025,-0.265
258,-0.015,-0.245
259,0.055,-0.265
260,-0.205,-0.335
261,-0.365,0.055
262,-0.115,0.315
263,0.675,-0.055
264,1.835,-0.125
265,2.805,0.385
266,3.085,-0.485
267,0.845,-1.295
268,-0.455,-0.925
269,-0.585,-0.615
270,-0.425,-0.385
271,-0.245,-0.085
272,0.035,0.065
273,0.095,0.065
274,0.105,0.125
275,0.145,0.135
276,0.145,0.155
277,0.195,0.185
278,0.225,0.205
279,0.255,0.245
280,0.275,0.265
281,0.305,0.315
282,0.315,0.375
283,0.375,0.405
284,0.395,0.475
285,0.435,0.535
286,0.485,0.635
287,0.545,0.715
288,0.615,0.805
289,0.685,0.885
290,0.785,0.965
291,0.845,1.005
292,0.885,1.005
293,0.945,0.985
294,0.975,0.905
295,0.935,0.775
296,0.925,0.625
297,0.805,0.435
298,0.675,0.275
299,0.505,0.085
300,0.335,-0.045
301,0.205,-0.125
302,0.135,-0.175
303,0.105,-0.185
304,0.075,-0.235
305,0.065,-0.235
306,0.075,-0.215
307,0.075,-0.215
308,0.045,-0.245
309,0.065,-0.235
310,0.045,-0.215
311,0.055,-0.225
312,0.055,-0.225
313,0.085,-0.205
314,0.075,-0.215
315,0.085,-0.205
316,0.085,-0.205
317,0.105,-0.195
318,0.095,-0.195
319,0.085,-0.205
320,0.085,-0.235
321,0.075,-0.225
322,0.125,-0.195
323,0.095,-0.245
324,0.075,-0.245
325,0.065,-0.255
326,0.055,-0.255
327,0.045,-0.255
328,0.045,-0.275
329,0.025,-0.265
330,0.055,-0.255
331,0.035,-0.275
332,0.025,-0.275
333,0.015,-0.275
334,-0.005,-0.285
335,0.005,-0.255
336,0.005,-0.295
337,-0.005,-0.275
338,-0.025,-0.265
339,0.005,-0.275
340,-0.015,-0.275
341,-0.015,-0.265
342,-0.025,-0.275
343,-0.035,-0.225
344,-0.015,-0.195
345,0.035,-0.175
346,0.005,-0.155
347,0.095,-0.105
348,0.145,-0.125
349,0.115,-0.145
350,0.095,-0.195
351,0.025,-0.235
352,-0.015,-0.275
353,-0.055,-0.315
354,-0.085,-0.285
355,-0.085,-0.295
356,-0.075,-0.285
357,-0.075,-0.275
358,-0.085,-0.285
359,-0.095,-0.265
360,-0.035,-0.255
361,-0.295,-0.335
362,-0.485,0.055
363,-0.225,0.405
364,0.705,0.025
365,1.985,-0.195
366,2.915,0.245
367,2.915,-0.645
368,0.435,-1.285
369,-0.715,-0.915
370,-0.765,-0.605
371,-0.565,-0.345
372,-0.325,-0.015
373,-0.115,0.075
374,-0.095,0.085
375,-0.095,0.115
376,-0.075,0.145
377,-0.045,0.165
378,-0.015,0.205
379,0.005,0.235
380,0.005,0.255
381,0.045,0.305
382,0.065,0.345
383,0.085,0.425
384,0.125,0.445
385,0.155,0.525
386,0.205,0.615
387,0.285,0.715
388,0.325,0.785
389,0.385,0.885
390,0.475,0.975
391,0.545,1.035
392,0.645,1.055
393,0.695,1.045
394,0.765,1.005
395,0.745,0.875
396,0.715,0.715
397,0.615,0.515
398,0.455,0.335
399,0.275,0.165
400,0.125,0.025
401,0.015,-0.065
402,-0.035,-0.115
403,-0.115,-0.155
404,-0.145,-0.185
405,-0.175,-0.205
406,-0.215,-0.215
407,-0.195,-0.215
408,-0.225,-0.225
409,-0.195,-0.195
410,-0.195,-0.195
411,-0.195,-0.195
412,-0.205,-0.195
413,-0.185,-0.185
414,-0.205,-0.185
415,-0.205,-0.175
416,-0.195,-0.185
417,-0.195,-0.185
418,-0.165,-0.165
419,-0.185,-0.175
420,-0.175,-0.185
421,-0.185,-0.195
422,-0.185,-0.185
423,-0.195,-0.205
424,-0.185,-0.205
425,-0.205,-0.225
426,-0.175,-0.205
427,-0.195,-0.225
428,-0.205,-0.235
429,-0.215,-0.255
430,-0.235,-0.245
431,-0.235,-0.245
432,-0.235,-0.255
433,-0.255,-0.265
434,-0.215,-0.245
435,-0.235,-0.245
436,-0.235,-0.255
437,-0.245,-0.265
438,-0.265,-0.255
439,-0.245,-0.255
440,-0.265,-0.245
441,-0.255,-0.255
442,-0.235,-0.245
443,-0.255,-0.245
444,-0.265,-0.245
445,-0.245,-0.235
446,-0.245,-0.205
447,-0.195,-0.145
448,-0.195,-0.145
449,-0.175,-0.115
450,-0.065,-0.065
451,-0.065,-0.115
452,-0.125,-0.165
453,-0.165,-0.205
454,-0.215,-0.255
455,-0.245,-0.285
456,-0.265,-0.285
457,-0.285,-0.285
458,-0.255,-0.285
459,-0.265,-0.275
460,-0.265,-0.285
461,-0.265,-0.275
462,-0.235,-0.265
463,-0.355,-0.335
464,-0.625,-0.165
465,-0.555,0.255
466,0.205,0.135
467,1.385,-0.265
468,2.485,0.205
469,2.825,-0.335
470,0.985,-1.305
471,-0.585,-1.105
472,-0.935,-0.715
473,-0.745,-0.435
474,-0.575,-0.155
475,-0.265,0.085
476,-0.285,0.075
477,-0.255,0.085
478,-0.265,0.125
479,-0.255,0.165
480,-0.265,0.165
481,-0.255,0.205
482,-0.205,0.235
483,-0.185,0.265
484,-0.135,0.295
485,-0.105,0.345
486,-0.105,0.385
487,-0.075,0.455
488,-0.025,0.515
489,0.005,0.575
490,0.085,0.695
491,0.125,0.795
492,0.185,0.875
493,0.265,0.955
494,0.335,1.015
495,0.395,1.045
496,0.445,1.045
497,0.475,0.995
498,0.525,0.925
499,0.485,0.775
500,0.385,0.575
501,0.255,0.415
502,0.095,0.245
503,-0.055,0.085
504,-0.175,-0.015
505,-0.255,-0.085
506,-0.295,-0.115
507,-0.335,-0.175
508,-0.385,-0.215
509,-0.385,-0.205
510,-0.385,-0.205
511,-0.375,-0.195
512,-0.415,-0.225
513,-0.405,-0.215
514,-0.385,-0.205
515,-0.385,-0.205
516,-0.415,-0.215
517,-0.385,-0.205
518,-0.415,-0.215
519,-0.405,-0.195
520,-0.425,-0.205
521,-0.415,-0.215
522,-0.395,-0.195
523,-0.415,-0.205
524,-0.405,-0.215
525,-0.415,-0.235
526,-0.425,-0.225
527,-0.425,-0.235
528,-0.425,-0.245
529,-0.425,-0.255
530,-0.405,-0.255
531,-0.415,-0.255
532,-0.435,-0.275
533,-0.435,-0.285
534,-0.435,-0.255
535,-0.435,-0.255
536,-0.435,-0.275
537,-0.425,-0.275
538,-0.425,-0.265
539,-0.425,-0.265
540,-0.455,-0.275
541,-0.435,-0.255
542,-0.465,-0.265
543,-0.455,-0.265
544,-0.465,-0.265
545,-0.465,-0.265
546,-0.445,-0.265
547,-0.445,-0.265
548,-0.445,-0.265
549,-0.435,-0.245
550,-0.445,-0.255
551,-0.445,-0.225
552,-0.425,-0.205
553,-0.385,-0.175
554,-0.345,-0.135
555,-0.305,-0.085
556,-0.265,-0.105
557,-0.265,-0.115
558,-0.335,-0.195
559,-0.355,-0.255
560,-0.395,-0.285
561,-0.425,-0.285
562,-0.415,-0.285
563,-0.445,-0.295
564,-0.415,-0.285
565,-0.405,-0.285
566,-0.415,-0.275
567,-0.395,-0.275
568,-0.395,-0.295
569,-0.735,-0.385
570,-0.755,0.065
571,-0.215,0.235
572,0.785,-0.245
573,2.125,-0.005
574,2.845,0.425
575,2.075,-0.635
576,-0.305,-1.295
577,-1.105,-0.895
578,-0.905,-0.475
579,-0.665,-0.215
580,-0.375,0.045
581,-0.335,0.045
582,-0.335,0.055
583,-0.325,0.085
584,-0.285,0.095
585,-0.255,0.135
586,-0.205,0.175
587,-0.235,0.195
588,-0.205,0.215
589,-0.175,0.255
590,-0.145,0.295
591,-0.115,0.335
592,-0.075,0.395
593,-0.035,0.465
594,0.055,0.555
595,0.085,0.625
596,0.145,0.705
597,0.225,0.795
598,0.305,0.885
599,0.375,0.935
600,0.455,0.965
601,0.505,0.965
602,0.555,0.945
603,0.565,0.855
604,0.525,0.745
605,0.465,0.575
606,0.315,0.405
607,0.175,0.225
608,0.025,0.085
609,-0.095,-0.025
610,-0.155,-0.105
611,-0.235,-0.165
612,-0.275,-0.195
613,-0.275,-0.215
614,-0.325,-0.225
615,-0.315,-0.225
616,-0.325,-0.235
617,-0.335,-0.245
618,-0.305,-0.225
619,-0.305,-0.225
620,-0.305,-0.235
621,-0.305,-0.215
622,-0.305,-0.215
623,-0.315,-0.225
624,-0.305,-0.215
625,-0.285,-0.225
626,-0.255,-0.205
627,-0.285,-0.215
628,-0.295,-0.225
629,-0.285,-0.235
630,-0.295,-0.235
631,-0.295,-0.245
632,-0.315,-0.255
633,-0.295,-0.265
634,-0.275,-0.255
635,-0.315,-0.275
636,-0.335,-0.285
637,-0.315,-0.285
638,-0.325,-0.285
639,-0.325,-0.285
640,-0.345,-0.305
641,-0.335,-0.295
642,-0.305,-0.285
643,-0.315,-0.285
644,-0.315,-0.315
645,-0.325,-0.315
646,-0.335,-0.305
647,-0.335,-0.285
648,-0.335,-0.305
649,-0.325,-0.305
650,-0.285,-0.285
651,-0.315,-0.295
652,-0.315,-0.295
653,-0.295,-0.295
654,-0.295,-0.295
655,-0.305,-0.275
656,-0.305,-0.295
657,-0.285,-0.255
658,-0.215,-0.195
659,-0.225,-0.205
660,-0.205,-0.175
661,-0.145,-0.125
662,-0.115,-0.125
663,-0.155,-0.205
664,-0.205,-0.245
665,-0.245,-0.315
666,-0.255,-0.305
667,-0.295,-0.325
668,-0.305,-0.325
669,-0.285,-0.325
670,-0.305,-0.305
671,-0.265,-0.305
672,-0.295,-0.325
673,-0.245,-0.305
674,-0.485,-0.435
675,-0.655,-0.165
676,-0.425,0.145
677,0.445,-0.075
678,1.645,-0.185
679,2.635,0.405
680,2.495,-0.405
681,0.125,-1.395
682,-0.875,-1.055
683,-0.875,-0.645
684,-0.645,-0.355
685,-0.355,-0.045
686,-0.245,0.025
687,-0.245,0.025
688,-0.205,0.045
689,-0.205,0.055
690,-0.145,0.115
691,-0.135,0.125
692,-0.095,0.145
693,-0.075,0.185
694,-0.065,0.225
695,-0.035,0.265
696,-0.005,0.295
697,0.025,0.345
698,0.075,0.415
699,0.095,0.475
700,0.135,0.545
701,0.185,0.635
702,0.245,0.735
703,0.325,0.815
704,0.415,0.895
705,0.475,0.955
706,0.555,0.965
707,0.595,0.945
708,0.615,0.895
709,0.645,0.805
710,0.605,0.665
711,0.505,0.495
712,0.365,0.295
713,0.205,0.145
714,0.105,0.025
715,-0.015,-0.065
716,-0.085,-0.135
717,-0.125,-0.185
718,-0.175,-0.205
719,-0.195,-0.225
720,-0.185,-0.235
721,-0.175,-0.245
722,-0.145,-0.215
723,-0.155,-0.225
724,-0.175,-0.235
725,-0.155,-0.225
726,-0.145,-0.215
727,-0.145,-0.215
728,-0.125,-0.215
729,-0.115,-0.205
730,-0.085,-0.195
731,-0.085,-0.215
732,-0.095,-0.225
733,-0.085,-0.225
734,-0.115,-0.215
735,-0.085,-0.235
736,-0.085,-0.215
737,-0.085,-0.255
738,-0.045,-0.245
739,-0.085,-0.265
740,-0.105,-0.285
741,-0.085,-0.295
742,-0.085,-0.275
743,-0.085,-0.295
744,-0.075,-0.285
745,-0.075,-0.295
746,-0.055,-0.275
747,-0.075,-0.305
748,-0.075,-0.295
749,-0.085,-0.295
750,-0.075,-0.295
751,-0.065,-0.295
752,-0.065,-0.305
753,-0.065,-0.305
754,-0.025,-0.285
755,-0.035,-0.285
756,-0.045,-0.295
757,-0.065,-0.315
758,-0.035,-0.285
759,-0.045,-0.285
760,-0.045,-0.285
761,-0.015,-0.285
762,-0.025,-0.265
763,0.005,-0.235
764,0.015,-0.215
765,0.035,-0.225
766,0.035,-0.175
767,0.125,-0.115
768,0.155,-0.135
769,0.125,-0.185
770,0.095,-0.215
771,0.055,-0.275
772,-0.005,-0.305
773,-0.015,-0.315
774,-0.035,-0.295
775,-0.025,-0.295
776,-0.035,-0.295
777,-0.035,-0.285
778,0.015,-0.265
779,0.045,-0.265
780,-0.225,-0.365
781,-0.395,-0.045
782,-0.125,0.295
783,0.815,0.155
784,2.045,-0.105
785,2.795,0.365
786,2.915,-0.265
787,0.765,-1.265
788,-0.465,-1.035
789,-0.625,-0.755
790,-0.505,-0.525
791,-0.345,-0.275
792,-0.055,-0.015
793,0.035,0.025
794,0.055,0.025
795,0.075,0.065
796,0.095,0.095
797,0.135,0.095
798,0.135,0.145
799,0.165,0.175
800,0.185,0.205
801,0.205,0.225
802,0.255,0.295
803,0.285,0.325
804,0.275,0.355
805,0.335,0.445
806,0.375,0.515
807,0.445,0.605
808,0.515,0.675
809,0.575,0.765
810,0.675,0.825
811,0.735,0.885
812,0.805,0.915
813,0.865,0.905
814,0.865,0.855
815,0.875,0.795
816,0.835,0.645
817,0.785,0.495
818,0.655,0.345
819,0.485,0.175
820,0.355,0.055
821,0.235,-0.065
822,0.165,-0.105
823,0.115,-0.145
824,0.065,-0.195
825,0.065,-0.205
826,0.075,-0.205
827,0.065,-0.195
828,0.035,-0.225
829,0.045,-0.215
830,0.045,-0.185
831,0.035,-0.185
832,0.045,-0.195
833,0.055,-0.175
834,0.105,-0.155
835,0.075,-0.175
836,0.065,-0.185
837,0.065,-0.185
838,0.065,-0.175
839,0.055,-0.175
840,0.045,-0.185
841,0.045,-0.195
842,0.045,-0.195
843,0.015,-0.205
844,-0.015,-0.215
845,-0.025,-0.215
846,-0.055,-0.235
847,-0.085,-0.225
848,-0.115,-0.245
849,-0.115,-0.255
850,-0.105,-0.245
851,-0.115,-0.245
852,-0.135,-0.255
853,-0.125,-0.275
854,-0.145,-0.265
855,-0.135,-0.255
856,-0.155,-0.275
857,-0.155,-0.265
858,-0.135,-0.255
859,-0.135,-0.255
860,-0.165,-0.275
861,-0.155,-0.265
862,-0.165,-0.265
863,-0.175,-0.255
864,-0.165,-0.225
865,-0.115,-0.175
866,-0.105,-0.175
867,-0.075,-0.135
868,-0.015,-0.125
869,-0.025,-0.145
870,-0.055,-0.195
871,-0.125,-0.245
872,-0.185,-0.295
873,-0.245,-0.315
874,-0.245,-0.295
875,-0.265,-0.305
876,-0.275,-0.305
877,-0.255,-0.275
878,-0.245,-0.265
879,-0.245,-0.275
880,-0.225,-0.275
881,-0.475,-0.375
882,-0.665,-0.055
883,-0.475,0.325
884,0.495,-0.035
885,1.795,-0.075
886,2.725,0.485
887,2.845,-0.285
888,0.385,-1.335
889,-0.895,-0.965
890,-0.965,-0.635
891,-0.785,-0.405
892,-0.605,-0.145
893,-0.335,0.075
894,-0.305,0.055
895,-0.305,0.085
896,-0.275,0.105
897,-0.265,0.135
898,-0.215,0.185
899,-0.205,0.205
900,-0.185,0.215
901,-0.155,0.265
902,-0.145,0.305
903,-0.125,0.345
904,-0.075,0.405
905,-0.045,0.445
906,0.025,0.535
907,0.065,0.625
908,0.115,0.705
909,0.195,0.795
910,0.255,0.895
911,0.345,0.945
912,0.425,0.995
913,0.495,1.005
914,0.565,0.995
915,0.575,0.905
916,0.555,0.805
917,0.535,0.675
918,0.435,0.505
919,0.295,0.345
920,0.115,0.165
921,-0.005,0.035
922,-0.095,-0.035
923,-0.195,-0.125
924,-0.275,-0.165
925,-0.305,-0.195
926,-0.325,-0.215
927,-0.345,-0.225
928,-0.325,-0.225
929,-0.355,-0.245
930,-0.335,-0.225
931,-0.345,-0.225
932,-0.325,-0.215
933,-0.325,-0.215
934,-0.315,-0.205
935,-0.345,-0.205
936,-0.335,-0.205
937,-0.325,-0.195
938,-0.305,-0.185
939,-0.295,-0.185
940,-0.315,-0.205
941,-0.305,-0.195
942,-0.285,-0.195
943,-0.305,-0.205
944,-0.295,-0.215
945,-0.305,-0.225
946,-0.285,-0.205
947,-0.315,-0.255
948,-0.345,-0.255
949,-0.325,-0.255
950,-0.325,-0.255
951,-0.355,-0.265
952,-0.345,-0.265
953,-0.355,-0.295
954,-0.335,-0.255
955,-0.325,-0.275
956,-0.365,-0.285
957,-0.345,-0.275
958,-0.345,-0.275
959,-0.365,-0.255
960,-0.355,-0.275
961,-0.365,-0.285
962,-0.335,-0.245
963,-0.345,-0.255
964,-0.345,-0.205
965,-0.285,-0.155
966,-0.295,-0.165
967,-0.245,-0.125
968,-0.185,-0.145
969,-0.195,-0.145
970,-0.215,-0.175
971,-0.275,-0.245
972,-0.305,-0.295
973,-0.355,-0.305
974,-0.395,-0.295
975,-0.395,-0.305
976,-0.395,-0.295
977,-0.395,-0.305
978,-0.345,-0.275
979,-0.375,-0.295
980,-0.345,-0.265
981,-0.535,-0.375
982,-0.795,-0.165
983,-0.675,0.175
984,0.105,-0.005
985,1.245,-0.205
986,2.435,0.345
987,2.935,0.185
988,1.355,-1.165
989,-0.625,-1.105
990,-1.105,-0.695
991,-0.905,-0.425
992,-0.735,-0.225
993,-0.425,0.055
994,-0.305,0.095
995,-0.325,0.075
996,-0.315,0.095
997,-0.285,0.135
998,-0.265,0.165
999,-0.235,0.195
1000,-0.225,0.205
1001,-0.195,0.255
1002,-0.145,0.295
1003,-0.125,0.335
1004,-0.105,0.395
1005,-0.075,0.445
1006,-0.025,0.525
1007,0.025,0.605
1008,0.065,0.675
1009,0.135,0.765
1010,0.225,0.865
1011,0.315,0.945
1012,0.385,0.995
1013,0.465,1.025
1014,0.515,1.025
1015,0.555,0.965
1016,0.555,0.875
1017,0.535,0.745
1018,0.485,0.605
1019,0.365,0.395
1020,0.185,0.195
1021,0.015,0.035
1022,-0.115,-0.065
1023,-0.205,-0.125
1024,-0.245,-0.185
1025,-0.295,-0.215
1026,-0.305,-0.195
1027,-0.305,-0.225
1028,-0.335,-0.255
1029,-0.325,-0.245
1030,-0.325,-0.255
1031,-0.345,-0.235
1032,-0.345,-0.245
1033,-0.345,-0.245
1034,-0.325,-0.215
1035,-0.305,-0.235
1036,-0.335,-0.235
1037,-0.315,-0.215
1038,-0.295,-0.225
1039,-0.325,-0.205
1040,-0.305,-0.215
1041,-0.315,-0.225
1042,-0.305,-0.215
1043,-0.285,-0.225
1044,-0.305,-0.235
1045,-0.305,-0.265
1046,-0.285,-0.245
1047,-0.325,-0.275
1048,-0.315,-0.275
1049,-0.335,-0.285
1050,-0.315,-0.255
1051,-0.305,-0.285
1052,-0.325,-0.305
1053,-0.345,-0.305
1054,-0.305,-0.295
1055,-0.335,-0.305
1056,-0.345,-0.315
1057,-0.325,-0.315
1058,-0.315,-0.305
1059,-0.315,-0.305
1060,-0.325,-0.315
1061,-0.315,-0.305
1062,-0.315,-0.305
1063,-0.305,-0.295
1064,-0.305,-0.305
1065,-0.295,-0.305
1066,-0.285,-0.265
1067,-0.255,-0.245
1068,-0.235,-0.225
1069,-0.225,-0.225
1070,-0.195,-0.165
1071,-0.125,-0.135
1072,-0.105,-0.165
1073,-0.145,-0.235
1074,-0.175,-0.245
1075,-0.215,-0.325
1076,-0.275,-0.345
1077,-0.285,-0.335
1078,-0.295,-0.335
1079,-0.275,-0.335
1080,-0.265,-0.325
1081,-0.275,-0.325
1082,-0.245,-0.305
1083,-0.205,-0.325
1084,-0.475,-0.425
1085,-0.685,-0.055
1086,-0.515,0.195
1087,0.315,-0.175
1088,1.585,-0.155
1089,2.655,0.435
1090,3.065,-0.065
1091,1.265,-1.335
1092,-0.565,-1.095
1093,-0.965,-0.695
1094,-0.765,-0.415
1095,-0.535,-0.095
1096,-0.255,0.035
1097,-0.215,0.025
1098,-0.165,0.065
1099,-0.145,0.065
1100,-0.095,0.125
1101,-0.085,0.135
1102,-0.085,0.155
1103,-0.055,0.185
1104,-0.005,0.225
1105,0.015,0.265
1106,0.065,0.315
1107,0.095,0.365
1108,0.135,0.425
1109,0.185,0.475
1110,0.255,0.565
1111,0.315,0.655
1112,0.405,0.725
1113,0.475,0.835
1114,0.565,0.895
1115,0.665,0.955
1116,0.755,0.985
1117,0.815,0.965
1118,0.845,0.935
1119,0.875,0.845
1120,0.865,0.715
1121,0.815,0.535
1122,0.675,0.355
1123,0.535,0.185
1124,0.385,0.015
1125,0.265,-0.105
1126,0.175,-0.185
1127,0.105,-0.215
1128,0.085,-0.255
1129,0.065,-0.265
1130,0.045,-0.265
1131,0.065,-0.285
1132,0.055,-0.285
1133,0.065,-0.295
1134,0.055,-0.275
1135,0.065,-0.265
1136,0.065,-0.275
1137,0.075,-0.275
1138,0.065,-0.265
1139,0.085,-0.255
1140,0.095,-0.255
1141,0.095,-0.265
1142,0.115,-0.265
1143,0.085,-0.245
1144,0.075,-0.255
1145,0.095,-0.275
1146,0.085,-0.265
1147,0.115,-0.275
1148,0.095,-0.275
1149,0.105,-0.295
1150,0.095,-0.285
1151,0.095,-0.285
1152,0.085,-0.315
1153,0.075,-0.335
1154,0.105,-0.295
1155,0.095,-0.325
1156,0.075,-0.335
1157,0.075,-0.335
1158,0.065,-0.325
1159,0.065,-0.335
1160,0.085,-0.325
1161,0.085,-0.335
1162,0.075,-0.325
1163,0.095,-0.315
1164,0.095,-0.325
1165,0.085,-0.335
1166,0.105,-0.315
1167,0.095,-0.325
1168,0.115,-0.325
1169,0.095,-0.305
1170,0.095,-0.295
1171,0.125,-0.315
1172,0.105,-0.295
1173,0.115,-0.285
1174,0.145,-0.255
1175,0.115,-0.235
1176,0.175,-0.175
1177,0.225,-0.155
1178,0.275,-0.145
1179,0.235,-0.235
1180,0.175,-0.285
1181,0.145,-0.325
1182,0.105,-0.315
1183,0.065,-0.315
1184,0.075,-0.335
1185,0.065,-0.335
1186,0.065,-0.315
1187,0.095,-0.305
1188,0.075,-0.305
1189,0.115,-0.295
1190,-0.085,-0.355
1191,-0.325,0.005
1192,-0.125,0.345
1193,0.785,0.095
1194,2.055,-0.005
1195,2.865,0.405
1196,3.125,-0.485
1197,0.945,-1.325
1198,-0.425,-0.985
1199,-0.595,-0.725
1200,-0.495,-0.525
1201,-0.315,-0.275
1202,-0.065,0.005
1203,0.075,0.045
1204,0.055,0.025
1205,0.065,0.065
1206,0.095,0.095
1207,0.125,0.135
1208,0.155,0.175
1209,0.165,0.205
1210,0.185,0.255
1211,0.235,0.265
1212,0.245,0.315
1213,0.275,0.385
1214,0.335,0.445
1215,0.345,0.495
1216,0.415,0.575
1217,0.455,0.655
1218,0.545,0.755
1219,0.625,0.835
1220,0.695,0.885
1221,0.745,0.915
1222,0.825,0.925
1223,0.865,0.905
1224,0.895,0.825
1225,0.875,0.715
1226,0.835,0.585
1227,0.725,0.405
1228,0.545,0.205
1229,0.385,0.075
1230,0.255,-0.025
1231,0.165,-0.095
1232,0.075,-0.175
1233,0.025,-0.205
1234,0.005,-0.205
1235,-0.005,-0.225
1236,-0.035,-0.245
1237,-0.045,-0.235
1238,-0.045,-0.225
1239,-0.055,-0.215
1240,-0.055,-0.225
1241,-0.045,-0.205
1242,-0.045,-0.205
1243,-0.045,-0.195
1244,-0.025,-0.185
1245,-0.035,-0.205
1246,-0.015,-0.195
1247,-0.035,-0.175
1248,-0.015,-0.195
1249,-0.025,-0.185
1250,-0.025,-0.185
1251,0.005,-0.205
1252,-0.035,-0.195
1253,-0.015,-0.215
1254,-0.025,-0.215
1255,-0.045,-0.225
1256,-0.055,-0.225
1257,-0.065,-0.255
1258,-0.065,-0.245
1259,-0.055,-0.255
1260,-0.075,-0.245
1261,-0.085,-0.285
1262,-0.095,-0.275
1263,-0.105,-0.255
1264,-0.125,-0.285
1265,-0.105,-0.275
1266,-0.115,-0.265
1267,-0.085,-0.265
1268,-0.115,-0.275
1269,-0.135,-0.265
1270,-0.125,-0.265
1271,-0.125,-0.265
1272,-0.135,-0.275
1273,-0.135,-0.265
1274,-0.135,-0.255
1275,-0.115,-0.245
1276,-0.125,-0.265
1277,-0.135,-0.265
1278,-0.125,-0.265
1279,-0.155,-0.255
1280,-0.135,-0.215
1281,-0.115,-0.185
1282,-0.095,-0.155
1283,-0.055,-0.095
1284,0.015,-0.085
1285,0.015,-0.115
1286,-0.005,-0.175
1287,-0.075,-0.205
1288,-0.135,-0.265
1289,-0.175,-0.285
1290,-0.195,-0.265
1291,-0.175,-0.295
1292,-0.195,-0.265
1293,-0.185,-0.275
1294,-0.185,-0.275
1295,-0.185,-0.265
1296,-0.155,-0.265
1297,-0.365,-0.335
1298,-0.595,0.085
1299,-0.415,0.345
1300,0.495,-0.325
1301,1.855,-0.215
1302,2.785,0.265
1303,2.945,-0.755
1304,0.465,-1.325
1305,-0.825,-0.845
1306,-0.825,-0.495
1307,-0.625,-0.225
1308,-0.375,0.055
1309,-0.225,0.095
1310,-0.215,0.105
1311,-0.215,0.125
1312,-0.205,0.145
1313,-0.175,0.185
1314,-0.145,0.235
1315,-0.125,0.245
1316,-0.105,0.265
1317,-0.105,0.305
1318,-0.075,0.345
1319,-0.065,0.395
1320,-0.035,0.445
1321,0.005,0.505
1322,0.045,0.615
1323,0.115,0.675
1324,0.145,0.755
1325,0.205,0.845
1326,0.265,0.945
1327,0.325,1.015
1328,0.415,1.065
1329,0.485,1.095
1330,0.535,1.075
1331,0.615,1.015
1332,0.595,0.895
1333,0.575,0.765
1334,0.525,0.595
1335,0.365,0.405
1336,0.215,0.225
1337,0.035,0.085
1338,-0.065,-0.015
1339,-0.145,-0.075
1340,-0.235,-0.155
1341,-0.305,-0.175
1342,-0.295,-0.185
1343,-0.355,-0.205
1344,-0.385,-0.195
1345,-0.345,-0.205
1346,-0.355,-0.195
1347,-0.345,-0.205
1348,-0.375,-0.195
1349,-0.365,-0.215
1350,-0.365,-0.185
1351,-0.385,-0.185
1352,-0.385,-0.185
1353,-0.385,-0.175
1354,-0.365,-0.145
1355,-0.325,-0.165
1356,-0.345,-0.165
1357,-0.345,-0.165
1358,-0.345,-0.185
1359,-0.365,-0.195
1360,-0.385,-0.185
1361,-0.365,-0.205
1362,-0.385,-0.205
1363,-0.365,-0.215
1364,-0.365,-0.225
1365,-0.385,-0.225
1366,-0.375,-0.235
1367,-0.405,-0.215
1368,-0.395,-0.255
1369,-0.405,-0.275
1370,-0.395,-0.255
1371,-0.415,-0.265
1372,-0.415,-0.305
1373,-0.405,-0.265
1374,-0.415,-0.275
1375,-0.425,-0.275
1376,-0.405,-0.285
1377,-0.405,-0.285
1378,-0.385,-0.255
1379,-0.385,-0.275
1380,-0.395,-0.285
1381,-0.415,-0.285
1382,-0.405,-0.265
1383,-0.395,-0.265
1384,-0.395,-0.285
1385,-0.385,-0.265
1386,-0.385,-0.245
1387,-0.355,-0.245
1388,-0.385,-0.275
1389,-0.395,-0.285
1390,-0.375,-0.225
1391,-0.355,-0.195
1392,-0.325,-0.175
1393,-0.335,-0.155
1394,-0.285,-0.095
1395,-0.205,-0.095
1396,-0.215,-0.155
1397,-0.265,-0.225
1398,-0.305,-0.265
1399,-0.355,-0.285
1400,-0.395,-0.295
1401,-0.405,-0.285
1402,-0.415,-0.285
1403,-0.395,-0.275
1404,-0.395,-0.285
1405,-0.405,-0.275
1406,-0.375,-0.275
1407,-0.415,-0.305
1408,-0.715,-0.225
1409,-0.785,0.165
1410,-0.355,0.155
1411,0.585,-0.315
1412,1.925,-0.005
1413,2.715,0.215
1414,2.495,-0.895
1415,0.035,-1.215
1416,-1.015,-0.745
1417,-0.945,-0.405
1418,-0.765,-0.115
1419,-0.435,0.105
1420,-0.375,0.085
1421,-0.365,0.105
1422,-0.345,0.145
1423,-0.325,0.175
1424,-0.315,0.185
1425,-0.295,0.215
1426,-0.255,0.265
1427,-0.225,0.285
1428,-0.225,0.305
1429,-0.195,0.375
1430,-0.155,0.425
1431,-0.135,0.505
1432,-0.095,0.545
1433,-0.035,0.615
1434,0.005,0.725
1435,0.065,0.805
1436,0.105,0.905
1437,0.185,0.985
1438,0.265,1.065
1439,0.345,1.125
1440,0.425,1.105
1441,0.465,1.065
1442,0.505,0.995
1443,0.505,0.845
1444,0.445,0.665
1445,0.345,0.495
1446,0.205,0.305
1447,0.025,0.145
1448,-0.115,0.015
1449,-0.215,-0.085
1450,-0.305,-0.145
1451,-0.345,-0.185
1452,-0.395,-0.215
1453,-0.415,-0.235
1454,-0.415,-0.225
1455,-0.455,-0.225
1456,-0.445,-0.255
1457,-0.445,-0.215
1458,-0.425,-0.225
1459,-0.405,-0.235
1460,-0.425,-0.225
1461,-0.435,-0.225
1462,-0.435,-0.195
1463,-0.435,-0.215
1464,-0.425,-0.215
1465,-0.405,-0.205
1466,-0.415,-0.195
1467,-0.375,-0.195
1468,-0.385,-0.205
1469,-0.385,-0.215
1470,-0.385,-0.205
1471,-0.385,-0.235
1472,-0.405,-0.215
1473,-0.355,-0.225
1474,-0.355,-0.245
1475,-0.355,-0.235
1476,-0.355,-0.255
1477,-0.365,-0.255
1478,-0.355,-0.255
1479,-0.395,-0.275
1480,-0.375,-0.275
1481,-0.365,-0.265
1482,-0.365,-0.265
1483,-0.345,-0.265
1484,-0.375,-0.285
1485,-0.385,-0.285
1486,-0.375,-0.265
1487,-0.385,-0.275
1488,-0.385,-0.275
1489,-0.385,-0.285
1490,-0.385,-0.265
1491,-0.355,-0.255
1492,-0.365,-0.265
1493,-0.365,-0.255
1494,-0.315,-0.235
1495,-0.345,-0.235
1496,-0.335,-0.235
1497,-0.255,-0.225
1498,-0.215,-0.185
1499,-0.145,-0.155
1500,-0.115,-0.155
1501,-0.035,-0.145
1502,0.035,-0.125
1503,0.035,-0.135
1504,0.055,-0.135
1505,0.055,-0.185
1506,0.045,-0.115
1507,0.155,-0.095
1508,0.125,-0.085
1509,0.105,-0.035
1510,0.155,0.005
1511,0.205,0.005
1512,0.215,-0.045
1513,0.155,-0.125
1514,0.145,-0.155
1515,0.095,-0.215
1516,0.135,-0.195
1517,0.015,-0.185
1518,-0.045,-0.185
1519,-0.025,-0.185
1520,-0.015,-0.195
1521,-0.015,-0.185
1522,0.035,-0.165
1523,-0.025,-0.265
1524,-0.375,-0.145
1525,-0.415,0.225
1526,0.125,0.235
1527,1.225,-0.075
1528,2.535,0.415
1529,3.065,0.535
1530,2.585,-0.965
1531,0.135,-1.175
1532,-0.715,-0.705
1533,-0.515,-0.355
1534,-0.405,-0.115
1535,-0.095,0.145
1536,-0.025,0.135
1537,0.015,0.125
1538,0.045,0.185
1539,0.075,0.205
1540,0.075,0.225
1541,0.065,0.275
1542,0.115,0.295
1543,0.075,0.325
1544,0.125,0.355
1545,0.145,0.375
1546,0.275,0.415
1547,0.375,0.475
1548,0.325,0.565
1549,0.235,0.625
1550,0.325,0.755
1551,0.235,0.845
1552,0.315,0.925
1553,0.415,0.995
1554,0.505,1.075
1555,0.675,1.095
1556,0.745,1.095
1557,0.855,1.035
1558,0.915,1.005
1559,0.625,0.875
1560,0.685,0.675
1561,0.575,0.495
1562,0.525,0.315
1563,0.285,0.115
1564,0.195,-0.005
1565,0.225,-0.095
1566,-0.045,-0.055
1567,-0.065,-0.175
1568,-0.005,-0.215
1569,0.035,-0.235
1570,-0.005,-0.185
1571,-0.115,-0.225
1572,0.075,-0.275
1573,0.045,-0.215
1574,-0.175,-0.185
1575,-0.205,-0.235
1576,0.095,-0.235
1577,-0.155,-0.205
1578,-0.035,-0.175
1579,-0.035,-0.195
1580,-0.045,-0.255
1581,0.055,-0.185
1582,-0.005,-0.255
1583,-0.155,-0.245
1584,0.305,-0.285
1585,-0.245,-0.125
1586,-0.145,-0.265
1587,0.065,-0.315
1588,-0.215,-0.245
1589,-0.175,-0.265
1590,-0.105,-0.295
1591,0.025,-0.305
1592,-0.055,-0.305
1593,-0.075,-0.315
1594,-0.055,-0.315
1595,0.105,-0.295
1596,-0.075,-0.295
1597,-0.275,-0.255
1598,-0.155,-0.335
1599,-0.075,-0.365
1600,0.015,-0.335
1601,-0.075,-0.335
1602,-0.145,-0.285
1603,-0.185,-0.275
1604,-0.135,-0.345
1605,-0.025,-0.325
1606,0.035,-0.305
1607,-0.025,-0.305
1608,-0.245,-0.325
1609,0.025,-0.375
1610,0.065,-0.245
1611,-0.265,-0.255
1612,0.175,-0.285
1613,-0.245,-0.365
1614,-0.255,-0.325
1615,-0.145,-0.305
1616,-0.035,-0.325
1617,-0.045,-0.305
1618,-0.015,-0.275
1619,0.045,-0.295
1620,0.225,-0.295
1621,-0.105,-0.255
1622,-0.225,-0.275
1623,-0.135,-0.285
1624,-0.065,-0.115
1625,0.215,-0.255
1626,0.025,-0.145
1627,0.015,-0.175
1628,0.185,-0.185
1629,0.005,-0.215
1630,-0.095,-0.245
1631,-0.095,-0.175
1632,-0.055,-0.365
1633,-0.045,-0.385
1634,0.465,-0.315
1635,0.005,-0.225
1636,-0.475,-0.335
1637,-0.315,-0.305
1638,0.085,-0.335
1639,-0.125,-0.315
1640,-0.415,-0.405
1641,-0.455,0.075
1642,-0.265,0.345
1643,1.115,-0.015
1644,2.075,0.075
1645,2.785,0.475
1646,2.985,-0.485
1647,0.735,-1.335
1648,-0.525,-0.915
1649,-0.935,-0.685
1650,-0.295,-0.425
1651,-0.105,-0.135
1652,-0.365,-0.035
1653,-0.115,0.005
1654,-0.385,0.055
1655,-0.255,0.075
1656,-0.105,0.205
1657,-0.145,0.245
1658,0.145,0.075
1659,0.025,0.125
1660,-0.075,0.155
1661,-0.025,0.235
1662,-0.115,0.305
1663,0.195,0.365
1664,0.055,0.435
1665,0.235,0.505
1666,0.165,0.615
1667,-0.005,0.695
1668,0.195,0.755
1669,0.385,0.845
1670,0.295,0.885
1671,0.405,0.925
1672,0.755,0.965
1673,0.525,0.935
1674,0.655,0.855
1675,0.515,0.765
1676,0.525,0.535
1677,0.895,0.375
1678,0.225,0.245
1679,0.025,0.135
1680,-0.035,-0.075
1681,-0.215,-0.135
1682,-0.225,-0.165
1683,-0.135,-0.255
1684,-0.315,-0.265
1685,-0.265,-0.315
1686,-0.195,-0.275
1687,-0.365,-0.245
1688,-0.275,-0.275
1689,-0.325,-0.305
1690,-0.315,-0.245
1691,-0.305,-0.255
1692,-0.195,-0.265
1693,-0.395,-0.215
1694,-0.385,-0.275
1695,-0.265,-0.245
1696,-0.315,-0.265
1697,-0.285,-0.235
1698,-0.365,-0.235
1699,-0.225,-0.305
1700,-0.355,-0.285
1701,-0.235,-0.255
1702,-0.345,-0.235
1703,-0.345,-0.315
1704,-0.355,-0.265
1705,-0.335,-0.275
1706,-0.315,-0.285
1707,-0.185,-0.325
1708,-0.435,-0.345
1709,-0.385,-0.325
1710,-0.375,-0.305
1711,-0.295,-0.355
1712,-0.345,-0.355
1713,-0.475,-0.345
1714,-0.425,-0.245
1715,-0.225,-0.335
1716,-0.475,-0.405
1717,-0.485,-0.335
1718,-0.385,-0.315
1719,-0.325,-0.335
1720,-0.295,-0.335
1721,-0.375,-0.295
1722,-0.455,-0.335
1723,-0.345,-0.275
1724,-0.475,-0.305
1725,-0.435,-0.315
1726,-0.225,-0.275
1727,-0.495,-0.365
1728,-0.465,-0.345
1729,-0.315,-0.305
1730,-0.455,-0.275
1731,-0.355,-0.305
1732,-0.415,-0.275
1733,-0.325,-0.225
1734,-0.425,-0.165
1735,-0.265,-0.165
1736,-0.295,-0.175
1737,-0.335,-0.155
1738,-0.185,-0.195
1739,-0.265,-0.235
1740,-0.415,-0.325
1741,-0.345,-0.375
1742,-0.425,-0.305
1743,-0.405,-0.365
1744,-0.425,-0.295
1745,-0.495,-0.355
1746,-0.415,-0.325
1747,-0.465,-0.315
1748,-0.335,-0.335
1749,-0.585,-0.495
1750,-0.815,-0.155
1751,-0.855,0.155
1752,-0.045,-0.075
1753,1.195,-0.115
1754,2.565,0.505
1755,3.035,-0.045
1756,1.015,-1.435
1757,-0.845,-1.095
1758,-1.205,-0.635
1759,-0.955,-0.315
1760,-0.595,-0.045
1761,-0.465,0.045
1762,-0.315,0.055
1763,-0.425,0.045
1764,-0.415,0.095
1765,-0.275,0.145
1766,-0.385,0.105
1767,-0.335,0.185
1768,-0.245,0.175
1769,-0.305,0.215
1770,-0.235,0.295
1771,-0.265,0.305
1772,-0.235,0.365
1773,-0.205,0.395
1774,-0.115,0.495
1775,0.035,0.565
1776,0.005,0.655
1777,-0.015,0.755
1778,0.125,0.875
1779,0.225,0.905
1780,0.265,0.995
1781,0.305,0.975
1782,0.315,0.945
1783,0.425,0.905
1784,0.405,0.805
1785,0.465,0.665
1786,0.415,0.475
1787,0.155,0.275
1788,-0.005,0.095
1789,-0.045,0.025
1790,-0.235,-0.105
1791,-0.355,-0.195
1792,-0.405,-0.225
1793,-0.375,-0.235
1794,-0.285,-0.245
1795,-0.285,-0.225
1796,-0.525,-0.275
1797,-0.485,-0.295
1798,-0.555,-0.255
1799,-0.495,-0.245
1800,-0.405,-0.255
1801,-0.425,-0.265
1802,-0.365,-0.235
1803,-0.365,-0.275
1804,-0.405,-0.255
1805,-0.455,-0.255
1806,-0.435,-0.245
1807,-0.445,-0.215
1808,-0.455,-0.255
1809,-0.275,-0.275
1810,-0.345,-0.225
1811,-0.415,-0.265
1812,-0.425,-0.285
1813,-0.505,-0.295
1814,-0.465,-0.265
1815,-0.415,-0.315
1816,-0.415,-0.325
1817,-0.325,-0.295
1818,-0.455,-0.275
1819,-0.405,-0.315
1820,-0.425,-0.325
1821,-0.435,-0.305
1822,-0.385,-0.325
1823,-0.305,-0.335
1824,-0.485,-0.305
1825,-0.385,-0.315
1826,-0.485,-0.305
1827,-0.375,-0.275
1828,-0.395,-0.305
1829,-0.445,-0.325
1830,-0.395,-0.325
1831,-0.375,-0.305
1832,-0.415,-0.315
1833,-0.215,-0.295
1834,-0.355,-0.285
1835,-0.465,-0.295
1836,-0.435,-0.305
1837,-0.335,-0.265
1838,-0.325,-0.225
1839,-0.325,-0.205
1840,-0.305,-0.165
1841,-0.235,-0.105
1842,-0.145,-0.135
1843,-0.185,-0.195
1844,-0.215,-0.235
1845,-0.335,-0.305
1846,-0.335,-0.325
1847,-0.345,-0.325
1848,-0.385,-0.315
1849,-0.365,-0.285
1850,-0.245,-0.285
1851,-0.405,-0.285
1852,-0.435,-0.295
1853,-0.275,-0.325
1854,-0.295,-0.375
1855,-0.745,-0.315
1856,-0.725,0.035
1857,-0.415,0.155
1858,0.665,-0.155
1859,2.015,0.235
1860,2.745,0.385
1861,2.155,-0.885
1862,-0.185,-1.215
1863,-1.035,-0.775
1864,-0.965,-0.435
1865,-0.755,-0.185
1866,-0.425,0.055
1867,-0.195,0.025
1868,-0.355,0.065
1869,-0.275,0.105
1870,-0.265,0.115
1871,-0.325,0.175
1872,-0.265,0.165
1873,-0.265,0.175
1874,-0.185,0.215
1875,-0.205,0.245
1876,-0.095,0.315
1877,-0.155,0.335
1878,-0.195,0.405
1879,-0.055,0.475
1880,-0.065,0.505
1881,-0.035,0.625
1882,0.115,0.695
1883,0.245,0.735
1884,0.125,0.865
1885,0.235,0.915
1886,0.575,0.965
1887,0.405,0.975
1888,0.425,0.935
1889,0.525,0.875
1890,0.455,0.775
1891,0.435,0.555
1892,0.335,0.395
1893,0.095,0.205
1894,0.015,0.085
1895,-0.005,-0.045
1896,-0.235,-0.095
1897,-0.365,-0.175
1898,-0.295,-0.185
1899,-0.285,-0.225
1900,-0.325,-0.205
1901,-0.365,-0.255
1902,-0.355,-0.245
1903,-0.375,-0.225
1904,-0.295,-0.235
1905,-0.275,-0.195
1906,-0.355,-0.205
1907,-0.385,-0.245
1908,-0.345,-0.215
1909,-0.295,-0.165
1910,-0.245,-0.205
1911,-0.335,-0.245
1912,-0.325,-0.215
1913,-0.335,-0.235
1914,-0.175,-0.205
1915,-0.205,-0.225
1916,-0.365,-0.245
1917,-0.325,-0.245
1918,-0.275,-0.235
1919,-0.305,-0.255
1920,-0.285,-0.255
1921,-0.265,-0.245
1922,-0.285,-0.245
1923,-0.215,-0.305
1924,-0.295,-0.235
1925,-0.265,-0.295
1926,-0.335,-0.305
1927,-0.315,-0.295
1928,-0.245,-0.295
1929,-0.265,-0.295
1930,-0.215,-0.265
1931,-0.245,-0.275
1932,-0.315,-0.285
1933,-0.225,-0.275
1934,-0.285,-0.285
1935,-0.315,-0.275
1936,-0.325,-0.275
1937,-0.285,-0.255
1938,-0.295,-0.275
1939,-0.235,-0.215
1940,-0.215,-0.145
1941,-0.235,-0.155
1942,-0.215,-0.145
1943,-0.205,-0.105
1944,-0.225,-0.155
1945,-0.195,-0.225
1946,-0.205,-0.215
1947,-0.285,-0.315
1948,-0.275,-0.295
1949,-0.195,-0.335
1950,-0.335,-0.285
1951,-0.405,-0.275
1952,-0.415,-0.305
1953,-0.385,-0.325
1954,-0.355,-0.245
1955,-0.315,-0.305
1956,-0.485,-0.455
1957,-0.785,-0.235
1958,-0.675,0.085
1959,-0.045,0.105
1960,1.045,0.005
1961,2.245,0.555
1962,2.805,0.245
1963,1.025,-1.275
1964,-0.765,-1.115
1965,-1.085,-0.695
1966,-0.875,-0.385
1967,-0.655,-0.085
1968,-0.325,0.025
1969,-0.345,0.025
1970,-0.365,0.045
1971,-0.255,0.075
1972,-0.285,0.095
1973,-0.305,0.125
1974,-0.275,0.145
1975,-0.225,0.165
1976,-0.185,0.195
1977,-0.175,0.245
1978,-0.135,0.265
1979,-0.135,0.305
1980,-0.115,0.345
1981,-0.025,0.435
1982,0.015,0.505
1983,0.195,0.565
1984,-0.035,0.635
1985,0.125,0.715
1986,0.245,0.825
1987,0.305,0.875
1988,0.415,0.895
1989,0.465,0.885
1990,0.505,0.845
1991,0.505,0.785
1992,0.505,0.645
1993,0.405,0.455
1994,0.265,0.285
1995,0.095,0.135
1996,-0.055,-0.005
1997,-0.185,-0.115
1998,-0.205,-0.175
1999,-0.215,-0.185
2000,-0.225,-0.245
2001,-0.375,-0.255
2002,-0.435,-0.245
2003,-0.415,-0.265
2004,-0.375,-0.275
2005,-0.375,-0.265
2006,-0.385,-0.255
2007,-0.325,-0.235
2008,-0.385,-0.255
2009,-0.375,-0.265
2010,-0.335,-0.225
2011,-0.335,-0.235
2012,-0.365,-0.255
2013,-0.365,-0.255
2014,-0.345,-0.255
2015,-0.345,-0.265
2016,-0.355,-0.265
2017,-0.335,-0.285
2018,-0.315,-0.245
2019,-0.355,-0.305
2020,-0.395,-0.305
2021,-0.365,-0.305
2022,-0.405,-0.295
2023,-0.405,-0.305
2024,-0.455,-0.335
2025,-0.415,-0.325
2026,-0.365,-0.315
2027,-0.415,-0.325
2028,-0.395,-0.345
2029,-0.445,-0.345
2030,-0.435,-0.345
2031,-0.425,-0.335
2032,-0.445,-0.355
2033,-0.425,-0.345
2034,-0.385,-0.335
2035,-0.395,-0.335
2036,-0.405,-0.335
2037,-0.385,-0.325
2038,-0.375,-0.245
2039,-0.365,-0.255
2040,-0.335,-0.265
2041,-0.255,-0.195
2042,-0.205,-0.205
2043,-0.245,-0.235
2044,-0.305,-0.315
2045,-0.345,-0.355
2046,-0.395,-0.385
2047,-0.445,-0.395
2048,-0.455,-0.395
2049,-0.435,-0.385
2050,-0.425,-0.375
2051,-0.415,-0.385
2052,-0.425,-0.385
2053,-0.415,-0.375
2054,-0.375,-0.385
2055,-0.755,-0.525
2056,-0.835,-0.115
2057,-0.365,0.175
2058,0.685,-0.095
2059,2.145,0.285
2060,2.985,0.605
2061,1.575,-1.135
2062,-0.575,-1.375
2063,-1.105,-0.985
2064,-0.905,-0.655
2065,-0.665,-0.345
2066,-0.315,-0.055
2067,-0.295,-0.095
2068,-0.275,-0.075
2069,-0.245,-0.055
2070,-0.235,-0.025
2071,-0.185,-0.005
2072,-0.135,0.025
2073,-0.125,0.045
2074,-0.065,0.105
2075,-0.045,0.125
2076,-0.005,0.135
2077,0.015,0.185
2078,0.075,0.255
2079,0.105,0.305
2080,0.155,0.355
2081,0.205,0.435
2082,0.305,0.535
2083,0.415,0.635
2084,0.495,0.705
2085,0.585,0.775
2086,0.645,0.815
2087,0.725,0.805
2088,0.785,0.795
2089,0.835,0.755
2090,0.825,0.655
2091,0.755,0.485
2092,0.625,0.325
2093,0.495,0.155
2094,0.355,0.025
2095,0.235,-0.075
2096,0.165,-0.165
2097,0.105,-0.215
2098,0.095,-0.235
2099,0.065,-0.255
2100,0.035,-0.305
2101,0.045,-0.315
2102,0.045,-0.285
2103,0.065,-0.275
2104,0.075,-0.285
2105,0.095,-0.285
2106,0.125,-0.265
2107,0.135,-0.255
2108,0.135,-0.265
2109,0.145,-0.265
2110,0.145,-0.265
2111,0.135,-0.285
2112,0.185,-0.265
2113,0.195,-0.255
2114,0.215,-0.295
2115,0.195,-0.295
2116,0.195,-0.315
2117,0.205,-0.325
2118,0.215,-0.335
2119,0.225,-0.315
2120,0.205,-0.335
2121,0.225,-0.345
2122,0.235,-0.345
2123,0.245,-0.335
2124,0.245,-0.365
2125,0.255,-0.365
2126,0.265,-0.345
2127,0.245,-0.355
2128,0.255,-0.345
2129,0.255,-0.355
2130,0.315,-0.275
2131,0.335,-0.265
2132,0.345,-0.255
2133,0.385,-0.255
2134,0.445,-0.215
2135,0.465,-0.235
2136,0.465,-0.275
2137,0.395,-0.335
2138,0.365,-0.355
2139,0.325,-0.395
2140,0.265,-0.405
2141,0.285,-0.415
2142,0.315,-0.395
2143,0.315,-0.385
2144,0.325,-0.385
2145,0.325,-0.365
2146,0.335,-0.375
2147,0.375,-0.365
2148,0.125,-0.475
2149,-0.065,-0.135
2150,0.225,0.245
2151,1.155,0.255
2152,2.345,0.085
2153,2.945,0.515
2154,3.145,-0.275
2155,1.055,-1.415
2156,-0.155,-1.125
2157,-0.305,-0.855
2158,-0.165,-0.625
2159,0.005,-0.375
2160,0.275,-0.105
2161,0.365,-0.065
2162,0.385,-0.045
2163,0.405,-0.025
2164,0.425,-0.005
2165,0.455,0.035
2166,0.455,0.065
2167,0.495,0.105
2168,0.505,0.135
2169,0.535,0.155
2170,0.585,0.215
2171,0.605,0.245
2172,0.615,0.295
2173,0.635,0.355
2174,0.685,0.445
2175,0.765,0.525
2176,0.835,0.575
2177,0.895,0.675
2178,1.015,0.755
2179,1.045,0.775
2180,1.135,0.795
2181,1.155,0.785
2182,1.195,0.755
2183,1.175,0.665
2184,1.125,0.525
2185,0.985,0.335
2186,0.835,0.165
2187,0.655,0.025
2188,0.525,-0.075
2189,0.445,-0.145
2190,0.355,-0.205
2191,0.315,-0.235
2192,0.285,-0.255
2193,0.235,-0.285
2194,0.255,-0.275
2195,0.225,-0.285
2196,0.175,-0.275
2197,0.215,-0.275
2198,0.195,-0.245
2199,0.215,-0.255
2200,0.195,-0.235
2201,0.185,-0.245
2202,0.215,-0.225
2203,0.195,-0.235
2204,0.185,-0.245
2205,0.185,-0.235
2206,0.175,-0.235
2207,0.165,-0.235
2208,0.155,-0.255
2209,0.145,-0.255
2210,0.175,-0.235
2211,0.125,-0.275
2212,0.105,-0.275
2213,0.095,-0.285
2214,0.085,-0.265
2215,0.065,-0.265
2216,0.065,-0.285
2217,0.025,-0.285
2218,0.085,-0.205
2219,0.075,-0.215
2220,0.085,-0.205
2221,0.135,-0.185
2222,0.155,-0.185
2223,0.145,-0.175
2224,0.085,-0.255
2225,0.035,-0.285
2226,-0.025,-0.325
2227,-0.065,-0.355
2228,-0.115,-0.365
2229,-0.135,-0.365
2230,-0.145,-0.365
2231,-0.185,-0.345
2232,-0.175,-0.345
2233,-0.175,-0.335
2234,-0.145,-0.305
2235,-0.145,-0.335
2236,-0.515,-0.375
2237,-0.625,0.115
2238,-0.085,0.405
2239,1.065,-0.095
2240,2.445,0.105
2241,3.025,0.305
2242,2.075,-0.985
2243,-0.265,-1.275
2244,-0.985,-0.905
2245,-0.875,-0.595
2246,-0.685,-0.305
2247,-0.375,-0.025
2248,-0.255,0.015
2249,-0.275,0.005
2250,-0.205,0.055
2251,-0.195,0.075
2252,-0.185,0.105
2253,-0.195,0.115
2254,-0.185,0.155
2255,-0.155,0.185
2256,-0.145,0.225
2257,-0.095,0.265
2258,-0.045,0.335
2259,-0.015,0.385
2260,0.015,0.465
2261,0.055,0.535
2262,0.085,0.625
2263,0.175,0.725
2264,0.245,0.795
2265,0.335,0.885
2266,0.425,0.925
2267,0.465,0.935
2268,0.505,0.905
2269,0.545,0.835
2270,0.505,0.725
2271,0.455,0.565
2272,0.325,0.375
2273,0.165,0.185
2274,0.065,0.065
2275,-0.105,-0.075
2276,-0.205,-0.165
2277,-0.275,-0.225
2278,-0.345,-0.255
2279,-0.365,-0.285
2280,-0.395,-0.305
2281,-0.415,-0.285
2282,-0.365,-0.285
2283,-0.415,-0.295
2284,-0.415,-0.275
2285,-0.395,-0.275
2286,-0.415,-0.275
2287,-0.385,-0.255
2288,-0.405,-0.275
2289,-0.375,-0.245
2290,-0.365,-0.245
2291,-0.375,-0.255
2292,-0.375,-0.255
2293,-0.355,-0.245
2294,-0.365,-0.245
2295,-0.375,-0.245
2296,-0.375,-0.265
2297,-0.385,-0.285
2298,-0.375,-0.265
2299,-0.375,-0.275
2300,-0.385,-0.295
2301,-0.395,-0.305
2302,-0.405,-0.305
2303,-0.425,-0.305
2304,-0.425,-0.315
2305,-0.415,-0.305
2306,-0.385,-0.285
2307,-0.395,-0.265
2308,-0.365,-0.215
2309,-0.335,-0.195
2310,-0.325,-0.215
2311,-0.275,-0.175
2312,-0.265,-0.225
2313,-0.265,-0.215
2314,-0.315,-0.285
2315,-0.365,-0.325
2316,-0.435,-0.365
2317,-0.465,-0.375
2318,-0.475,-0.365
2319,-0.505,-0.365
2320,-0.505,-0.365
2321,-0.505,-0.365
2322,-0.465,-0.335
2323,-0.475,-0.335
2324,-0.455,-0.335
2325,-0.625,-0.415
2326,-0.935,-0.205
2327,-0.755,0.195
2328,0.165,-0.015
2329,1.515,-0.105
2330,2.575,0.395
2331,2.795,-0.165
2332,0.595,-1.355
2333,-0.965,-1.115
2334,-1.235,-0.725
2335,-0.985,-0.365
2336,-0.685,-0.075
2337,-0.465,0.025
2338,-0.435,0.015
2339,-0.465,0.025
2340,-0.425,0.055
2341,-0.405,0.075
2342,-0.375,0.125
2343,-0.365,0.145
2344,-0.335,0.165
2345,-0.315,0.215
2346,-0.265,0.245
2347,-0.255,0.285
2348,-0.225,0.345
2349,-0.185,0.415
2350,-0.145,0.495
2351,-0.115,0.565
2352,-0.055,0.665
2353,0.045,0.755
2354,0.105,0.835
2355,0.215,0.925
2356,0.265,0.945
2357,0.325,0.955
2358,0.355,0.915
2359,0.385,0.855
2360,0.375,0.725
2361,0.305,0.555
2362,0.245,0.385
2363,0.065,0.195
2364,-0.085,0.025
2365,-0.225,-0.075
2366,-0.315,-0.155
2367,-0.395,-0.215
2368,-0.435,-0.265
2369,-0.465,-0.275
2370,-0.455,-0.255
2371,-0.475,-0.265
2372,-0.475,-0.295
2373,-0.495,-0.305
2374,-0.505,-0.285
2375,-0.515,-0.285
2376,-0.515,-0.285
2377,-0.495,-0.275
2378,-0.485,-0.255
2379,-0.465,-0.245
2380,-0.485,-0.245
2381,-0.485,-0.255
2382,-0.475,-0.245
2383,-0.475,-0.245
2384,-0.485,-0.275
2385,-0.455,-0.265
2386,-0.455,-0.255
2387,-0.435,-0.275
2388,-0.465,-0.285
2389,-0.465,-0.285
2390,-0.445,-0.295
2391,-0.475,-0.295
2392,-0.465,-0.295
2393,-0.495,-0.305
2394,-0.455,-0.285
2395,-0.465,-0.315
2396,-0.465,-0.295
2397,-0.455,-0.305
2398,-0.435,-0.255
2399,-0.435,-0.215
2400,-0.395,-0.215
2401,-0.355,-0.195
2402,-0.305,-0.175
2403,-0.265,-0.215
2404,-0.295,-0.225
2405,-0.355,-0.305
2406,-0.385,-0.335
2407,-0.445,-0.375
2408,-0.485,-0.375
2409,-0.495,-0.395
2410,-0.485,-0.355
2411,-0.475,-0.365
2412,-0.485,-0.365
2413,-0.465,-0.355
2414,-0.485,-0.365
2415,-0.445,-0.335
2416,-0.615,-0.455
2417,-0.925,-0.205
2418,-0.795,0.175
2419,0.125,-0.045
2420,1.575,-0.005
2421,2.645,0.575
2422,2.855,-0.225
2423,0.505,-1.415
2424,-1.045,-1.065
2425,-1.195,-0.655
2426,-0.925,-0.345
2427,-0.635,-0.055
2428,-0.435,0.015
2429,-0.415,-0.005
2430,-0.425,0.015
2431,-0.395,0.055
2432,-0.355,0.075
2433,-0.345,0.105
2434,-0.285,0.135
2435,-0.295,0.145
2436,-0.275,0.195
2437,-0.245,0.235
2438,-0.215,0.285
2439,-0.195,0.335
2440,-0.145,0.395
2441,-0.105,0.455
2442,-0.045,0.555
2443,0.025,0.645
2444,0.045,0.705
2445,0.145,0.805
2446,0.215,0.875
2447,0.305,0.935
2448,0.375,0.955
2449,0.445,0.915
2450,0.465,0.845
2451,0.445,0.755
2452,0.415,0.585
2453,0.295,0.395
2454,0.145,0.205
2455,-0.025,0.065
2456,-0.125,-0.075
2457,-0.235,-0.145
2458,-0.285,-0.195
2459,-0.355,-0.245
2460,-0.385,-0.265
2461,-0.405,-0.275
2462,-0.405,-0.275
2463,-0.415,-0.285
2464,-0.425,-0.285
2465,-0.415,-0.275
2466,-0.385,-0.255
2467,-0.415,-0.265
2468,-0.395,-0.255
2469,-0.405,-0.265
2470,-0.395,-0.255
2471,-0.405,-0.255
2472,-0.395,-0.255
2473,-0.385,-0.255
2474,-0.375,-0.235
2475,-0.355,-0.255
2476,-0.405,-0.275
2477,-0.395,-0.275
2478,-0.395,-0.255
2479,-0.385,-0.275
2480,-0.405,-0.305
2481,-0.385,-0.285
2482,-0.375,-0.275
2483,-0.385,-0.305
2484,-0.395,-0.305
2485,-0.395,-0.315
2486,-0.395,-0.325
2487,-0.415,-0.305
2488,-0.405,-0.325
2489,-0.405,-0.305
2490,-0.375,-0.295
2491,-0.395,-0.325
2492,-0.385,-0.325
2493,-0.405,-0.325
2494,-0.385,-0.315
2495,-0.395,-0.325
2496,-0.395,-0.305
2497,-0.385,-0.305
2498,-0.345,-0.255
2499,-0.295,-0.205
2500,-0.305,-0.225
2501,-0.285,-0.195
2502,-0.195,-0.175
2503,-0.195,-0.195
2504,-0.245,-0.225
2505,-0.295,-0.305
2506,-0.305,-0.335
2507,-0.335,-0.355
2508,-0.385,-0.355
2509,-0.385,-0.365
2510,-0.395,-0.355
2511,-0.385,-0.345
2512,-0.395,-0.345
2513,-0.355,-0.345
2514,-0.365,-0.325
2515,-0.295,-0.335
2516,-0.655,-0.475
2517,-0.825,-0.075
2518,-0.525,0.215
2519,0.425,-0.145
2520,1.765,0.015
2521,2.735,0.675
2522,2.875,-0.305
2523,0.375,-1.435
2524,-1.015,-1.005
2525,-1.075,-0.595
2526,-0.795,-0.295
2527,-0.485,-0.015
2528,-0.365,0.005
2529,-0.335,0.005
2530,-0.325,0.045
2531,-0.295,0.045
2532,-0.275,0.085
2533,-0.255,0.105
2534,-0.225,0.145
2535,-0.215,0.175
2536,-0.205,0.195
2537,-0.175,0.235
2538,-0.125,0.305
2539,-0.085,0.345
2540,-0.055,0.415
2541,-0.015,0.475
2542,0.045,0.565
2543,0.095,0.655
2544,0.145,0.715
2545,0.225,0.805
2546,0.315,0.875
2547,0.405,0.925
2548,0.445,0.925
2549,0.495,0.905
2550,0.515,0.835
2551,0.505,0.695
2552,0.455,0.535
2553,0.335,0.375
2554,0.225,0.205
2555,0.065,0.055
2556,-0.065,-0.065
2557,-0.155,-0.145
2558,-0.225,-0.205
2559,-0.275,-0.235
2560,-0.305,-0.255
2561,-0.325,-0.265
2562,-0.305,-0.245
2563,-0.315,-0.275
2564,-0.325,-0.275
2565,-0.315,-0.265
2566,-0.305,-0.255
2567,-0.315,-0.265
2568,-0.315,-0.245
2569,-0.295,-0.245
2570,-0.285,-0.245
2571,-0.285,-0.235
2572,-0.295,-0.255
2573,-0.285,-0.255
2574,-0.295,-0.245
2575,-0.295,-0.245
2576,-0.295,-0.265
2577,-0.305,-0.275
2578,-0.295,-0.265
2579,-0.285,-0.295
2580,-0.315,-0.315
2581,-0.305,-0.305
2582,-0.325,-0.325
2583,-0.345,-0.315
2584,-0.325,-0.335
2585,-0.325,-0.335
2586,-0.305,-0.325
2587,-0.315,-0.335
2588,-0.325,-0.345
2589,-0.345,-0.345
2590,-0.325,-0.345
2591,-0.355,-0.345
2592,-0.335,-0.355
2593,-0.335,-0.355
2594,-0.315,-0.325
2595,-0.305,-0.345
2596,-0.315,-0.335
2597,-0.305,-0.345
2598,-0.315,-0.335
2599,-0.315,-0.335
2600,-0.325,-0.345
2601,-0.295,-0.325
2602,-0.285,-0.315
2603,-0.275,-0.325
2604,-0.305,-0.325
2605,-0.275,-0.325
2606,-0.305,-0.335
2607,-0.305,-0.295
2608,-0.285,-0.295
2609,-0.255,-0.245
2610,-0.225,-0.215
2611,-0.175,-0.175
2612,-0.125,-0.175
2613,-0.105,-0.185
2614,-0.165,-0.245
2615,-0.215,-0.285
2616,-0.245,-0.345
2617,-0.275,-0.335
2618,-0.275,-0.335
2619,-0.305,-0.345
2620,-0.295,-0.335
2621,-0.295,-0.345
2622,-0.285,-0.315
2623,-0.295,-0.315
2624,-0.225,-0.335
2625,-0.565,-0.435
2626,-0.715,-0.065
2627,-0.375,0.165
2628,0.665,-0.135
2629,2.125,0.195
2630,2.895,0.675
2631,2.605,-0.505
2632,0.215,-1.275
2633,-0.925,-0.925
2634,-0.925,-0.575
2635,-0.695,-0.335
2636,-0.395,-0.065
2637,-0.265,-0.035
2638,-0.265,-0.035
2639,-0.245,-0.005
2640,-0.215,0.015
2641,-0.175,0.055
2642,-0.165,0.085
2643,-0.145,0.085
2644,-0.125,0.115
2645,-0.105,0.155
2646,-0.055,0.205
2647,-0.065,0.245
2648,-0.025,0.285
2649,0.015,0.345
2650,0.085,0.435
2651,0.105,0.485
2652,0.155,0.575
2653,0.215,0.645
2654,0.295,0.725
2655,0.335,0.815
2656,0.425,0.855
2657,0.495,0.885
2658,0.545,0.885
2659,0.585,0.835
2660,0.575,0.755
2661,0.585,0.615
2662,0.525,0.455
2663,0.395,0.275
2664,0.235,0.105
2665,0.125,-0.025
2666,0.005,-0.125
2667,-0.055,-0.185
2668,-0.145,-0.235
2669,-0.155,-0.265
2670,-0.175,-0.295
2671,-0.205,-0.285
2672,-0.205,-0.295
2673,-0.205,-0.305
2674,-0.205,-0.295
2675,-0.175,-0.285
2676,-0.175,-0.285
2677,-0.175,-0.285
2678,-0.165,-0.285
2679,-0.185,-0.275
2680,-0.165,-0.285
2681,-0.165,-0.285
2682,-0.155,-0.275
2683,-0.145,-0.285
2684,-0.155,-0.305
2685,-0.145,-0.305
2686,-0.135,-0.305
2687,-0.155,-0.305
2688,-0.145,-0.315
2689,-0.145,-0.335
2690,-0.135,-0.315
2691,-0.135,-0.335
2692,-0.135,-0.335
2693,-0.125,-0.345
2694,-0.125,-0.355
2695,-0.125,-0.335
2696,-0.135,-0.355
2697,-0.125,-0.365
2698,-0.125,-0.355
2699,-0.105,-0.355
2700,-0.105,-0.375
2701,-0.105,-0.365
2702,-0.115,-0.355
2703,-0.095,-0.345
2704,-0.105,-0.365
2705,-0.075,-0.345
2706,-0.075,-0.345
2707,-0.075,-0.345
2708,-0.085,-0.355
2709,-0.065,-0.335
2710,-0.085,-0.345
2711,-0.085,-0.345
2712,-0.065,-0.335
2713,-0.055,-0.325
2714,-0.025,-0.315
2715,-0.045,-0.325
2716,-0.045,-0.325
2717,-0.025,-0.305
2718,-0.035,-0.305
2719,-0.045,-0.305
2720,-0.015,-0.325
2721,-0.035,-0.315
2722,-0.015,-0.275
2723,0.015,-0.255
2724,0.025,-0.255
2725,0.065,-0.215
2726,0.115,-0.175
2727,0.165,-0.165
2728,0.115,-0.245
2729,0.075,-0.275
2730,0.085,-0.305
2731,0.025,-0.345
2732,-0.015,-0.335
2733,0.005,-0.335
2734,-0.015,-0.345
2735,0.005,-0.335
2736,-0.005,-0.335
2737,0.005,-0.325
2738,0.075,-0.295
2739,-0.115,-0.405
2740,-0.395,-0.105
2741,-0.235,0.215
2742,0.535,0.165
2743,1.755,0.035
2744,2.755,0.585
2745,3.125,-0.135
2746,1.195,-1.305
2747,-0.415,-1.015
2748,-0.635,-0.735
2749,-0.515,-0.525
2750,-0.355,-0.265
2751,-0.075,-0.035
2752,0.025,-0.025
2753,0.035,-0.025
2754,0.085,0.045
2755,0.105,0.045
2756,0.115,0.065
2757,0.145,0.115
2758,0.165,0.135
2759,0.175,0.175
2760,0.185,0.215
2761,0.225,0.225
2762,0.255,0.305
2763,0.295,0.345
2764,0.305,0.415
2765,0.375,0.475
2766,0.375,0.555
2767,0.445,0.635
2768,0.505,0.705
2769,0.585,0.775
2770,0.655,0.835
2771,0.715,0.865
2772,0.765,0.845
2773,0.795,0.805
2774,0.795,0.725
2775,0.785,0.615
2776,0.725,0.445
2777,0.605,0.285
2778,0.495,0.135
2779,0.345,0.015
2780,0.235,-0.095
2781,0.125,-0.165
2782,0.065,-0.215
2783,0.005,-0.245
2784,-0.025,-0.255
2785,-0.035,-0.265
2786,-0.035,-0.245
2787,-0.035,-0.255
2788,-0.065,-0.265
2789,-0.065,-0.255
2790,-0.075,-0.245
2791,-0.075,-0.245
2792,-0.065,-0.235
2793,-0.065,-0.235
2794,-0.055,-0.225
2795,-0.035,-0.235
2796,-0.065,-0.255
2797,-0.055,-0.235
2798,-0.065,-0.235
2799,-0.085,-0.245
2800,-0.085,-0.265
2801,-0.075,-0.255
2802,-0.085,-0.255
2803,-0.105,-0.265
2804,-0.115,-0.285
2805,-0.115,-0.285
2806,-0.135,-0.305
2807,-0.165,-0.305
2808,-0.145,-0.305
2809,-0.165,-0.305
2810,-0.155,-0.295
2811,-0.165,-0.315
2812,-0.165,-0.325
2813,-0.195,-0.325
2814,-0.185,-0.305
2815,-0.205,-0.315
2816,-0.195,-0.325
2817,-0.205,-0.325
2818,-0.165,-0.295
2819,-0.195,-0.315
2820,-0.205,-0.315
2821,-0.195,-0.295
2822,-0.215,-0.305
2823,-0.205,-0.305
2824,-0.205,-0.285
2825,-0.185,-0.305
2826,-0.175,-0.265
2827,-0.175,-0.285
2828,-0.215,-0.285
2829,-0.205,-0.265
2830,-0.205,-0.235
2831,-0.165,-0.185
2832,-0.165,-0.205
2833,-0.125,-0.135
2834,-0.045,-0.105
2835,-0.015,-0.135
2836,-0.075,-0.195
2837,-0.125,-0.235
2838,-0.155,-0.275
2839,-0.225,-0.295
2840,-0.235,-0.295
2841,-0.245,-0.305
2842,-0.235,-0.275
2843,-0.215,-0.275
2844,-0.225,-0.265
2845,-0.235,-0.275
2846,-0.185,-0.265
2847,-0.365,-0.375
2848,-0.655,-0.095
2849,-0.585,0.275
2850,0.295,-0.005
2851,1.665,-0.085
2852,2.695,0.435
2853,3.065,-0.095
2854,1.185,-1.285
2855,-0.605,-1.025
2856,-1.015,-0.625
2857,-0.775,-0.335
2858,-0.515,-0.025
2859,-0.245,0.095
2860,-0.245,0.055
2861,-0.245,0.095
2862,-0.195,0.125
2863,-0.215,0.155
2864,-0.195,0.165
2865,-0.175,0.185
2866,-0.135,0.225
2867,-0.115,0.255
2868,-0.095,0.295
2869,-0.085,0.325
2870,-0.025,0.385
2871,-0.025,0.445
2872,0.015,0.505
2873,0.065,0.595
2874,0.115,0.695
2875,0.195,0.785
2876,0.245,0.855
2877,0.305,0.935
2878,0.395,1.025
2879,0.445,1.045
2880,0.495,1.015
2881,0.525,0.955
2882,0.535,0.885
2883,0.555,0.725
2884,0.445,0.525
2885,0.335,0.325
2886,0.195,0.175
2887,0.035,0.035
2888,-0.075,-0.065
2889,-0.165,-0.145
2890,-0.255,-0.175
2891,-0.265,-0.215
2892,-0.305,-0.245
2893,-0.315,-0.235
2894,-0.315,-0.235
2895,-0.345,-0.235
2896,-0.355,-0.235
2897,-0.385,-0.245
2898,-0.365,-0.225
2899,-0.365,-0.215
2900,-0.345,-0.215
2901,-0.355,-0.205
2902,-0.335,-0.215
2903,-0.375,-0.205
2904,-0.355,-0.205
2905,-0.355,-0.225
2906,-0.345,-0.185
2907,-0.355,-0.235
2908,-0.365,-0.225
2909,-0.375,-0.245
2910,-0.375,-0.235
2911,-0.365,-0.245
2912,-0.385,-0.265
2913,-0.385,-0.265
2914,-0.395,-0.255
2915,-0.385,-0.275
2916,-0.425,-0.285
2917,-0.415,-0.275
2918,-0.415,-0.295
2919,-0.425,-0.285
2920,-0.425,-0.285
2921,-0.425,-0.285
2922,-0.425,-0.275
2923,-0.395,-0.295
2924,-0.435,-0.295
2925,-0.415,-0.295
2926,-0.415,-0.275
2927,-0.435,-0.285
2928,-0.415,-0.295
2929,-0.425,-0.275
2930,-0.405,-0.255
2931,-0.395,-0.265
2932,-0.405,-0.275
2933,-0.395,-0.275
2934,-0.385,-0.265
2935,-0.375,-0.235
2936,-0.385,-0.255
2937,-0.395,-0.245
2938,-0.355,-0.185
2939,-0.335,-0.165
2940,-0.305,-0.145
2941,-0.325,-0.105
2942,-0.245,-0.065
2943,-0.215,-0.075
2944,-0.235,-0.105
2945,-0.295,-0.135
2946,-0.305,-0.135
2947,-0.355,-0.155
2948,-0.395,-0.155
2949,-0.405,-0.135
2950,-0.405,-0.105
2951,-0.385,-0.095
2952,-0.395,-0.075
2953,-0.365,-0.055
2954,-0.285,-0.025
2955,-0.595,-0.065
2956,-0.825,0.055
2957,-0.555,0.185
2958,0.335,0.135
2959,1.685,0.115
2960,2.725,0.255
2961,2.935,0.135
2962,0.755,-0.165
2963,-0.875,-0.105
2964,-1.085,-0.005
2965,-0.835,0.075
2966,-0.555,0.135
2967,-0.395,0.165
2968,-0.365,0.165
2969,-0.365,0.175
2970,-0.305,0.195
2971,-0.295,0.185
2972,-0.295,0.185
2973,-0.265,0.195
2974,-0.245,0.215
2975,-0.235,0.205
2976,-0.195,0.215
2977,-0.185,0.215
2978,-0.135,0.235
2979,-0.095,0.235
2980,-0.075,0.235
2981,-0.025,0.255
2982,0.035,0.275
2983,0.085,0.285
2984,0.145,0.295
2985,0.235,0.315
2986,0.325,0.345
2987,0.405,0.345
2988,0.445,0.345
2989,0.485,0.355
2990,0.495,0.345
2991,0.465,0.315
2992,0.365,0.275
2993,0.265,0.245
2994,0.105,0.205
2995,-0.025,0.155
2996,-0.135,0.105
2997,-0.225,0.075
2998,-0.285,0.045
2999,-0.335,0.025
3000,-0.335,-0.005
3001,-0.355,-0.025
3002,-0.325,-0.025
3003,-0.355,-0.055
3004,-0.355,-0.085
3005,-0.385,-0.095
3006,-0.365,-0.095
3007,-0.365,-0.105
3008,-0.365,-0.125
3009,-0.365,-0.135
3010,-0.315,-0.135
3011,-0.335,-0.155
3012,-0.335,-0.165
3013,-0.335,-0.185
3014,-0.335,-0.185
3015,-0.345,-0.205
3016,-0.345,-0.215
3017,-0.325,-0.225
3018,-0.325,-0.215
3019,-0.315,-0.255
3020,-0.355,-0.285
3021,-0.335,-0.285
3022,-0.365,-0.285
3023,-0.355,-0.295
3024,-0.365,-0.305
3025,-0.345,-0.305
3026,-0.325,-0.295
3027,-0.345,-0.315
3028,-0.365,-0.325
3029,-0.365,-0.325
3030,-0.335,-0.315
3031,-0.355,-0.315
3032,-0.335,-0.325
3033,-0.345,-0.315
3034,-0.315,-0.305
3035,-0.325,-0.305
3036,-0.325,-0.315
3037,-0.335,-0.315
3038,-0.315,-0.305
3039,-0.325,-0.305
3040,-0.325,-0.325
3041,-0.315,-0.315
3042,-0.275,-0.295
3043,-0.295,-0.305
3044,-0.295,-0.285
3045,-0.285,-0.305
3046,-0.305,-0.275
3047,-0.265,-0.245
3048,-0.225,-0.205
3049,-0.235,-0.205
3050,-0.165,-0.145
3051,-0.085,-0.125
3052,-0.105,-0.165
3053,-0.155,-0.245
3054,-0.215,-0.275
3055,-0.235,-0.325
3056,-0.295,-0.325
3057,-0.295,-0.335
3058,-0.265,-0.315
3059,-0.275,-0.305
3060,-0.265,-0.335
3061,-0.265,-0.315
3062,-0.255,-0.315
3063,-0.235,-0.325
3064,-0.605,-0.425
3065,-0.765,0.035
3066,-0.205,0.235
3067,0.965,-0.165
3068,2.365,0.205
3069,2.995,0.585
3070,2.485,-0.725
3071,-0.005,-1.335
3072,-1.025,-0.855
3073,-0.905,-0.475
3074,-0.625,-0.165
3075,-0.315,0.025
3076,-0.285,0.015
3077,-0.255,0.045
3078,-0.255,0.065
3079,-0.245,0.105
3080,-0.205,0.115
3081,-0.175,0.145
3082,-0.135,0.195
3083,-0.135,0.205
3084,-0.125,0.245
3085,-0.095,0.275
3086,-0.085,0.335
3087,-0.045,0.385
3088,-0.015,0.445
3089,0.065,0.525
3090,0.135,0.615
3091,0.155,0.685
3092,0.225,0.755
3093,0.275,0.835
3094,0.355,0.905
3095,0.455,0.945
3096,0.505,0.935
3097,0.535,0.905
3098,0.595,0.855
3099,0.565,0.725
3100,0.515,0.575
3101,0.405,0.385
3102,0.245,0.215
3103,0.075,0.055
3104,-0.035,-0.055
3105,-0.125,-0.135
3106,-0.165,-0.175
3107,-0.235,-0.225
3108,-0.265,-0.255
3109,-0.295,-0.275
3110,-0.305,-0.265
3111,-0.285,-0.275
3112,-0.315,-0.285
3113,-0.295,-0.275
3114,-0.285,-0.265
3115,-0.285,-0.265
3116,-0.305,-0.275
3117,-0.295,-0.265
3118,-0.285,-0.245
3119,-0.305,-0.255
3120,-0.275,-0.265
3121,-0.285,-0.265
3122,-0.255,-0.255
3123,-0.255,-0.265
3124,-0.275,-0.265
3125,-0.275,-0.265
3126,-0.265,-0.275
3127,-0.285,-0.275
3128,-0.275,-0.295
3129,-0.285,-0.305
3130,-0.275,-0.295
3131,-0.295,-0.315
3132,-0.295,-0.325
3133,-0.295,-0.325
3134,-0.295,-0.315
3135,-0.295,-0.335
3136,-0.295,-0.325
3137,-0.295,-0.345
3138,-0.275,-0.325
3139,-0.285,-0.335
3140,-0.295,-0.345
3141,-0.275,-0.335
3142,-0.305,-0.345
3143,-0.285,-0.345
3144,-0.295,-0.335
3145,-0.265,-0.335
3146,-0.265,-0.315
3147,-0.255,-0.335
3148,-0.275,-0.335
3149,-0.245,-0.325
3150,-0.275,-0.325
3151,-0.245,-0.315
3152,-0.265,-0.325
3153,-0.235,-0.305
3154,-0.205,-0.315
3155,-0.235,-0.295
3156,-0.225,-0.285
3157,-0.195,-0.235
3158,-0.195,-0.225
3159,-0.135,-0.165
3160,-0.065,-0.165
3161,-0.045,-0.165
3162,-0.055,-0.215
3163,-0.135,-0.275
3164,-0.165,-0.325
3165,-0.225,-0.345
3166,-0.245,-0.345
3167,-0.235,-0.335
3168,-0.225,-0.335
3169,-0.235,-0.325
3170,-0.185,-0.315
3171,-0.205,-0.315
3172,-0.165,-0.335
3173,-0.545,-0.435
3174,-0.695,-0.025
3175,-0.285,0.235
3176,0.735,-0.145
3177,2.175,0.145
3178,2.935,0.745
3179,2.725,-0.475
3180,0.225,-1.405
3181,-0.925,-0.915
3182,-0.855,-0.515
3183,-0.575,-0.215
3184,-0.265,0.005
3185,-0.185,0.015
3186,-0.155,0.035
3187,-0.165,0.045
3188,-0.135,0.065
3189,-0.105,0.085
3190,-0.095,0.135
3191,-0.075,0.155
3192,-0.055,0.165
3193,-0.045,0.205
3194,0.025,0.255
3195,0.015,0.295
3196,0.065,0.355
3197,0.095,0.405
3198,0.155,0.495
3199,0.175,0.545
3200,0.245,0.645
3201,0.305,0.745
3202,0.415,0.825
3203,0.475,0.885
3204,0.535,0.935
3205,0.605,0.955
3206,0.655,0.945
3207,0.685,0.865
3208,0.665,0.765
3209,0.655,0.605
3210,0.585,0.455
3211,0.435,0.265
3212,0.255,0.085
3213,0.135,-0.035
3214,0.025,-0.115
3215,-0.025,-0.165
3216,-0.085,-0.225
3217,-0.085,-0.225
3218,-0.095,-0.255
3219,-0.115,-0.255
3220,-0.125,-0.265
3221,-0.145,-0.275
3222,-0.125,-0.255
3223,-0.135,-0.255
3224,-0.125,-0.265
3225,-0.125,-0.245
3226,-0.085,-0.225
3227,-0.095,-0.235
3228,-0.095,-0.245
3229,-0.095,-0.255
3230,-0.085,-0.255
3231,-0.085,-0.245
3232,-0.075,-0.245
3233,-0.075,-0.265
3234,-0.065,-0.245
3235,-0.065,-0.265
3236,-0.095,-0.275
3237,-0.075,-0.295
3238,-0.085,-0.275
3239,-0.085,-0.285
3240,-0.085,-0.295
3241,-0.085,-0.305
3242,-0.075,-0.295
3243,-0.075,-0.315
3244,-0.085,-0.315
3245,-0.075,-0.335
3246,-0.105,-0.315
3247,-0.095,-0.325
3248,-0.095,-0.335
3249,-0.085,-0.315
3250,-0.045,-0.295
3251,-0.055,-0.315
3252,-0.075,-0.325
3253,-0.065,-0.315
3254,-0.075,-0.315
3255,-0.075,-0.315
3256,-0.055,-0.315
3257,-0.055,-0.315
3258,-0.025,-0.295
3259,-0.025,-0.295
3260,-0.025,-0.305
3261,-0.025,-0.295
3262,-0.015,-0.295
3263,-0.025,-0.295
3264,-0.035,-0.295
3265,-0.045,-0.265
3266,0.055,-0.215
3267,0.055,-0.215
3268,0.055,-0.185
3269,0.145,-0.145
3270,0.175,-0.125
3271,0.145,-0.205
3272,0.105,-0.245
3273,0.095,-0.285
3274,0.045,-0.305
3275,0.025,-0.315
3276,0.005,-0.315
3277,0.045,-0.305
3278,0.005,-0.305
3279,0.025,-0.285
3280,0.025,-0.315
3281,0.095,-0.275
3282,-0.125,-0.395
3283,-0.375,-0.095
3284,-0.205,0.225
3285,0.675,0.115
3286,1.985,0.025
3287,2.835,0.615
3288,3.145,-0.035
3289,0.995,-1.335
3290,-0.435,-0.995
3291,-0.615,-0.655
3292,-0.415,-0.405
3293,-0.175,-0.115
3294,0.055,0.025
3295,0.065,0.035
3296,0.115,0.035
3297,0.135,0.065
3298,0.175,0.105
3299,0.185,0.125
3300,0.195,0.135
3301,0.225,0.175
3302,0.245,0.215
3303,0.275,0.245
3304,0.285,0.275
3305,0.335,0.325
3306,0.385,0.385
3307,0.425,0.445
3308,0.465,0.505
3309,0.515,0.585
3310,0.565,0.665
3311,0.615,0.735
3312,0.695,0.795
3313,0.775,0.855
3314,0.855,0.895
3315,0.905,0.875
3316,0.915,0.805
3317,0.945,0.735
3318,0.875,0.615
3319,0.785,0.445
3320,0.645,0.245
3321,0.495,0.105
3322,0.395,-0.005
3323,0.285,-0.085
3324,0.215,-0.165
3325,0.145,-0.195
3326,0.115,-0.215
3327,0.075,-0.235
3328,0.085,-0.245
3329,0.065,-0.245
3330,0.105,-0.215
3331,0.075,-0.225
3332,0.075,-0.215
3333,0.075,-0.225
3334,0.085,-0.205
3335,0.085,-0.205
3336,0.085,-0.205
3337,0.085,-0.215
3338,0.125,-0.195
3339,0.105,-0.215
3340,0.095,-0.215
3341,0.095,-0.225
3342,0.065,-0.225
3343,0.075,-0.215
3344,0.065,-0.235
3345,0.055,-0.245
3346,0.065,-0.235
3347,0.055,-0.245
3348,0.005,-0.265
3349,0.045,-0.255
3350,-0.015,-0.265
3351,-0.005,-0.255
3352,-0.015,-0.285
3353,-0.005,-0.265
3354,0.005,-0.265
3355,-0.045,-0.275
3356,-0.045,-0.275
3357,-0.055,-0.285
3358,-0.045,-0.275
3359,-0.055,-0.255
3360,-0.075,-0.275
3361,-0.045,-0.255
3362,-0.015,-0.245
3363,-0.055,-0.255
3364,-0.065,-0.265
3365,-0.045,-0.255
3366,-0.095,-0.255
3367,-0.065,-0.215
3368,-0.055,-0.215
3369,-0.015,-0.175
3370,0.005,-0.145
3371,0.055,-0.115
3372,0.085,-0.115
3373,0.075,-0.145
3374,0.015,-0.195
3375,-0.015,-0.225
3376,-0.065,-0.275
3377,-0.095,-0.275
3378,-0.085,-0.265
3379,-0.125,-0.285
3380,-0.125,-0.285
3381,-0.105,-0.285
3382,-0.115,-0.265
3383,-0.105,-0.265
3384,-0.095,-0.275
3385,-0.425,-0.305
3386,-0.545,0.115
3387,-0.075,0.375
3388,1.075,-0.045
3389,2.405,0.115
3390,2.975,0.405
3391,2.385,-0.665
3392,0.075,-1.235
3393,-0.825,-0.855
3394,-0.745,-0.535
3395,-0.555,-0.265
3396,-0.265,0.025
3397,-0.145,0.055
3398,-0.135,0.085
3399,-0.115,0.095
3400,-0.115,0.115
3401,-0.065,0.155
3402,-0.035,0.185
3403,-0.015,0.215
3404,-0.015,0.225
3405,0.015,0.275
3406,0.025,0.315
3407,0.055,0.385
3408,0.085,0.405
3409,0.125,0.485
3410,0.195,0.575
3411,0.215,0.655
3412,0.265,0.725
3413,0.315,0.795
3414,0.415,0.905
3415,0.455,0.965
3416,0.545,1.005
3417,0.605,1.005
3418,0.665,0.975
3419,0.655,0.895
3420,0.645,0.765
3421,0.575,0.605
3422,0.445,0.435
3423,0.295,0.265
3424,0.145,0.105
3425,0.065,-0.005
3426,-0.075,-0.095
3427,-0.105,-0.135
3428,-0.185,-0.185
3429,-0.205,-0.215
3430,-0.245,-0.235
3431,-0.235,-0.225
3432,-0.265,-0.235
3433,-0.255,-0.215
3434,-0.275,-0.215
3435,-0.245,-0.205
3436,-0.255,-0.225
3437,-0.245,-0.215
3438,-0.255,-0.205
3439,-0.255,-0.195
3440,-0.275,-0.215
3441,-0.225,-0.185
3442,-0.205,-0.185
3443,-0.215,-0.195
3444,-0.235,-0.215
3445,-0.245,-0.205
3446,-0.245,-0.215
3447,-0.245,-0.205
3448,-0.245,-0.225
3449,-0.255,-0.245
3450,-0.235,-0.245
3451,-0.265,-0.255
3452,-0.275,-0.265
3453,-0.295,-0.265
3454,-0.295,-0.255
3455,-0.305,-0.275
3456,-0.295,-0.285
3457,-0.315,-0.285
3458,-0.275,-0.265
3459,-0.295,-0.265
3460,-0.295,-0.285
3461,-0.305,-0.285
3462,-0.315,-0.275
3463,-0.295,-0.275
3464,-0.305,-0.285
3465,-0.315,-0.285
3466,-0.285,-0.265
3467,-0.285,-0.275
3468,-0.295,-0.255
3469,-0.255,-0.205
3470,-0.245,-0.165
3471,-0.235,-0.175
3472,-0.195,-0.125
3473,-0.135,-0.125
3474,-0.115,-0.135
3475,-0.175,-0.185
3476,-0.215,-0.235
3477,-0.245,-0.285
3478,-0.295,-0.285
3479,-0.305,-0.295
3480,-0.315,-0.295
3481,-0.325,-0.295
3482,-0.285,-0.255
3483,-0.305,-0.265
3484,-0.275,-0.265
3485,-0.245,-0.265
3486,-0.555,-0.355
3487,-0.755,-0.095
3488,-0.525,0.265
3489,0.485,0.005
3490,1.895,0.005
3491,2.685,0.465
3492,2.825,-0.015
3493,0.735,-1.205
3494,-0.805,-0.965
3495,-0.985,-0.525
3496,-0.745,-0.255
3497,-0.425,0.025
3498,-0.295,0.105
3499,-0.295,0.075
3500,-0.305,0.085
3501,-0.245,0.125
3502,-0.255,0.145
3503,-0.225,0.165
3504,-0.205,0.185
3505,-0.195,0.205
3506,-0.155,0.245
3507,-0.125,0.275
3508,-0.115,0.285
3509,-0.085,0.335
3510,-0.055,0.385
3511,-0.015,0.435
3512,0.025,0.505
3513,0.075,0.555
3514,0.165,0.645
3515,0.205,0.715
3516,0.285,0.775
3517,0.345,0.835
3518,0.415,0.875
3519,0.465,0.865
3520,0.505,0.805
3521,0.475,0.715
3522,0.485,0.615
3523,0.335,0.425
3524,0.205,0.265
3525,0.055,0.125
3526,-0.075,0.005
3527,-0.185,-0.085
3528,-0.245,-0.155
3529,-0.305,-0.185
3530,-0.305,-0.205
3531,-0.345,-0.235
3532,-0.355,-0.235
3533,-0.345,-0.245
3534,-0.365,-0.235
3535,-0.355,-0.235
3536,-0.365,-0.245
3537,-0.355,-0.245
3538,-0.345,-0.235
3539,-0.335,-0.225
3540,-0.355,-0.245
3541,-0.345,-0.235
3542,-0.365,-0.235
3543,-0.335,-0.215
3544,-0.335,-0.235
3545,-0.325,-0.235
3546,-0.305,-0.245
3547,-0.335,-0.245
3548,-0.335,-0.255
3549,-0.335,-0.255
3550,-0.335,-0.275
3551,-0.355,-0.285
3552,-0.335,-0.265
3553,-0.345,-0.305
3554,-0.335,-0.285
3555,-0.355,-0.305
3556,-0.355,-0.315
3557,-0.345,-0.305
3558,-0.365,-0.305
3559,-0.365,-0.315
3560,-0.355,-0.315
3561,-0.355,-0.325
3562,-0.335,-0.305
3563,-0.345,-0.305
3564,-0.355,-0.315
3565,-0.345,-0.315
3566,-0.355,-0.315
3567,-0.335,-0.305
3568,-0.345,-0.315
3569,-0.335,-0.305
3570,-0.315,-0.295
3571,-0.325,-0.305
3572,-0.335,-0.295
3573,-0.315,-0.265
3574,-0.275,-0.215
3575,-0.295,-0.215
3576,-0.245,-0.175
3577,-0.175,-0.145
3578,-0.115,-0.145
3579,-0.205,-0.215
3580,-0.225,-0.255
3581,-0.295,-0.325
3582,-0.325,-0.325
3583,-0.365,-0.335
3584,-0.355,-0.335
3585,-0.335,-0.325
3586,-0.295,-0.315
3587,-0.315,-0.315
3588,-0.325,-0.315
3589,-0.275,-0.325
3590,-0.615,-0.415
3591,-0.765,-0.015
3592,-0.415,0.245
3593,0.655,-0.115
3594,2.075,0.055
3595,2.785,0.565
3596,2.495,-0.455
3597,0.065,-1.365
3598,-1.035,-0.885
3599,-0.905,-0.465
3600,-0.675,-0.215
3601,-0.365,0.025
3602,-0.295,0.035
3603,-0.315,0.025
3604,-0.295,0.045
3605,-0.275,0.065
3606,-0.255,0.095
3607,-0.225,0.125
3608,-0.205,0.155
3609,-0.195,0.185
3610,-0.145,0.235
3611,-0.155,0.265
3612,-0.105,0.295
3613,-0.085,0.345
3614,-0.045,0.425
3615,-0.015,0.485
3616,0.055,0.555
3617,0.105,0.635
3618,0.185,0.745
3619,0.245,0.825
3620,0.315,0.895
3621,0.395,0.935
3622,0.455,0.955
3623,0.495,0.915
3624,0.505,0.855
3625,0.505,0.735
3626,0.455,0.575
3627,0.355,0.375
3628,0.185,0.175
3629,0.045,0.025
3630,-0.105,-0.085
3631,-0.195,-0.165
3632,-0.245,-0.235
3633,-0.295,-0.265
3634,-0.295,-0.265
3635,-0.305,-0.275
3636,-0.345,-0.295
3637,-0.325,-0.295
3638,-0.335,-0.285
3639,-0.355,-0.285
3640,-0.345,-0.295
3641,-0.335,-0.285
3642,-0.315,-0.255
3643,-0.325,-0.275
3644,-0.325,-0.285
3645,-0.315,-0.265
3646,-0.325,-0.265
3647,-0.335,-0.275
3648,-0.315,-0.275
3649,-0.335,-0.275
3650,-0.285,-0.255
3651,-0.305,-0.275
3652,-0.315,-0.305
3653,-0.325,-0.305
3654,-0.335,-0.305
3655,-0.335,-0.315
3656,-0.335,-0.315
3657,-0.345,-0.315
3658,-0.325,-0.315
3659,-0.345,-0.335
3660,-0.355,-0.345
3661,-0.355,-0.345
3662,-0.375,-0.335
3663,-0.365,-0.355
3664,-0.375,-0.355
3665,-0.365,-0.345
3666,-0.345,-0.335
3667,-0.345,-0.345
3668,-0.355,-0.365
3669,-0.345,-0.355
3670,-0.355,-0.345
3671,-0.365,-0.345
3672,-0.335,-0.335
3673,-0.335,-0.335
3674,-0.315,-0.335
3675,-0.355,-0.335
3676,-0.335,-0.345
3677,-0.325,-0.325
3678,-0.325,-0.305
3679,-0.335,-0.325
3680,-0.315,-0.325
3681,-0.325,-0.325
3682,-0.285,-0.255
3683,-0.275,-0.255
3684,-0.275,-0.245
3685,-0.225,-0.195
3686,-0.175,-0.155
3687,-0.135,-0.165
3688,-0.205,-0.255
3689,-0.225,-0.285
3690,-0.275,-0.335
3691,-0.305,-0.345
3692,-0.345,-0.355
3693,-0.325,-0.335
3694,-0.335,-0.345
3695,-0.335,-0.325
3696,-0.335,-0.335
3697,-0.305,-0.325
3698,-0.265,-0.335
3699,-0.625,-0.425
3700,-0.775,-0.035
3701,-0.295,0.255
3702,0.785,-0.155
3703,2.125,0.115
3704,2.815,0.725
3705,2.505,-0.375
3706,0.075,-1.405
3707,-1.005,-0.955
3708,-0.945,-0.555
3709,-0.715,-0.315
3710,-0.395,-0.005
3711,-0.315,-0.015
3712,-0.315,-0.005
3713,-0.285,0.015
3714,-0.245,0.065
3715,-0.225,0.075
3716,-0.225,0.105
3717,-0.205,0.105
3718,-0.195,0.155
3719,-0.155,0.195
3720,-0.155,0.215
3721,-0.105,0.265
3722,-0.055,0.325
3723,-0.035,0.375
3724,-0.015,0.425
3725,0.035,0.505
3726,0.095,0.585
3727,0.145,0.675
3728,0.205,0.745
3729,0.275,0.815
3730,0.385,0.895
3731,0.435,0.915
3732,0.475,0.895
3733,0.495,0.845
3734,0.525,0.755
3735,0.465,0.605
3736,0.385,0.445
3737,0.255,0.265
3738,0.145,0.125
3739,0.005,-0.015
3740,-0.115,-0.125
3741,-0.215,-0.185
3742,-0.255,-0.215
3743,-0.285,-0.235
3744,-0.305,-0.255
3745,-0.305,-0.255
3746,-0.285,-0.245
3747,-0.315,-0.265
3748,-0.325,-0.255
3749,-0.295,-0.245
3750,-0.325,-0.245
3751,-0.305,-0.215
3752,-0.315,-0.225
3753,-0.295,-0.215
3754,-0.275,-0.205
3755,-0.265,-0.215
3756,-0.295,-0.205
3757,-0.275,-0.215
3758,-0.305,-0.215
3759,-0.285,-0.205
3760,-0.285,-0.225
3761,-0.285,-0.215
3762,-0.275,-0.205
3763,-0.275,-0.215
3764,-0.305,-0.245
3765,-0.295,-0.245
3766,-0.305,-0.255
3767,-0.315,-0.255
3768,-0.305,-0.275
3769,-0.325,-0.275
3770,-0.285,-0.275
3771,-0.315,-0.275
3772,-0.315,-0.305
3773,-0.315,-0.295
3774,-0.325,-0.295
3775,-0.325,-0.305
3776,-0.305,-0.325
3777,-0.335,-0.315
3778,-0.285,-0.305
3779,-0.315,-0.325
3780,-0.295,-0.325
3781,-0.295,-0.325
3782,-0.305,-0.315
3783,-0.295,-0.325
3784,-0.295,-0.335
3785,-0.285,-0.315
3786,-0.275,-0.315
3787,-0.275,-0.325
3788,-0.295,-0.325
3789,-0.265,-0.315
3790,-0.295,-0.305
3791,-0.255,-0.295
3792,-0.275,-0.325
3793,-0.265,-0.305
3794,-0.225,-0.285
3795,-0.245,-0.305
3796,-0.255,-0.325
3797,-0.275,-0.305
3798,-0.245,-0.265
3799,-0.225,-0.245
3800,-0.215,-0.235
3801,-0.175,-0.175
3802,-0.075,-0.145
3803,-0.075,-0.165
3804,-0.145,-0.255
3805,-0.175,-0.295
3806,-0.215,-0.335
3807,-0.265,-0.325
3808,-0.285,-0.345
3809,-0.265,-0.335
3810,-0.225,-0.305
3811,-0.245,-0.325
3812,-0.245,-0.305
3813,-0.205,-0.325
3814,-0.345,-0.405
3815,-0.665,-0.285
3816,-0.655,0.115
3817,0.185,0.145
3818,1.535,0.045
3819,2.685,0.595
3820,3.105,0.395
3821,1.365,-1.215
3822,-0.565,-1.185
3823,-0.955,-0.735
3824,-0.745,-0.435
3825,-0.475,-0.135
3826,-0.215,0.025
3827,-0.205,-0.005
3828,-0.205,0.005
3829,-0.175,0.035
3830,-0.165,0.065
3831,-0.135,0.105
3832,-0.105,0.125
3833,-0.085,0.145
3834,-0.045,0.185
3835,-0.035,0.225
3836,-0.015,0.245
3837,0.005,0.305
3838,0.025,0.345
3839,0.055,0.415
3840,0.105,0.485
3841,0.175,0.555
3842,0.245,0.665
3843,0.295,0.735
3844,0.385,0.825
3845,0.455,0.895
3846,0.505,0.925
3847,0.585,0.905
3848,0.615,0.875
3849,0.635,0.795
3850,0.645,0.705
3851,0.595,0.555
3852,0.475,0.345
3853,0.335,0.195
3854,0.185,0.045
3855,0.075,-0.055
3856,-0.015,-0.145
3857,-0.065,-0.195
3858,-0.065,-0.215
3859,-0.135,-0.265
3860,-0.145,-0.275
3861,-0.165,-0.285
3862,-0.165,-0.285
3863,-0.175,-0.275
3864,-0.165,-0.275
3865,-0.165,-0.285
3866,-0.135,-0.255
3867,-0.135,-0.265
3868,-0.155,-0.275
3869,-0.125,-0.265
3870,-0.135,-0.275
3871,-0.125,-0.265
3872,-0.135,-0.265
3873,-0.115,-0.265
3874,-0.105,-0.265
3875,-0.105,-0.265
3876,-0.115,-0.275
3877,-0.105,-0.285
3878,-0.115,-0.285
3879,-0.105,-0.285
3880,-0.125,-0.305
3881,-0.105,-0.305
3882,-0.095,-0.305
3883,-0.105,-0.325
3884,-0.135,-0.335
3885,-0.125,-0.335
3886,-0.135,-0.345
3887,-0.135,-0.335
3888,-0.135,-0.345
3889,-0.155,-0.355
3890,-0.105,-0.325
3891,-0.105,-0.345
3892,-0.135,-0.365
3893,-0.125,-0.335
3894,-0.105,-0.345
3895,-0.125,-0.345
3896,-0.105,-0.345
3897,-0.105,-0.345
3898,-0.075,-0.345
3899,-0.105,-0.335
3900,-0.075,-0.335
3901,-0.085,-0.345
3902,-0.085,-0.325
3903,-0.095,-0.325
3904,-0.075,-0.335
3905,-0.085,-0.335
3906,-0.035,-0.295
3907,-0.045,-0.335
3908,-0.065,-0.315
3909,-0.045,-0.305
3910,-0.065,-0.305
3911,-0.045,-0.305
3912,-0.045,-0.305
3913,-0.035,-0.305
3914,-0.025,-0.295
3915,-0.005,-0.275
3916,-0.025,-0.255
3917,0.015,-0.245
3918,0.025,-0.205
3919,0.095,-0.165
3920,0.135,-0.155
3921,0.125,-0.205
3922,0.085,-0.265
3923,0.045,-0.295
3924,0.005,-0.345
3925,-0.025,-0.335
3926,-0.035,-0.325
3927,-0.045,-0.305
3928,-0.015,-0.325
3929,-0.015,-0.325
3930,0.035,-0.295
3931,0.025,-0.295
3932,-0.095,-0.375
3933,-0.365,-0.225
3934,-0.305,0.185
3935,0.425,0.285
3936,1.595,-0.005
3937,2.665,0.515
3938,3.055,0.205
3939,1.395,-1.215
3940,-0.245,-1.055
3941,-0.635,-0.785
3942,-0.575,-0.565
3943,-0.385,-0.305
3944,-0.125,-0.055
3945,0.005,-0.005
3946,0.025,-0.005
3947,0.045,0.025
3948,0.075,0.045
3949,0.105,0.085
3950,0.105,0.105
3951,0.125,0.115
3952,0.145,0.145
3953,0.165,0.185
3954,0.205,0.245
3955,0.225,0.265
3956,0.265,0.305
3957,0.285,0.365
3958,0.325,0.425
3959,0.365,0.485
3960,0.415,0.545
3961,0.485,0.615
3962,0.585,0.695
3963,0.625,0.725
3964,0.695,0.775
3965,0.765,0.785
3966,0.795,0.765
3967,0.815,0.735
3968,0.825,0.645
3969,0.775,0.525
3970,0.685,0.395
3971,0.555,0.230
3972,0.385,0.070
3973,0.235,-0.020
3974,0.165,-0.090
3975,0.085,-0.145
3976,0.025,-0.205
3977,-0.015,-0.225
3978,-0.045,-0.235
3979,-0.035,-0.225
3980,-0.045,-0.250
3981,-0.065,-0.250
3982,-0.055,-0.240
3983,-0.065,-0.235
3984,-0.075,-0.235
3985,-0.075,-0.235
3986,-0.045,-0.235
3987,-0.065,-0.225
3988,-0.065,-0.230
3989,-0.065,-0.240
3990,-0.045,-0.230
3991,-0.065,-0.225
3992,-0.065,-0.235
3993,-0.055,-0.235
3994,-0.075,-0.235
3995,-0.075,-0.245
3996,-0.065,-0.260
3997,-0.065,-0.260
3998,-0.085,-0.280
3999,-0.105,-0.265
4000,-0.115,-0.275
4001,-0.115,-0.295
4002,-0.125,-0.275
4003,-0.115,-0.300
4004,-0.155,-0.310
4005,-0.125,-0.300
4006,-0.135,-0.320
4007,-0.155,-0.295
4008,-0.175,-0.315
4009,-0.155,-0.305
4010,-0.175,-0.305
4011,-0.145,-0.300
4012,-0.165,-0.310
4013,-0.165,-0.320
4014,-0.155,-0.300
4015,-0.165,-0.295
4016,-0.175,-0.315
4017,-0.155,-0.305
4018,-0.155,-0.285
4019,-0.145,-0.280
4020,-0.145,-0.310
4021,-0.175,-0.300
4022,-0.145,-0.270
4023,-0.165,-0.275
4024,-0.165,-0.285
4025,-0.175,-0.285
4026,-0.145,-0.245
4027,-0.135,-0.225
4028,-0.095,-0.185
4029,-0.115,-0.185
4030,-0.065,-0.145
4031,-0.005,-0.105
4032,-0.005,-0.145
4033,-0.045,-0.225
4034,-0.075,-0.245
4035,-0.125,-0.295
4036,-0.195,-0.305
4037,-0.195,-0.305
4038,-0.205,-0.295
4039,-0.175,-0.285
4040,-0.185,-0.295
4041,-0.185,-0.285
4042,-0.145,-0.265
4043,-0.185,-0.315
4044,-0.565,-0.255
4045,-0.565,0.205
4046,0.115,0.185
4047,1.405,-0.145
4048,2.575,0.285
4049,3.055,0.245
4050,1.735,-1.125
4051,-0.335,-1.165
4052,-0.925,-0.755
4053,-0.765,-0.445
4054,-0.545,-0.165
4055,-0.255,0.065
4056,-0.195,0.065
4057,-0.205,0.055
4058,-0.155,0.115
4059,-0.135,0.135
4060,-0.115,0.155
4061,-0.115,0.185
4062,-0.095,0.225
4063,-0.065,0.255
4064,-0.055,0.285
4065,-0.015,0.335
4066,0.025,0.395
4067,0.055,0.445
4068,0.075,0.515
4069,0.135,0.585
4070,0.155,0.675
4071,0.215,0.765
4072,0.295,0.855
4073,0.365,0.945
4074,0.475,1.025
4075,0.525,1.035
4076,0.565,1.025
4077,0.605,0.985
4078,0.605,0.885
4079,0.605,0.745
4080,0.535,0.565
4081,0.415,0.385
4082,0.275,0.205
4083,0.115,0.045
4084,-0.015,-0.075
4085,-0.125,-0.145
4086,-0.195,-0.205
4087,-0.225,-0.225
4088,-0.245,-0.255
4089,-0.255,-0.245
4090,-0.255,-0.255
4091,-0.285,-0.265
4092,-0.275,-0.275
4093,-0.285,-0.285
4094,-0.305,-0.255
4095,-0.285,-0.255
4096,-0.285,-0.255
4097,-0.295,-0.265
4098,-0.265,-0.225
4099,-0.265,-0.245
4100,-0.275,-0.255
4101,-0.265,-0.225
4102,-0.275,-0.235
4103,-0.245,-0.225
4104,-0.255,-0.245
4105,-0.255,-0.245
4106,-0.265,-0.245
4107,-0.245,-0.255
4108,-0.265,-0.265
4109,-0.255,-0.255
4110,-0.275,-0.285
4111,-0.285,-0.275
4112,-0.275,-0.295
4113,-0.285,-0.305
4114,-0.265,-0.295
4115,-0.305,-0.295
4116,-0.295,-0.315
4117,-0.295,-0.305
4118,-0.305,-0.305
4119,-0.305,-0.305
4120,-0.315,-0.305
4121,-0.305,-0.305
4122,-0.275,-0.295
4123,-0.285,-0.305
4124,-0.305,-0.315
4125,-0.295,-0.325
4126,-0.305,-0.305
4127,-0.305,-0.305
4128,-0.315,-0.295
4129,-0.275,-0.285
4130,-0.285,-0.295
4131,-0.265,-0.285
4132,-0.295,-0.295
4133,-0.275,-0.295
4134,-0.295,-0.285
4135,-0.295,-0.285
4136,-0.285,-0.285
4137,-0.265,-0.275
4138,-0.285,-0.275
4139,-0.245,-0.235
4140,-0.225,-0.215
4141,-0.205,-0.195
4142,-0.185,-0.155
4143,-0.135,-0.125
4144,-0.105,-0.145
4145,-0.155,-0.205
4146,-0.175,-0.245
4147,-0.225,-0.285
4148,-0.275,-0.315
4149,-0.305,-0.315
4150,-0.275,-0.295
4151,-0.295,-0.285
4152,-0.285,-0.295
4153,-0.275,-0.305
4154,-0.275,-0.285
4155,-0.245,-0.295
4156,-0.515,-0.385
4157,-0.705,-0.005
4158,-0.275,0.295
4159,0.875,-0.055
4160,2.185,0.225
4161,2.785,0.635
4162,2.405,-0.525
4163,0.205,-1.285
4164,-0.865,-0.825
4165,-0.825,-0.455
4166,-0.625,-0.175
4167,-0.335,0.065
4168,-0.265,0.045
4169,-0.255,0.055
4170,-0.235,0.105
4171,-0.185,0.125
4172,-0.185,0.145
4173,-0.175,0.175
4174,-0.165,0.205
4175,-0.135,0.255
4176,-0.105,0.255
4177,-0.085,0.315
4178,-0.035,0.375
4179,-0.015,0.415
4180,0.005,0.485
4181,0.055,0.565
4182,0.105,0.655
4183,0.145,0.735
4184,0.225,0.825
4185,0.275,0.905
4186,0.385,1.015
4187,0.445,1.035
4188,0.525,1.025
4189,0.555,0.995
4190,0.565,0.925
4191,0.575,0.825
4192,0.555,0.675
4193,0.435,0.455
4194,0.285,0.275
4195,0.145,0.105
4196,-0.005,-0.015
4197,-0.085,-0.105
4198,-0.185,-0.165
4199,-0.235,-0.205
4200,-0.255,-0.225
4201,-0.285,-0.245
4202,-0.285,-0.245
4203,-0.285,-0.265
4204,-0.305,-0.265
4205,-0.305,-0.245
4206,-0.285,-0.265
4207,-0.315,-0.255
4208,-0.285,-0.255
4209,-0.305,-0.255
4210,-0.275,-0.215
4211,-0.275,-0.235
4212,-0.265,-0.245
4213,-0.285,-0.245
4214,-0.265,-0.215
4215,-0.265,-0.225
4216,-0.265,-0.235
4217,-0.255,-0.255
4218,-0.265,-0.235
4219,-0.245,-0.235
4220,-0.265,-0.245
4221,-0.275,-0.265
4222,-0.275,-0.255
4223,-0.275,-0.265
4224,-0.305,-0.295
4225,-0.285,-0.265
4226,-0.295,-0.285
4227,-0.255,-0.275
4228,-0.305,-0.305
4229,-0.275,-0.295
4230,-0.305,-0.295
4231,-0.305,-0.285
4232,-0.315,-0.295
4233,-0.275,-0.295
4234,-0.275,-0.295
4235,-0.275,-0.275
4236,-0.285,-0.305
4237,-0.285,-0.285
4238,-0.285,-0.285
4239,-0.305,-0.285
4240,-0.275,-0.295
4241,-0.275,-0.275
4242,-0.245,-0.275
4243,-0.275,-0.265
4244,-0.255,-0.275
4245,-0.275,-0.275
4246,-0.275,-0.275
4247,-0.265,-0.255
4248,-0.235,-0.265
4249,-0.285,-0.275
4250,-0.225,-0.205
4251,-0.215,-0.195
4252,-0.195,-0.185
4253,-0.165,-0.135
4254,-0.115,-0.115
4255,-0.075,-0.125
4256,-0.105,-0.185
4257,-0.145,-0.215
4258,-0.165,-0.255
4259,-0.235,-0.305
4260,-0.255,-0.305
4261,-0.275,-0.305
4262,-0.275,-0.275
4263,-0.265,-0.285
4264,-0.245,-0.285
4265,-0.245,-0.285
4266,-0.175,-0.265
4267,-0.495,-0.405
4268,-0.705,-0.045
4269,-0.445,0.305
4270,0.505,0.045
4271,1.885,0.215
4272,2.805,0.865
4273,2.945,-0.075
4274,0.695,-1.375
4275,-0.855,-0.985
4276,-0.945,-0.545
4277,-0.735,-0.275
4278,-0.395,0.035
4279,-0.275,0.055
4280,-0.255,0.065
4281,-0.265,0.075
4282,-0.205,0.125
4283,-0.185,0.125
4284,-0.185,0.155
4285,-0.145,0.195
4286,-0.125,0.225
4287,-0.105,0.255
4288,-0.095,0.275
4289,-0.045,0.335
4290,-0.005,0.395
4291,0.015,0.435
4292,0.045,0.495
4293,0.115,0.585
4294,0.145,0.675
4295,0.195,0.765
4296,0.255,0.845
4297,0.355,0.935
4298,0.455,1.025
4299,0.545,1.045
4300,0.575,1.025
4301,0.605,0.975
4302,0.625,0.875
4303,0.605,0.775
4304,0.565,0.605
4305,0.445,0.425
4306,0.305,0.235
4307,0.145,0.085
4308,0.025,-0.045
4309,-0.065,-0.125
4310,-0.145,-0.175
4311,-0.185,-0.195
4312,-0.205,-0.225
4313,-0.235,-0.235
4314,-0.255,-0.235
4315,-0.205,-0.235
4316,-0.255,-0.235
4317,-0.225,-0.235
4318,-0.235,-0.235
4319,-0.235,-0.235
4320,-0.255,-0.235
4321,-0.225,-0.235
4322,-0.225,-0.225
4323,-0.195,-0.215
4324,-0.215,-0.225
4325,-0.205,-0.225
4326,-0.185,-0.205
4327,-0.205,-0.215
4328,-0.215,-0.235
4329,-0.195,-0.235
4330,-0.185,-0.215
4331,-0.195,-0.235
4332,-0.185,-0.255
4333,-0.215,-0.265
4334,-0.195,-0.245
4335,-0.225,-0.265
4336,-0.235,-0.275
4337,-0.245,-0.285
4338,-0.245,-0.285
4339,-0.225,-0.265
4340,-0.235,-0.295
4341,-0.235,-0.295
4342,-0.225,-0.275
4343,-0.235,-0.295
4344,-0.255,-0.305
4345,-0.235,-0.305
4346,-0.235,-0.285
4347,-0.225,-0.295
4348,-0.245,-0.305
4349,-0.215,-0.295
4350,-0.235,-0.305
4351,-0.225,-0.285
4352,-0.235,-0.295
4353,-0.205,-0.295
4354,-0.195,-0.265
4355,-0.185,-0.275
4356,-0.205,-0.275
4357,-0.195,-0.285
4358,-0.215,-0.265
4359,-0.195,-0.275
4360,-0.195,-0.275
4361,-0.185,-0.245
4362,-0.155,-0.215
4363,-0.105,-0.175
4364,-0.115,-0.165
4365,-0.055,-0.135
4366,-0.025,-0.115
4367,-0.045,-0.165
4368,-0.095,-0.235
4369,-0.145,-0.275
4370,-0.135,-0.285
4371,-0.185,-0.285
4372,-0.205,-0.295
4373,-0.195,-0.285
4374,-0.205,-0.285
4375,-0.195,-0.275
4376,-0.175,-0.265
4377,-0.155,-0.285
4378,-0.365,-0.395
4379,-0.655,-0.155
4380,-0.525,0.215
4381,0.425,0.155
4382,1.825,0.265
4383,2.845,0.885
4384,3.055,0.085
4385,0.755,-1.325
4386,-0.685,-0.995
4387,-0.905,-0.605
4388,-0.675,-0.315
4389,-0.355,-0.015
4390,-0.185,0.055
4391,-0.155,0.065
4392,-0.155,0.085
4393,-0.115,0.115
4394,-0.075,0.145
4395,-0.055,0.165
4396,-0.065,0.175
4397,-0.025,0.215
4398,-0.015,0.245
4399,0.015,0.285
4400,0.035,0.305
4401,0.065,0.375
4402,0.135,0.445
4403,0.165,0.495
4404,0.205,0.565
4405,0.235,0.635
4406,0.295,0.725
4407,0.355,0.815
4408,0.435,0.905
4409,0.505,0.965
4410,0.645,1.035
4411,0.685,1.005
4412,0.705,0.955
4413,0.735,0.875
4414,0.715,0.745
4415,0.645,0.575
4416,0.515,0.355
4417,0.375,0.185
4418,0.255,0.065
4419,0.135,-0.055
4420,0.025,-0.135
4421,-0.025,-0.185
4422,-0.055,-0.215
4423,-0.075,-0.215
4424,-0.105,-0.245
4425,-0.085,-0.245
4426,-0.055,-0.225
4427,-0.075,-0.245
4428,-0.105,-0.235
4429,-0.075,-0.215
4430,-0.095,-0.245
4431,-0.085,-0.215
4432,-0.075,-0.225
4433,-0.075,-0.205
4434,-0.055,-0.205
4435,-0.055,-0.215
4436,-0.045,-0.225
4437,-0.075,-0.225
4438,-0.055,-0.225
4439,-0.065,-0.225
4440,-0.045,-0.235
4441,-0.045,-0.235
4442,-0.025,-0.235
4443,-0.065,-0.265
4444,-0.055,-0.255
4445,-0.065,-0.285
4446,-0.075,-0.265
4447,-0.075,-0.285
4448,-0.085,-0.285
4449,-0.055,-0.285
4450,-0.055,-0.275
4451,-0.055,-0.285
4452,-0.065,-0.295
4453,-0.055,-0.295
4454,-0.085,-0.295
4455,-0.075,-0.305
4456,-0.055,-0.275
4457,-0.055,-0.305
4458,-0.035,-0.275
4459,-0.045,-0.295
4460,-0.065,-0.295
4461,-0.045,-0.295
4462,-0.065,-0.285
4463,-0.035,-0.275
4464,-0.045,-0.305
4465,-0.045,-0.265
4466,-0.005,-0.265
4467,-0.015,-0.265
4468,-0.025,-0.275
4469,-0.015,-0.275
4470,-0.045,-0.265
4471,-0.035,-0.265
4472,0.005,-0.235
4473,0.035,-0.205
4474,0.055,-0.195
4475,0.075,-0.145
4476,0.135,-0.115
4477,0.185,-0.105
4478,0.145,-0.175
4479,0.095,-0.225
4480,0.065,-0.265
4481,0.055,-0.285
4482,0.015,-0.275
4483,0.015,-0.265
4484,0.035,-0.265
4485,0.045,-0.265
4486,0.005,-0.285
4487,0.015,-0.245
4488,0.035,-0.275
4489,-0.105,-0.345
4490,-0.395,-0.065
4491,-0.285,0.315
4492,0.575,0.365
4493,1.845,0.215
4494,2.865,0.745
4495,3.205,0.305
4496,1.335,-1.185
4497,-0.415,-1.035
4498,-0.725,-0.715
4499,-0.635,-0.505
4500,-0.465,-0.255
4501,-0.195,-0.015
4502,-0.045,0.045
4503,-0.065,0.065
4504,-0.075,0.065
4505,-0.025,0.095
4506,0.015,0.135
4507,0.065,0.185
4508,0.035,0.165
4509,0.085,0.245
4510,0.085,0.265
4511,0.105,0.335
4512,0.145,0.365
4513,0.205,0.425
4514,0.215,0.485
4515,0.305,0.575
4516,0.285,0.605
4517,0.385,0.745
4518,0.475,0.775
4519,0.525,0.905
4520,0.635,0.955
4521,0.695,0.985
4522,0.755,1.005
4523,0.805,0.965
4524,0.815,0.885
4525,0.785,0.755
4526,0.725,0.595
4527,0.585,0.375
4528,0.415,0.215
4529,0.275,0.055
4530,0.195,-0.005
4531,0.055,-0.095
4532,0.025,-0.135
4533,-0.035,-0.195
4534,-0.075,-0.195
4535,-0.115,-0.185
4536,-0.125,-0.195
4537,-0.145,-0.205
4538,-0.155,-0.205
4539,-0.175,-0.185
4540,-0.185,-0.205
4541,-0.205,-0.185
4542,-0.205,-0.185
4543,-0.195,-0.165
4544,-0.205,-0.185
4545,-0.205,-0.185
4546,-0.215,-0.175
4547,-0.205,-0.175
4548,-0.225,-0.175
4549,-0.245,-0.195
4550,-0.255,-0.215
4551,-0.255,-0.185
4552,-0.275,-0.205
4553,-0.255,-0.205
4554,-0.275,-0.205
4555,-0.275,-0.215
4556,-0.315,-0.225
4557,-0.305,-0.235
4558,-0.325,-0.225
4559,-0.335,-0.245
4560,-0.325,-0.225
4561,-0.315,-0.245
4562,-0.305,-0.225
4563,-0.295,-0.215
4564,-0.295,-0.235
4565,-0.325,-0.235
4566,-0.305,-0.225
4567,-0.325,-0.245
4568,-0.315,-0.255
4569,-0.315,-0.235
4570,-0.275,-0.235
4571,-0.285,-0.235
4572,-0.285,-0.245
4573,-0.265,-0.235
4574,-0.285,-0.235
4575,-0.295,-0.215
4576,-0.285,-0.255
4577,-0.275,-0.195
4578,-0.205,-0.155
4579,-0.195,-0.125
4580,-0.205,-0.115
4581,-0.125,-0.075
4582,-0.075,-0.075
4583,-0.105,-0.135
4584,-0.155,-0.155
4585,-0.175,-0.215
4586,-0.205,-0.245
4587,-0.225,-0.225
4588,-0.265,-0.265
4589,-0.265,-0.255
4590,-0.245,-0.235
4591,-0.265,-0.235
4592,-0.245,-0.225
4593,-0.225,-0.235
4594,-0.335,-0.315
4595,-0.695,-0.215
4596,-0.715,0.205
4597,0.025,0.385
4598,1.455,0.215
4599,2.675,0.595
4600,3.125,0.785
4601,2.185,-0.645
4602,-0.205,-1.265
4603,-1.045,-0.765
4604,-0.865,-0.365
4605,-0.595,-0.105
4606,-0.295,0.125
4607,-0.275,0.115
4608,-0.265,0.125
4609,-0.215,0.145
4610,-0.225,0.175
4611,-0.165,0.205
4612,-0.165,0.225
4613,-0.125,0.245
4614,-0.115,0.285
4615,-0.125,0.315
4616,-0.065,0.355
4617,-0.065,0.375
4618,-0.025,0.445
4619,-0.005,0.515
4620,0.085,0.575
4621,0.105,0.655
4622,0.185,0.755
4623,0.215,0.865
4624,0.305,0.945
4625,0.385,1.015
4626,0.475,1.095
4627,0.535,1.105
4628,0.555,1.075
4629,0.585,1.015
4630,0.615,0.875
4631,0.545,0.725
4632,0.445,0.535
4633,0.325,0.335
4634,0.145,0.145
4635,0.025,0.015
4636,-0.105,-0.085
4637,-0.175,-0.175
4638,-0.255,-0.205
4639,-0.265,-0.225
4640,-0.285,-0.235
4641,-0.275,-0.235
4642,-0.265,-0.215
4643,-0.285,-0.245
4644,-0.305,-0.255
4645,-0.295,-0.245
4646,-0.305,-0.225
4647,-0.295,-0.225
4648,-0.295,-0.245
4649,-0.275,-0.215
4650,-0.275,-0.215
4651,-0.265,-0.225
4652,-0.295,-0.235
4653,-0.275,-0.225
4654,-0.285,-0.225
4655,-0.285,-0.225
4656,-0.285,-0.255
4657,-0.285,-0.245
4658,-0.295,-0.255
4659,-0.285,-0.235
4660,-0.295,-0.275
4661,-0.305,-0.265
4662,-0.305,-0.255
4663,-0.305,-0.275
4664,-0.305,-0.305
4665,-0.345,-0.295
4666,-0.285,-0.265
4667,-0.325,-0.285
4668,-0.325,-0.285
4669,-0.305,-0.275
4670,-0.305,-0.275
4671,-0.325,-0.295
4672,-0.305,-0.295
4673,-0.315,-0.305
4674,-0.285,-0.275
4675,-0.275,-0.285
4676,-0.315,-0.285
4677,-0.305,-0.275
4678,-0.305,-0.255
4679,-0.255,-0.195
4680,-0.225,-0.185
4681,-0.235,-0.175
4682,-0.135,-0.115
4683,-0.065,-0.145
4684,-0.135,-0.185
4685,-0.175,-0.215
4686,-0.225,-0.255
4687,-0.275,-0.305
4688,-0.285,-0.305
4689,-0.295,-0.295
4690,-0.275,-0.295
4691,-0.315,-0.315
4692,-0.285,-0.275
4693,-0.275,-0.285
4694,-0.275,-0.275
4695,-0.265,-0.285
4696,-0.665,-0.385
4697,-0.795,0.015
4698,-0.315,0.355
4699,0.815,0.215
4700,2.285,0.495
4701,2.895,0.825
4702,2.505,-0.325
4703,0.205,-1.285
4704,-0.915,-0.915
4705,-0.905,-0.495
4706,-0.655,-0.195
4707,-0.335,0.045
4708,-0.275,0.045
4709,-0.245,0.055
4710,-0.255,0.095
4711,-0.215,0.115
4712,-0.185,0.145
4713,-0.155,0.165
4714,-0.115,0.185
4715,-0.125,0.225
4716,-0.095,0.255
4717,-0.055,0.305
4718,-0.035,0.345
4719,-0.015,0.385
4720,0.015,0.455
4721,0.045,0.525
4722,0.125,0.625
4723,0.145,0.695
4724,0.205,0.785
4725,0.255,0.865
4726,0.305,0.955
4727,0.355,1.005
4728,0.425,1.025
4729,0.445,0.985
4730,0.495,0.975
4731,0.485,0.845
4732,0.475,0.685
4733,0.405,0.495
4734,0.285,0.305
4735,0.185,0.135
4736,0.075,-0.015
4737,-0.005,-0.125
4738,-0.035,-0.165
4739,-0.085,-0.235
4740,-0.135,-0.275
4741,-0.135,-0.245
4742,-0.135,-0.265
4743,-0.145,-0.255
4744,-0.145,-0.285
4745,-0.125,-0.275
4746,-0.135,-0.255
4747,-0.135,-0.255
4748,-0.155,-0.255
4749,-0.145,-0.245
4750,-0.165,-0.255
4751,-0.145,-0.255
4752,-0.185,-0.265
4753,-0.145,-0.245
4754,-0.145,-0.235
4755,-0.145,-0.245
4756,-0.165,-0.255
4757,-0.165,-0.255
4758,-0.185,-0.265
4759,-0.185,-0.275
4760,-0.185,-0.285
4761,-0.205,-0.295
4762,-0.205,-0.275
4763,-0.225,-0.295
4764,-0.215,-0.295
4765,-0.235,-0.325
4766,-0.255,-0.305
4767,-0.265,-0.305
4768,-0.255,-0.305
4769,-0.255,-0.315
4770,-0.235,-0.315
4771,-0.275,-0.335
4772,-0.245,-0.295
4773,-0.225,-0.305
4774,-0.265,-0.315
4775,-0.235,-0.305
4776,-0.255,-0.315
4777,-0.255,-0.325
4778,-0.235,-0.295
4779,-0.215,-0.285
4780,-0.205,-0.245
4781,-0.145,-0.205
4782,-0.185,-0.225
4783,-0.075,-0.165
4784,-0.035,-0.195
4785,-0.075,-0.205
4786,-0.075,-0.245
4787,-0.155,-0.305
4788,-0.175,-0.355
4789,-0.205,-0.345
4790,-0.215,-0.345
4791,-0.215,-0.325
4792,-0.215,-0.335
4793,-0.195,-0.335
4794,-0.165,-0.315
4795,-0.185,-0.325
4796,-0.155,-0.335
4797,-0.515,-0.455
4798,-0.655,-0.035
4799,-0.235,0.325
4800,0.865,0.115
4801,2.185,0.485
4802,2.765,0.965
4803,2.385,-0.425
4804,0.245,-1.405
4805,-0.735,-0.945
4806,-0.735,-0.585
4807,-0.535,-0.305
4808,-0.295,-0.045
4809,-0.145,0.035
4810,-0.105,0.025
4811,-0.085,0.045
4812,-0.085,0.055
4813,-0.045,0.085
4814,-0.015,0.115
4815,-0.015,0.135
4816,0.025,0.165
4817,0.035,0.195
4818,0.095,0.245
4819,0.095,0.295
4820,0.115,0.325
4821,0.145,0.395
4822,0.175,0.475
4823,0.225,0.545
4824,0.265,0.635
4825,0.295,0.705
4826,0.385,0.825
4827,0.435,0.895
4828,0.485,0.925
4829,0.565,0.955
4830,0.595,0.915
4831,0.625,0.855
4832,0.635,0.745
4833,0.595,0.565
4834,0.515,0.375
4835,0.395,0.185
4836,0.265,0.025
4837,0.185,-0.065
4838,0.085,-0.175
4839,0.025,-0.215
4840,-0.025,-0.265
4841,-0.045,-0.295
4842,-0.045,-0.285
4843,-0.045,-0.305
4844,-0.065,-0.325
4845,-0.065,-0.275
4846,-0.065,-0.295
4847,-0.055,-0.285
4848,-0.055,-0.295
4849,-0.065,-0.285
4850,-0.035,-0.275
4851,-0.045,-0.275
4852,-0.045,-0.295
4853,-0.045,-0.295
4854,-0.035,-0.255
4855,-0.015,-0.275
4856,-0.015,-0.295
4857,-0.035,-0.295
4858,-0.015,-0.285
4859,-0.025,-0.305
4860,-0.025,-0.325
4861,-0.025,-0.335
4862,-0.025,-0.325
4863,-0.035,-0.345
4864,-0.065,-0.335
4865,-0.025,-0.345
4866,-0.025,-0.335
4867,-0.025,-0.335
4868,-0.025,-0.355
4869,-0.025,-0.355
4870,-0.025,-0.345
4871,-0.025,-0.345
4872,-0.025,-0.355
4873,-0.015,-0.355
4874,0.005,-0.345
4875,0.015,-0.325
4876,-0.025,-0.345
4877,-0.005,-0.295
4878,0.065,-0.245
4879,0.025,-0.275
4880,0.115,-0.225
4881,0.145,-0.225
4882,0.185,-0.215
4883,0.125,-0.275
4884,0.095,-0.305
4885,0.045,-0.395
4886,-0.015,-0.365
4887,-0.045,-0.385
4888,-0.045,-0.375
4889,-0.025,-0.365
4890,0.015,-0.345
4891,-0.015,-0.335
4892,-0.045,-0.355
4893,-0.015,-0.335
4894,-0.035,-0.355
4895,-0.365,-0.305
4896,-0.425,0.135
4897,0.245,0.385
4898,1.465,0.115
4899,2.675,0.505
4900,3.165,0.465
4901,1.655,-1.165
4902,-0.335,-1.185
4903,-0.745,-0.825
4904,-0.655,-0.575
4905,-0.435,-0.335
4906,-0.115,-0.075
4907,-0.015,-0.035
4908,-0.015,-0.045
4909,0.015,-0.005
4910,0.035,0.005
4911,0.045,0.045
4912,0.075,0.085
4913,0.095,0.095
4914,0.165,0.145
4915,0.125,0.165
4916,0.155,0.225
4917,0.205,0.265
4918,0.185,0.275
4919,0.275,0.395
4920,0.345,0.455
4921,0.315,0.505
4922,0.465,0.645
4923,0.495,0.685
4924,0.575,0.765
4925,0.645,0.815
4926,0.675,0.835
4927,0.735,0.855
4928,0.785,0.785
4929,0.755,0.695
4930,0.785,0.595
4931,0.665,0.405
4932,0.495,0.215
4933,0.335,0.085
4934,0.225,-0.035
4935,0.045,-0.175
4936,0.055,-0.195
4937,-0.045,-0.255
4938,-0.025,-0.255
4939,-0.065,-0.285
4940,-0.145,-0.315
4941,-0.095,-0.305
4942,-0.155,-0.315
4943,-0.185,-0.265
4944,-0.105,-0.275
4945,-0.115,-0.295
4946,-0.115,-0.265
4947,-0.155,-0.265
4948,-0.145,-0.285
4949,-0.145,-0.245
4950,-0.135,-0.245
4951,-0.185,-0.275
4952,-0.125,-0.255
4953,-0.105,-0.245
4954,-0.105,-0.235
4955,-0.135,-0.255
4956,-0.135,-0.235
4957,-0.185,-0.275
4958,-0.155,-0.255
4959,-0.185,-0.285
4960,-0.165,-0.275
4961,-0.195,-0.295
4962,-0.205,-0.275
4963,-0.195,-0.265
4964,-0.215,-0.295
4965,-0.215,-0.275
4966,-0.255,-0.275
4967,-0.205,-0.265
4968,-0.235,-0.275
4969,-0.175,-0.225
4970,-0.165,-0.185
4971,-0.125,-0.175
4972,-0.125,-0.165
4973,-0.065,-0.165
4974,-0.105,-0.165
4975,-0.155,-0.195
4976,-0.185,-0.245
4977,-0.245,-0.295
4978,-0.275,-0.315
4979,-0.305,-0.295
4980,-0.285,-0.305
4981,-0.295,-0.305
4982,-0.305,-0.305
4983,-0.305,-0.305
4984,-0.305,-0.295
4985,-0.325,-0.305
4986,-0.285,-0.285
4987,-0.355,-0.305
4988,-0.745,-0.205
4989,-0.645,0.275
4990,0.425,0.365
4991,2.065,0.345
4992,2.865,0.805
4993,2.935,0.095
4994,0.325,-1.365
4995,-0.965,-0.965
4996,-1.025,-0.615
4997,-0.785,-0.325
4998,-0.485,-0.045
4999,-0.305,0.075
5000,-0.315,0.055
5001,-0.285,0.065
5002,-0.245,0.125
5003,-0.255,0.135
5004,-0.215,0.165
5005,-0.205,0.155
5006,-0.185,0.235
5007,-0.155,0.275
5008,-0.155,0.295
5009,-0.125,0.385
5010,-0.055,0.455
5011,-0.055,0.535
5012,0.015,0.585
5013,0.065,0.695
5014,0.125,0.795
5015,0.205,0.875
5016,0.295,0.945
5017,0.305,0.995
5018,0.455,1.055
5019,0.485,0.995
5020,0.515,0.925
5021,0.515,0.805
5022,0.465,0.675
5023,0.335,0.465
5024,0.175,0.235
5025,0.005,0.105
5026,-0.095,-0.035
5027,-0.185,-0.155
5028,-0.265,-0.175
5029,-0.305,-0.235
5030,-0.365,-0.235
5031,-0.385,-0.275
5032,-0.415,-0.285
5033,-0.385,-0.275
5034,-0.395,-0.265
5035,-0.405,-0.275
5036,-0.425,-0.295
5037,-0.405,-0.245
5038,-0.415,-0.235
5039,-0.395,-0.245
5040,-0.405,-0.245
5041,-0.415,-0.255
5042,-0.365,-0.215
5043,-0.385,-0.235
5044,-0.385,-0.235
5045,-0.375,-0.225
5046,-0.385,-0.235
5047,-0.405,-0.255
5048,-0.375,-0.235
5049,-0.385,-0.255
5050,-0.365,-0.255
5051,-0.385,-0.265
5052,-0.395,-0.275
5053,-0.415,-0.285
5054,-0.425,-0.275
5055,-0.425,-0.295
5056,-0.425,-0.285
5057,-0.395,-0.295
5058,-0.385,-0.285
5059,-0.395,-0.275
5060,-0.405,-0.305
5061,-0.395,-0.285
5062,-0.405,-0.275
5063,-0.355,-0.205
5064,-0.345,-0.205
5065,-0.315,-0.205
5066,-0.225,-0.165
5067,-0.195,-0.155
5068,-0.235,-0.185
5069,-0.235,-0.215
5070,-0.295,-0.275
5071,-0.355,-0.325
5072,-0.375,-0.345
5073,-0.425,-0.335
5074,-0.395,-0.335
5075,-0.425,-0.335
5076,-0.385,-0.325
5077,-0.415,-0.345
5078,-0.415,-0.305
5079,-0.405,-0.285
5080,-0.355,-0.295
5081,-0.655,-0.455
5082,-0.925,-0.065
5083,-0.555,0.355
5084,0.545,0.165
5085,2.015,0.355
5086,2.855,0.885
5087,2.805,-0.015
5088,0.515,-1.475
5089,-1.085,-1.005
5090,-1.075,-0.505
5091,-0.815,-0.215
5092,-0.485,0.025
5093,-0.395,0.025
5094,-0.375,0.045
5095,-0.385,0.065
5096,-0.345,0.075
5097,-0.325,0.105
5098,-0.255,0.145
5099,-0.255,0.175
5100,-0.245,0.185
5101,-0.225,0.215
5102,-0.185,0.275
5103,-0.185,0.315
5104,-0.125,0.385
5105,-0.095,0.455
5106,-0.025,0.545
5107,-0.005,0.595
5108,0.065,0.715
5109,0.105,0.775
5110,0.215,0.895
5111,0.265,0.955
5112,0.355,1.005
5113,0.435,1.005
5114,0.515,0.995
5115,0.515,0.895
5116,0.475,0.715
5117,0.405,0.545
5118,0.285,0.355
5119,0.135,0.185
5120,-0.015,0.025
5121,-0.105,-0.095
5122,-0.185,-0.175
5123,-0.255,-0.225
5124,-0.335,-0.295
5125,-0.335,-0.285
5126,-0.355,-0.295
5127,-0.355,-0.285
5128,-0.365,-0.315
5129,-0.365,-0.305
5130,-0.325,-0.275
5131,-0.345,-0.295
5132,-0.355,-0.305
5133,-0.365,-0.295
5134,-0.345,-0.265
5135,-0.335,-0.255
5136,-0.335,-0.285
5137,-0.345,-0.275
5138,-0.295,-0.255
5139,-0.325,-0.275
5140,-0.325,-0.285
5141,-0.335,-0.305
5142,-0.335,-0.285
5143,-0.325,-0.305
5144,-0.315,-0.305
5145,-0.345,-0.305
5146,-0.315,-0.295
5147,-0.335,-0.325
5148,-0.325,-0.325
5149,-0.345,-0.315
5150,-0.345,-0.325
5151,-0.335,-0.325
5152,-0.335,-0.335
5153,-0.345,-0.355
5154,-0.315,-0.315
5155,-0.315,-0.325
5156,-0.335,-0.325
5157,-0.285,-0.305
5158,-0.335,-0.305
5159,-0.245,-0.205
5160,-0.255,-0.225
5161,-0.245,-0.225
5162,-0.155,-0.185
5163,-0.125,-0.195
5164,-0.135,-0.215
5165,-0.175,-0.265
5166,-0.205,-0.315
5167,-0.285,-0.375
5168,-0.325,-0.365
5169,-0.335,-0.385
5170,-0.305,-0.375
5171,-0.325,-0.385
5172,-0.345,-0.355
5173,-0.325,-0.355
5174,-0.335,-0.345
5175,-0.325,-0.345
5176,-0.275,-0.355
5177,-0.665,-0.425
5178,-0.845,0.015
5179,-0.215,0.265
5180,1.295,0.215
5181,2.625,0.745
5182,3.045,0.525
5183,1.605,-1.115
5184,-0.465,-1.285
5185,-1.105,-0.805
5186,-0.885,-0.455
5187,-0.655,-0.195
5188,-0.365,-0.005
5189,-0.325,-0.015
5190,-0.335,-0.015
5191,-0.275,0.035
5192,-0.265,0.045
5193,-0.245,0.075
5194,-0.185,0.115
5195,-0.185,0.125
5196,-0.175,0.165
5197,-0.155,0.175
5198,-0.135,0.255
5199,-0.095,0.285
5200,-0.055,0.355
5201,-0.035,0.405
5202,0.035,0.505
5203,0.055,0.575
5204,0.125,0.655
5205,0.195,0.765
5206,0.275,0.855
5207,0.355,0.925
5208,0.445,0.955
5209,0.495,0.945
5210,0.575,0.915
5211,0.535,0.805
5212,0.515,0.675
5213,0.475,0.465
5214,0.295,0.275
5215,0.165,0.105
5216,0.025,-0.045
5217,-0.085,-0.155
5218,-0.155,-0.205
5219,-0.225,-0.255
5220,-0.275,-0.295
5221,-0.265,-0.285
5222,-0.295,-0.305
5223,-0.275,-0.295
5224,-0.305,-0.315
5225,-0.295,-0.285
5226,-0.275,-0.285
5227,-0.275,-0.275
5228,-0.295,-0.305
5229,-0.295,-0.265
5230,-0.295,-0.285
5231,-0.275,-0.265
5232,-0.275,-0.285
5233,-0.295,-0.275
5234,-0.245,-0.265
5235,-0.295,-0.275
5236,-0.255,-0.285
5237,-0.255,-0.295
5238,-0.285,-0.285
5239,-0.265,-0.285
5240,-0.245,-0.315
5241,-0.275,-0.295
5242,-0.225,-0.305
5243,-0.275,-0.305
5244,-0.305,-0.325
5245,-0.285,-0.325
5246,-0.275,-0.315
5247,-0.295,-0.325
5248,-0.285,-0.345
5249,-0.175,-0.365
5250,-0.115,-0.345
5251,-0.335,-0.305
5252,-0.345,-0.325
5253,-0.335,-0.305
5254,-0.315,-0.325
5255,-0.295,-0.325
5256,-0.295,-0.345
5257,-0.285,-0.335
5258,-0.235,-0.315
5259,-0.245,-0.305
5260,-0.225,-0.345
5261,-0.255,-0.295
5262,-0.245,-0.255
5263,-0.205,-0.225
5264,-0.165,-0.235
5265,-0.175,-0.185
5266,-0.065,-0.165
5267,-0.075,-0.185
5268,-0.135,-0.255
5269,-0.165,-0.285
5270,-0.195,-0.335
5271,-0.235,-0.305
5272,-0.285,-0.365
5273,-0.285,-0.355
5274,-0.225,-0.325
5275,-0.255,-0.325
5276,-0.265,-0.325
5277,-0.235,-0.315
5278,-0.195,-0.295
5279,-0.525,-0.445
5280,-0.765,-0.125
5281,-0.395,0.305
5282,0.955,0.215
5283,2.475,0.675
5284,3.025,1.135
5285,2.545,-0.285
5286,0.065,-1.425
5287,-1.005,-0.935
5288,-0.965,-0.545
5289,-0.735,-0.305
5290,-0.335,-0.015
5291,-0.225,-0.005
5292,-0.195,-0.015
5293,-0.255,0.035
5294,-0.235,0.025
5295,-0.205,0.095
5296,-0.195,0.095
5297,-0.125,0.125
5298,-0.075,0.195
5299,-0.085,0.195
5300,-0.085,0.225
5301,0.005,0.245
5302,0.095,0.315
5303,0.055,0.365
5304,0.035,0.435
5305,0.095,0.525
5306,0.115,0.615
5307,0.145,0.685
5308,0.305,0.775
5309,0.295,0.845
5310,0.325,0.915
5311,0.545,0.915
5312,0.335,0.895
5313,0.345,0.835
5314,0.435,0.745
5315,0.395,0.575
5316,0.285,0.375
5317,0.235,0.195
5318,0.135,0.055
5319,-0.105,-0.075
5320,0.085,-0.165
5321,-0.325,-0.205
5322,-0.335,-0.225
5323,-0.305,-0.255
5324,-0.275,-0.275
5325,-0.275,-0.305
5326,-0.265,-0.305
5327,-0.275,-0.295
5328,-0.225,-0.285
5329,-0.165,-0.275
5330,-0.115,-0.245
5331,-0.145,-0.265
5332,-0.115,-0.265
5333,-0.045,-0.275
5334,-0.175,-0.285
5335,-0.175,-0.245
5336,-0.185,-0.275
5337,-0.155,-0.275
5338,-0.095,-0.265
5339,-0.175,-0.295
5340,-0.175,-0.295
5341,-0.155,-0.285
5342,-0.175,-0.315
5343,-0.175,-0.285
5344,-0.165,-0.315
5345,-0.165,-0.335
5346,-0.115,-0.295
5347,-0.125,-0.325
5348,-0.155,-0.355
5349,-0.135,-0.335
5350,-0.145,-0.335
5351,-0.135,-0.355
5352,-0.075,-0.355
5353,-0.165,-0.345
5354,-0.155,-0.325
5355,-0.145,-0.335
5356,-0.155,-0.345
5357,-0.165,-0.365
5358,-0.125,-0.335
5359,-0.145,-0.355
5360,-0.145,-0.355
5361,-0.165,-0.355
5362,-0.085,-0.335
5363,-0.105,-0.335
5364,-0.135,-0.355
5365,-0.135,-0.355
5366,-0.125,-0.335
5367,-0.105,-0.285
5368,-0.075,-0.275
5369,-0.085,-0.245
5370,0.025,-0.175
5371,0.095,-0.215
5372,0.025,-0.225
5373,-0.055,-0.305
5374,-0.035,-0.285
5375,-0.065,-0.355
5376,-0.115,-0.365
5377,-0.125,-0.365
5378,-0.075,-0.335
5379,-0.075,-0.335
5380,-0.105,-0.335
5381,-0.105,-0.355
5382,-0.105,-0.325
5383,-0.085,-0.345
5384,-0.485,-0.395
5385,-0.555,0.065
5386,0.075,0.345
5387,1.245,0.185
5388,2.545,0.645
5389,3.045,1.075
5390,2.385,-0.565
5391,-0.055,-1.275
5392,-0.865,-0.885
5393,-0.755,-0.625
5394,-0.535,-0.345
5395,-0.265,-0.095
5396,-0.135,-0.055
5397,-0.125,-0.055
5398,-0.075,-0.025
5399,-0.065,0.005
5400,-0.075,0.035
5401,-0.005,0.055
5402,0.025,0.115
5403,0.035,0.145
5404,0.055,0.165
5405,0.095,0.185
5406,0.105,0.265
5407,0.145,0.305
5408,0.175,0.355
5409,0.215,0.425
5410,0.305,0.505
5411,0.345,0.585
5412,0.375,0.645
5413,0.435,0.725
5414,0.525,0.805
5415,0.585,0.845
5416,0.645,0.835
5417,0.705,0.815
5418,0.735,0.755
5419,0.705,0.645
5420,0.625,0.495
5421,0.535,0.335
5422,0.375,0.185
5423,0.265,0.055
5424,0.135,-0.075
5425,0.045,-0.165
5426,0.005,-0.195
5427,-0.045,-0.235
5428,-0.095,-0.275
5429,-0.095,-0.265
5430,-0.135,-0.265
5431,-0.125,-0.275
5432,-0.145,-0.275
5433,-0.125,-0.265
5434,-0.075,-0.225
5435,-0.105,-0.255
5436,-0.145,-0.265
5437,-0.095,-0.235
5438,-0.125,-0.245
5439,-0.095,-0.245
5440,-0.125,-0.275
5441,-0.105,-0.255
5442,-0.085,-0.245
5443,-0.115,-0.265
5444,-0.125,-0.285
5445,-0.125,-0.275
5446,-0.155,-0.285
5447,-0.155,-0.295
5448,-0.175,-0.305
5449,-0.155,-0.285
5450,-0.155,-0.305
5451,-0.145,-0.315
5452,-0.185,-0.325
5453,-0.185,-0.335
5454,-0.185,-0.325
5455,-0.195,-0.335
5456,-0.185,-0.335
5457,-0.205,-0.335
5458,-0.155,-0.315
5459,-0.165,-0.325
5460,-0.185,-0.355
5461,-0.175,-0.325
5462,-0.175,-0.325
5463,-0.175,-0.325
5464,-0.165,-0.325
5465,-0.175,-0.325
5466,-0.155,-0.315
5467,-0.155,-0.325
5468,-0.175,-0.315
5469,-0.145,-0.265
5470,-0.145,-0.215
5471,-0.115,-0.225
5472,-0.105,-0.185
5473,-0.025,-0.175
5474,0.005,-0.175
5475,-0.055,-0.225
5476,-0.105,-0.275
5477,-0.135,-0.335
5478,-0.195,-0.335
5479,-0.215,-0.335
5480,-0.205,-0.345
5481,-0.225,-0.335
5482,-0.175,-0.315
5483,-0.195,-0.315
5484,-0.195,-0.325
5485,-0.145,-0.325
5486,-0.455,-0.485
5487,-0.705,-0.205
5488,-0.585,0.195
5489,0.325,0.205
5490,1.725,0.345
5491,2.705,0.945
5492,3.035,0.415
5493,1.245,-1.325
5494,-0.515,-1.155
5495,-0.945,-0.675
5496,-0.745,-0.375
5497,-0.455,-0.095
5498,-0.215,0.025
5499,-0.225,-0.005
5500,-0.225,0.015
5501,-0.185,0.035
5502,-0.155,0.075
5503,-0.155,0.085
5504,-0.125,0.115
5505,-0.105,0.155
5506,-0.065,0.195
5507,-0.055,0.225
5508,-0.035,0.275
5509,-0.015,0.315
5510,0.035,0.375
5511,0.055,0.445
5512,0.105,0.525
5513,0.145,0.595
5514,0.225,0.705
5515,0.305,0.795
5516,0.355,0.855
5517,0.425,0.915
5518,0.515,0.955
5519,0.565,0.945
5520,0.605,0.895
5521,0.595,0.795
5522,0.615,0.685
5523,0.495,0.495
5524,0.375,0.305
5525,0.215,0.115
5526,0.075,-0.015
5527,-0.045,-0.095
5528,-0.105,-0.175
5529,-0.175,-0.245
5530,-0.205,-0.245
5531,-0.205,-0.265
5532,-0.235,-0.275
5533,-0.245,-0.275
5534,-0.235,-0.285
5535,-0.255,-0.275
5536,-0.235,-0.275
5537,-0.245,-0.275
5538,-0.225,-0.245
5539,-0.245,-0.275
5540,-0.265,-0.265
5541,-0.235,-0.265
5542,-0.225,-0.245
5543,-0.235,-0.255
5544,-0.235,-0.265
5545,-0.235,-0.265
5546,-0.205,-0.245
5547,-0.205,-0.255
5548,-0.235,-0.285
5549,-0.225,-0.285
5550,-0.265,-0.285
5551,-0.275,-0.295
5552,-0.255,-0.305
5553,-0.245,-0.295
5554,-0.235,-0.315
5555,-0.255,-0.315
5556,-0.285,-0.335
5557,-0.275,-0.325
5558,-0.275,-0.345
5559,-0.285,-0.325
5560,-0.285,-0.345
5561,-0.265,-0.335
5562,-0.265,-0.335
5563,-0.265,-0.345
5564,-0.285,-0.355
5565,-0.255,-0.345
5566,-0.275,-0.345
5567,-0.285,-0.345
5568,-0.245,-0.335
5569,-0.235,-0.335
5570,-0.225,-0.325
5571,-0.265,-0.345
5572,-0.255,-0.335
5573,-0.215,-0.335
5574,-0.265,-0.335
5575,-0.255,-0.295
5576,-0.225,-0.285
5577,-0.215,-0.245
5578,-0.185,-0.225
5579,-0.135,-0.205
5580,-0.085,-0.195
5581,-0.075,-0.205
5582,-0.135,-0.255
5583,-0.155,-0.295
5584,-0.205,-0.345
5585,-0.255,-0.365
5586,-0.215,-0.325
5587,-0.235,-0.335
5588,-0.245,-0.345
5589,-0.255,-0.335
5590,-0.245,-0.315
5591,-0.245,-0.305
5592,-0.205,-0.345
5593,-0.605,-0.415
5594,-0.745,-0.055
5595,-0.275,0.245
5596,0.935,0.135
5597,2.395,0.565
5598,3.035,1.005
5599,2.625,-0.255
5600,0.115,-1.265
5601,-0.985,-0.865
5602,-0.855,-0.495
5603,-0.635,-0.305
5604,-0.335,-0.055
5605,-0.225,-0.015
5606,-0.215,-0.015
5607,-0.215,0.015
5608,-0.185,0.025
5609,-0.165,0.035
5610,-0.135,0.105
5611,-0.085,0.105
5612,-0.065,0.135
5613,-0.055,0.165
5614,-0.025,0.205
5615,-0.015,0.245
5616,0.035,0.315
5617,0.065,0.365
5618,0.105,0.435
5619,0.175,0.515
5620,0.215,0.585
5621,0.275,0.675
5622,0.385,0.775
5623,0.435,0.835
5624,0.505,0.885
5625,0.595,0.935
5626,0.645,0.915
5627,0.685,0.845
5628,0.685,0.745
5629,0.655,0.565
5630,0.525,0.405
5631,0.415,0.205
5632,0.285,0.045
5633,0.175,-0.065
5634,0.075,-0.135
5635,-0.015,-0.235
5636,-0.065,-0.245
5637,-0.085,-0.285
5638,-0.105,-0.295
5639,-0.085,-0.305
5640,-0.125,-0.295
5641,-0.095,-0.335
5642,-0.085,-0.285
5643,-0.085,-0.295
5644,-0.085,-0.305
5645,-0.095,-0.315
5646,-0.125,-0.305
5647,-0.105,-0.285
5648,-0.075,-0.295
5649,-0.065,-0.285
5650,-0.035,-0.285
5651,-0.065,-0.285
5652,-0.095,-0.295
5653,-0.085,-0.305
5654,-0.065,-0.295
5655,-0.085,-0.295
5656,-0.095,-0.325
5657,-0.105,-0.315
5658,-0.045,-0.305
5659,-0.065,-0.335
5660,-0.095,-0.345
5661,-0.075,-0.345
5662,-0.105,-0.335
5663,-0.075,-0.345
5664,-0.095,-0.365
5665,-0.065,-0.345
5666,-0.055,-0.335
5667,-0.065,-0.345
5668,-0.075,-0.365
5669,-0.095,-0.355
5670,-0.075,-0.355
5671,-0.095,-0.345
5672,-0.085,-0.345
5673,-0.075,-0.355
5674,-0.095,-0.365
5675,-0.035,-0.325
5676,-0.065,-0.355
5677,-0.065,-0.345
5678,-0.025,-0.325
5679,-0.065,-0.355
5680,-0.095,-0.345
5681,-0.065,-0.315
5682,-0.005,-0.275
5683,-0.025,-0.275
5684,-0.035,-0.215
5685,0.095,-0.195
5686,0.095,-0.175
5687,0.075,-0.225
5688,0.025,-0.275
5689,-0.015,-0.315
5690,-0.035,-0.335
5691,-0.075,-0.345
5692,-0.095,-0.365
5693,-0.115,-0.335
5694,-0.065,-0.325
5695,-0.095,-0.305
5696,-0.095,-0.315
5697,-0.085,-0.305
5698,-0.105,-0.365
5699,-0.475,-0.235
5700,-0.525,0.185
5701,0.125,0.355
5702,1.285,0.205
5703,2.505,0.725
5704,3.015,0.795
5705,2.375,-0.835
5706,-0.105,-1.165
5707,-0.835,-0.795
5708,-0.815,-0.565
5709,-0.605,-0.305
5710,-0.295,-0.045
5711,-0.185,0.005
5712,-0.175,0.015
5713,-0.155,0.045
5714,-0.135,0.085
5715,-0.075,0.095
5716,-0.085,0.165
5717,-0.055,0.145
5718,-0.015,0.205
5719,-0.005,0.235
5720,0.005,0.295
5721,0.065,0.335
5722,0.115,0.395
5723,0.125,0.455
5724,0.165,0.525
5725,0.245,0.585
5726,0.375,0.695
5727,0.345,0.785
5728,0.425,0.865
5729,0.515,0.905
5730,0.615,0.975
5731,0.685,0.945
5732,0.715,0.885
5733,0.715,0.805
5734,0.735,0.695
5735,0.645,0.535
5736,0.495,0.375
5737,0.315,0.225
5738,0.155,0.105
5739,0.105,-0.035
5740,0.155,-0.125
5741,-0.055,-0.145
5742,-0.215,-0.185
5743,-0.225,-0.185
5744,-0.265,-0.195
5745,-0.255,-0.195
5746,-0.215,-0.185
5747,-0.225,-0.195
5748,-0.195,-0.215
5749,-0.215,-0.185
5750,-0.135,-0.175
5751,-0.185,-0.155
5752,-0.185,-0.175
5753,-0.235,-0.175
5754,-0.225,-0.155
5755,-0.265,-0.165
5756,-0.205,-0.185
5757,-0.215,-0.195
5758,-0.045,-0.185
5759,-0.095,-0.165
5760,-0.375,-0.145
5761,-0.335,-0.175
5762,-0.335,-0.195
5763,-0.395,-0.195
5764,-0.325,-0.215
5765,-0.355,-0.235
5766,-0.405,-0.225
5767,-0.395,-0.205
5768,-0.395,-0.235
5769,-0.515,-0.235
5770,-0.385,-0.215
5771,-0.505,-0.195
5772,-0.475,-0.225
5773,-0.585,-0.235
5774,-0.565,-0.225
5775,-0.525,-0.235
5776,-0.515,-0.235
5777,-0.285,-0.275
5778,-0.485,-0.225
5779,-0.605,-0.245
5780,-0.515,-0.245
5781,-0.535,-0.235
5782,-0.495,-0.245
5783,-0.465,-0.245
5784,-0.555,-0.245
5785,-0.525,-0.215
5786,-0.355,-0.185
5787,-0.385,-0.145
5788,-0.435,-0.175
5789,-0.265,-0.125
5790,-0.325,-0.105
5791,-0.355,-0.165
5792,-0.395,-0.205
5793,-0.425,-0.255
5794,-0.315,-0.285
5795,-0.515,-0.285
5796,-0.435,-0.305
5797,-0.435,-0.285
5798,-0.525,-0.255
5799,-0.495,-0.275
5800,-0.505,-0.275
5801,-0.345,-0.265
5802,-0.405,-0.325
5803,-0.925,-0.255
5804,-0.865,0.125
5805,-0.105,0.295
5806,1.265,0.325
5807,2.425,0.825
5808,2.935,0.525
5809,1.525,-0.965
5810,-0.755,-1.115
5811,-1.415,-0.645
5812,-1.185,-0.325
5813,-0.985,-0.085
5814,-0.635,0.035
5815,-0.475,0.035
5816,-0.655,0.065
5817,-0.625,0.075
5818,-0.535,0.135
5819,-0.575,0.145
5820,-0.465,0.155
5821,-0.385,0.195
5822,-0.535,0.245
5823,-0.305,0.295
5824,-0.295,0.315
5825,-0.255,0.375
5826,-0.165,0.455
5827,-0.105,0.505
5828,-0.055,0.555
5829,0.075,0.645
5830,0.045,0.745
5831,0.175,0.845
5832,0.075,0.935
5833,0.155,0.995
5834,0.515,1.055
5835,0.295,1.055
5836,0.315,0.995
5837,0.515,0.915
5838,0.515,0.825
5839,0.335,0.665
5840,0.275,0.465
5841,0.215,0.245
5842,0.055,0.095
5843,-0.155,-0.015
5844,-0.235,-0.145
5845,-0.425,-0.165
5846,-0.355,-0.205
5847,-0.615,-0.215
5848,-0.565,-0.225
5849,-0.495,-0.225
5850,-0.485,-0.235
5851,-0.475,-0.225
5852,-0.385,-0.215
5853,-0.305,-0.215
5854,-0.355,-0.215
5855,-0.425,-0.205
5856,-0.545,-0.205
5857,-0.375,-0.205
5858,-0.365,-0.185
5859,-0.385,-0.215
5860,-0.255,-0.205
5861,-0.445,-0.215
5862,-0.425,-0.235
5863,-0.285,-0.185
5864,-0.215,-0.265
5865,-0.475,-0.215
5866,-0.345,-0.235
5867,-0.305,-0.225
5868,-0.465,-0.255
5869,-0.405,-0.255
5870,-0.415,-0.265
5871,-0.395,-0.265
5872,-0.295,-0.275
5873,-0.245,-0.245
5874,-0.285,-0.245
5875,-0.345,-0.285
5876,-0.335,-0.255
5877,-0.375,-0.265
5878,-0.345,-0.255
5879,-0.355,-0.245
5880,-0.225,-0.265
5881,-0.275,-0.255
5882,-0.275,-0.235
5883,-0.275,-0.255
5884,-0.125,-0.265
5885,-0.235,-0.265
5886,-0.125,-0.235
5887,-0.365,-0.245
5888,-0.215,-0.215
5889,-0.195,-0.135
5890,-0.105,-0.155
5891,-0.035,-0.095
5892,-0.085,-0.105
5893,-0.065,-0.115
5894,-0.155,-0.155
5895,-0.145,-0.205
5896,-0.135,-0.235
5897,-0.145,-0.265
5898,-0.135,-0.255
5899,-0.135,-0.255
5900,-0.185,-0.295
5901,-0.145,-0.235
5902,-0.265,-0.245
5903,-0.225,-0.275
5904,-0.175,-0.235
5905,-0.225,-0.345
5906,-0.585,-0.305
5907,-0.665,0.095
5908,-0.135,0.355
5909,1.125,0.355
5910,2.595,0.995
5911,3.095,1.055
5912,2.315,-0.775
5913,-0.125,-1.195
5914,-1.015,-0.705
5915,-0.805,-0.345
5916,-0.435,-0.105
5917,-0.295,0.045
5918,-0.155,0.045
5919,-0.145,0.085
5920,-0.185,0.085
5921,-0.145,0.115
5922,-0.105,0.145
5923,-0.035,0.165
5924,-0.085,0.195
5925,-0.045,0.225
5926,0.045,0.245
5927,-0.045,0.325
5928,0.105,0.355
5929,0.025,0.415
5930,0.075,0.495
5931,0.325,0.545
5932,0.125,0.625
5933,0.215,0.725
5934,0.325,0.825
5935,0.295,0.855
5936,0.435,0.955
5937,0.615,0.995
5938,0.555,1.015
5939,0.615,0.945
5940,0.785,0.855
5941,0.665,0.735
5942,0.555,0.555
5943,0.445,0.375
5944,0.355,0.175
5945,0.195,0.035
5946,0.195,-0.045
5947,-0.025,-0.135
5948,-0.065,-0.195
5949,0.035,-0.205
5950,0.025,-0.255
5951,-0.035,-0.245
5952,-0.115,-0.235
5953,-0.085,-0.255
5954,-0.075,-0.225
5955,-0.055,-0.215
5956,0.005,-0.255
5957,-0.045,-0.225
5958,-0.075,-0.225
5959,0.025,-0.235
5960,-0.105,-0.215
5961,-0.095,-0.215
5962,-0.085,-0.225
5963,-0.025,-0.225
5964,0.005,-0.235
5965,-0.045,-0.255
5966,-0.025,-0.235
5967,-0.065,-0.265
5968,0.015,-0.265
5969,-0.115,-0.265
5970,-0.095,-0.245
5971,-0.045,-0.285
5972,-0.045,-0.315
5973,0.055,-0.275
5974,-0.185,-0.295
5975,-0.045,-0.305
5976,-0.065,-0.295
5977,-0.075,-0.295
5978,-0.075,-0.275
5979,-0.105,-0.295
5980,-0.065,-0.315
5981,-0.005,-0.315
5982,-0.075,-0.315
5983,-0.115,-0.295
5984,-0.115,-0.305
5985,-0.025,-0.295
5986,-0.025,-0.275
5987,-0.035,-0.315
5988,-0.085,-0.275
5989,-0.075,-0.245
5990,0.005,-0.235
5991,0.035,-0.225
5992,0.035,-0.165
5993,0.065,-0.185
5994,0.145,-0.165
5995,0.195,-0.225
5996,0.005,-0.285
5997,-0.025,-0.345
5998,-0.075,-0.315
5999,0.025,-0.315
6000,-0.055,-0.345
6001,-0.025,-0.305
6002,-0.005,-0.285
6003,0.085,-0.305
6004,-0.085,-0.305
6005,0.015,-0.305
6006,-0.255,-0.395
6007,-0.485,-0.015
6008,-0.235,0.325
6009,0.785,0.235
6010,2.305,0.605
6011,3.035,1.195
6012,3.135,0.005
6013,0.715,-1.315
6014,-0.565,-0.915
6015,-0.665,-0.615
6016,-0.555,-0.395
6017,-0.335,-0.175
6018,0.005,-0.005
6019,0.105,-0.035
6020,0.025,-0.015
6021,0.025,-0.005
6022,0.135,0.055
6023,0.145,0.075
6024,0.165,0.105
6025,0.165,0.135
6026,0.225,0.175
6027,0.245,0.205
6028,0.405,0.255
6029,0.235,0.275
6030,0.275,0.345
6031,0.355,0.415
6032,0.405,0.475
6033,0.525,0.555
6034,0.575,0.655
6035,0.525,0.725
6036,0.625,0.775
6037,0.805,0.815
6038,0.895,0.855
6039,0.825,0.825
6040,0.895,0.775
6041,0.965,0.685
6042,0.895,0.555
6043,0.935,0.395
6044,0.545,0.185
6045,0.455,0.075
6046,0.315,-0.055
6047,0.245,-0.135
6048,0.195,-0.185
6049,0.115,-0.235
6050,0.145,-0.235
6051,0.215,-0.255
6052,0.065,-0.275
6053,0.065,-0.275
6054,0.035,-0.255
6055,0.055,-0.265
6056,0.135,-0.265
6057,0.065,-0.255
6058,0.055,-0.225
6059,0.155,-0.255
6060,0.115,-0.245
6061,0.015,-0.255
6062,0.095,-0.245
6063,0.125,-0.245
6064,0.035,-0.265
6065,0.115,-0.265
6066,0.125,-0.235
6067,0.105,-0.275
6068,0.085,-0.275
6069,0.035,-0.295
6070,0.025,-0.275
6071,0.045,-0.295
6072,0.025,-0.305
6073,0.075,-0.305
6074,0.045,-0.305
6075,0.135,-0.325
6076,-0.005,-0.325
6077,-0.045,-0.335
6078,0.065,-0.325
6079,0.055,-0.305
6080,-0.005,-0.315
6081,-0.015,-0.295
6082,0.045,-0.225
6083,0.065,-0.235
6084,0.085,-0.235
6085,0.175,-0.195
6086,0.135,-0.195
6087,0.115,-0.215
6088,0.075,-0.285
6089,0.055,-0.315
6090,0.035,-0.335
6091,-0.025,-0.345
6092,-0.025,-0.345
6093,-0.065,-0.345
6094,-0.075,-0.335
6095,0.005,-0.325
6096,-0.085,-0.325
6097,-0.115,-0.305
6098,-0.035,-0.285
6099,-0.115,-0.385
6100,-0.385,-0.225
6101,-0.375,0.235
6102,0.125,0.335
6103,1.345,0.355
6104,2.345,0.935
6105,2.715,0.295
6106,1.245,-1.315
6107,-0.265,-1.005
6108,-0.715,-0.675
6109,-0.725,-0.455
6110,-0.535,-0.235
6111,-0.255,0.005
6112,-0.205,0.005
6113,-0.135,0.025
6114,-0.065,0.065
6115,-0.125,0.065
6116,-0.025,0.105
6117,0.045,0.125
6118,-0.105,0.175
6119,-0.085,0.205
6120,0.035,0.235
6121,0.045,0.295
6122,0.135,0.355
6123,0.155,0.415
6124,0.085,0.475
6125,0.155,0.565
6126,0.345,0.645
6127,0.275,0.745
6128,0.295,0.805
6129,0.655,0.895
6130,0.555,0.945
6131,0.535,0.945
6132,0.675,0.905
6133,0.615,0.865
6134,0.625,0.765
6135,0.625,0.625
6136,0.525,0.425
6137,0.405,0.235
6138,0.335,0.085
6139,0.025,-0.055
6140,0.065,-0.145
6141,-0.005,-0.185
6142,-0.165,-0.225
6143,-0.145,-0.255
6144,-0.185,-0.275
6145,-0.195,-0.275
6146,-0.095,-0.255
6147,-0.105,-0.285
6148,-0.205,-0.265
6149,-0.185,-0.255
6150,-0.155,-0.285
6151,-0.165,-0.255
6152,-0.225,-0.255
6153,-0.175,-0.255
6154,-0.125,-0.215
6155,-0.185,-0.255
6156,-0.185,-0.235
6157,-0.215,-0.245
6158,-0.145,-0.265
6159,-0.105,-0.235
6160,-0.235,-0.255
6161,-0.235,-0.255
6162,-0.175,-0.235
6163,-0.165,-0.245
6164,-0.225,-0.275
6165,-0.195,-0.285
6166,-0.195,-0.295
6167,-0.185,-0.275
6168,-0.275,-0.305
6169,-0.225,-0.295
6170,-0.295,-0.265
6171,-0.275,-0.275
6172,-0.285,-0.285
6173,-0.275,-0.285
6174,-0.235,-0.265
6175,-0.225,-0.255
6176,-0.215,-0.205
6177,-0.175,-0.225
6178,-0.095,-0.195
6179,-0.135,-0.145
6180,-0.095,-0.185
6181,-0.155,-0.185
6182,-0.155,-0.245
6183,-0.225,-0.275
6184,-0.305,-0.325
6185,-0.245,-0.325
6186,-0.215,-0.325
6187,-0.335,-0.315
6188,-0.335,-0.325
6189,-0.275,-0.325
6190,-0.365,-0.315
6191,-0.355,-0.285
6192,-0.245,-0.305
6193,-0.475,-0.445
6194,-0.895,-0.195
6195,-0.725,0.185
6196,0.415,0.195
6197,2.095,0.395
6198,2.895,0.905
6199,2.715,-0.015
6200,0.215,-1.345
6201,-0.995,-0.925
6202,-1.045,-0.445
6203,-0.815,-0.205
6204,-0.415,0.005
6205,-0.315,0.005
6206,-0.345,0.035
6207,-0.365,0.045
6208,-0.335,0.065
6209,-0.215,0.095
6210,-0.255,0.135
6211,-0.225,0.155
6212,-0.175,0.175
6213,-0.315,0.215
6214,-0.195,0.255
6215,-0.115,0.315
6216,-0.165,0.365
6217,-0.135,0.465
6218,-0.055,0.515
6219,0.005,0.585
6220,0.145,0.675
6221,0.085,0.785
6222,0.115,0.855
6223,0.215,0.935
6224,0.425,0.955
6225,0.325,0.965
6226,0.395,0.945
6227,0.465,0.855
6228,0.415,0.735
6229,0.345,0.555
6230,0.245,0.365
6231,0.135,0.195
6232,-0.115,0.045
6233,-0.185,-0.065
6234,-0.235,-0.135
6235,-0.275,-0.205
6236,-0.235,-0.235
6237,-0.355,-0.245
6238,-0.385,-0.255
6239,-0.355,-0.265
6240,-0.385,-0.275
6241,-0.385,-0.275
6242,-0.375,-0.245
6243,-0.345,-0.255
6244,-0.465,-0.255
6245,-0.455,-0.255
6246,-0.345,-0.245
6247,-0.395,-0.225
6248,-0.405,-0.235
6249,-0.365,-0.235
6250,-0.335,-0.215
6251,-0.325,-0.215
6252,-0.335,-0.225
6253,-0.415,-0.235
6254,-0.435,-0.225
6255,-0.415,-0.235
6256,-0.365,-0.235
6257,-0.405,-0.245
6258,-0.395,-0.245
6259,-0.365,-0.265
6260,-0.335,-0.285
6261,-0.405,-0.295
6262,-0.445,-0.275
6263,-0.485,-0.265
6264,-0.445,-0.285
6265,-0.375,-0.285
6266,-0.395,-0.265
6267,-0.355,-0.275
6268,-0.435,-0.275
6269,-0.395,-0.265
6270,-0.305,-0.255
6271,-0.435,-0.165
6272,-0.435,-0.205
6273,-0.295,-0.195
6274,-0.175,-0.135
6275,-0.305,-0.165
6276,-0.205,-0.185
6277,-0.265,-0.235
6278,-0.425,-0.275
6279,-0.405,-0.315
6280,-0.435,-0.315
6281,-0.465,-0.325
6282,-0.365,-0.315
6283,-0.385,-0.295
6284,-0.455,-0.315
6285,-0.435,-0.305
6286,-0.395,-0.275
6287,-0.395,-0.275
6288,-0.705,-0.425
6289,-0.895,-0.265
6290,-0.775,0.215
6291,0.225,0.235
6292,1.815,0.425
6293,2.725,1.055
6294,2.875,0.465
6295,0.475,-1.325
6296,-1.065,-1.045
6297,-1.205,-0.515
6298,-0.895,-0.225
6299,-0.525,0.015
6300,-0.435,0.035
6301,-0.435,0.025
6302,-0.445,0.045
6303,-0.355,0.075
6304,-0.365,0.105
6305,-0.365,0.115
6306,-0.315,0.155
6307,-0.345,0.165
6308,-0.235,0.205
6309,-0.235,0.255
6310,-0.225,0.305
6311,-0.245,0.345
6312,-0.225,0.405
6313,-0.035,0.485
6314,-0.105,0.585
6315,-0.055,0.645
6316,0.035,0.715
6317,0.065,0.805
6318,0.135,0.885
6319,0.205,0.925
6320,0.395,0.915
6321,0.355,0.905
6322,0.345,0.855
6323,0.365,0.735
6324,0.345,0.545
6325,0.215,0.385
6326,0.025,0.225
6327,-0.085,0.055
6328,-0.215,-0.025
6329,-0.245,-0.135
6330,-0.315,-0.165
6331,-0.405,-0.205
6332,-0.385,-0.235
6333,-0.325,-0.245
6334,-0.375,-0.245
6335,-0.435,-0.235
6336,-0.425,-0.255
6337,-0.435,-0.255
6338,-0.325,-0.225
6339,-0.405,-0.225
6340,-0.415,-0.225
6341,-0.435,-0.225
6342,-0.375,-0.215
6343,-0.375,-0.215
6344,-0.395,-0.205
6345,-0.395,-0.205
6346,-0.375,-0.195
6347,-0.355,-0.215
6348,-0.335,-0.215
6349,-0.425,-0.225
6350,-0.365,-0.225
6351,-0.385,-0.225
6352,-0.375,-0.235
6353,-0.435,-0.235
6354,-0.405,-0.225
6355,-0.325,-0.245
6356,-0.345,-0.245
6357,-0.415,-0.245
6358,-0.435,-0.245
6359,-0.425,-0.245
6360,-0.355,-0.255
6361,-0.395,-0.255
6362,-0.385,-0.235
6363,-0.385,-0.245
6364,-0.335,-0.245
6365,-0.315,-0.245
6366,-0.425,-0.235
6367,-0.315,-0.225
6368,-0.365,-0.215
6369,-0.335,-0.215
6370,-0.325,-0.135
6371,-0.325,-0.145
6372,-0.215,-0.135
6373,-0.145,-0.115
6374,-0.165,-0.115
6375,-0.185,-0.115
6376,-0.225,-0.165
6377,-0.305,-0.195
6378,-0.215,-0.205
6379,-0.165,-0.205
6380,-0.405,-0.215
6381,-0.385,-0.195
6382,-0.355,-0.175
6383,-0.315,-0.175
6384,-0.315,-0.175
6385,-0.295,-0.165
6386,-0.245,-0.155
6387,-0.605,-0.265
6388,-0.815,-0.135
6389,-0.535,0.145
6390,0.845,0.175
6391,2.285,0.435
6392,2.895,0.945
6393,2.545,0.385
6394,0.125,-0.905
6395,-1.025,-0.755
6396,-0.975,-0.465
6397,-0.685,-0.245
6398,-0.285,-0.015
6399,-0.285,0.035
6400,-0.215,0.025
6401,-0.245,0.045
6402,-0.165,0.075
6403,-0.225,0.085
6404,-0.165,0.095
6405,-0.125,0.115
6406,0.005,0.155
6407,-0.105,0.195
6408,-0.045,0.215
6409,-0.025,0.275
6410,0.045,0.315
6411,0.065,0.385
6412,0.125,0.445
6413,0.185,0.505
6414,0.205,0.605
6415,0.255,0.685
6416,0.225,0.665
6417,0.385,0.835
6418,0.475,0.895
6419,0.485,0.875
6420,0.555,0.845
6421,0.535,0.795
6422,0.515,0.685
6423,0.465,0.525
6424,0.465,0.345
6425,0.185,0.195
6426,0.035,0.055
6427,0.125,-0.065
6428,-0.135,-0.135
6429,-0.245,-0.185
6430,-0.165,-0.205
6431,-0.135,-0.225
6432,-0.175,-0.255
6433,-0.175,-0.245
6434,-0.225,-0.255
6435,-0.175,-0.265
6436,-0.275,-0.255
6437,-0.325,-0.285
6438,-0.245,-0.245
6439,-0.125,-0.235
6440,-0.215,-0.225
6441,-0.075,-0.245
6442,-0.155,-0.225
6443,-0.135,-0.245
6444,-0.205,-0.255
6445,-0.265,-0.255
6446,-0.215,-0.235
6447,-0.155,-0.255
6448,-0.105,-0.285
6449,-0.145,-0.265
6450,-0.145,-0.245
6451,-0.145,-0.265
6452,-0.095,-0.285
6453,-0.175,-0.285
6454,-0.155,-0.305
6455,-0.025,-0.305
6456,-0.175,-0.315
6457,-0.085,-0.315
6458,-0.085,-0.295
6459,-0.075,-0.335
6460,-0.155,-0.325
6461,-0.165,-0.305
6462,-0.105,-0.305
6463,-0.025,-0.305
6464,-0.015,-0.305
6465,-0.085,-0.285
6466,-0.035,-0.225
6467,-0.005,-0.215
6468,0.115,-0.185
6469,0.105,-0.205
6470,0.085,-0.195
6471,0.015,-0.265
6472,0.005,-0.285
6473,-0.035,-0.365
6474,0.045,-0.345
6475,-0.055,-0.355
6476,-0.105,-0.335
6477,-0.145,-0.345
6478,-0.095,-0.345
6479,-0.075,-0.315
6480,-0.035,-0.325
6481,-0.045,-0.305
6482,-0.245,-0.365
6483,-0.455,-0.215
6484,-0.425,0.225
6485,0.535,0.405
6486,1.935,0.225
6487,2.735,0.785
6488,2.995,0.375
6489,0.855,-1.235
6490,-0.565,-1.065
6491,-0.685,-0.755
6492,-0.655,-0.545
6493,-0.525,-0.295
6494,-0.135,-0.085
6495,-0.055,-0.025
6496,-0.085,-0.035
6497,-0.035,0.015
6498,-0.035,0.035
6499,0.005,0.045
6500,0.115,0.065
6501,0.065,0.125
6502,0.105,0.175
6503,0.135,0.205
6504,0.135,0.225
6505,0.115,0.295
6506,0.245,0.335
6507,0.305,0.405
6508,0.365,0.485
6509,0.255,0.555
6510,0.385,0.645
6511,0.455,0.715
6512,0.635,0.775
6513,0.715,0.835
6514,0.715,0.835
6515,0.685,0.795
6516,0.705,0.745
6517,0.735,0.675
6518,0.765,0.575
6519,0.635,0.405
6520,0.455,0.265
6521,0.295,0.095
6522,0.265,0.005
6523,0.155,-0.105
6524,0.125,-0.155
6525,-0.105,-0.185
6526,-0.005,-0.195
6527,0.005,-0.215
6528,-0.055,-0.235
6529,-0.095,-0.235
6530,-0.045,-0.205
6531,0.025,-0.205
6532,-0.015,-0.215
6533,-0.105,-0.205
6534,-0.075,-0.185
6535,-0.045,-0.185
6536,-0.025,-0.185
6537,-0.055,-0.185
6538,0.015,-0.185
6539,0.035,-0.195
6540,-0.025,-0.215
6541,-0.045,-0.185
6542,-0.045,-0.195
6543,-0.005,-0.205
6544,-0.045,-0.215
6545,-0.095,-0.225
6546,-0.085,-0.205
6547,-0.105,-0.215
6548,-0.105,-0.255
6549,-0.065,-0.235
6550,-0.095,-0.245
6551,-0.145,-0.255
6552,-0.135,-0.265
6553,-0.115,-0.255
6554,-0.115,-0.245
6555,-0.035,-0.255
6556,-0.215,-0.255
6557,-0.135,-0.255
6558,-0.065,-0.235
6559,-0.195,-0.235
6560,-0.125,-0.165
6561,-0.065,-0.195
6562,-0.055,-0.145
6563,0.035,-0.115
6564,0.035,-0.185
6565,-0.005,-0.175
6566,-0.145,-0.215
6567,-0.145,-0.255
6568,-0.165,-0.315
6569,-0.015,-0.305
6570,-0.195,-0.295
6571,-0.275,-0.285
6572,-0.295,-0.305
6573,-0.225,-0.305
6574,-0.215,-0.305
6575,-0.195,-0.285
6576,-0.175,-0.295
6577,-0.295,-0.375
6578,-0.505,-0.225
6579,-0.655,0.215
