'sample interval','ECG1','ECG2'
'0.0078125 sec','mV','mV'
0,-0.275,-0.015
1,-0.245,0.005
2,-0.285,-0.015
3,-0.265,-0.015
4,-0.235,-0.005
5,-0.215,-0.015
6,-0.165,0.005
7,-0.165,0.005
8,-0.145,0.005
9,-0.095,0.035
10,-0.085,0.025
11,-0.045,0.005
12,0.025,0.005
13,0.085,0.025
14,0.175,0.025
15,0.215,0.005
16,0.255,0.015
17,0.305,0.025
18,0.285,0.035
19,0.285,0.035
20,0.245,0.045
21,0.175,0.045
22,0.125,0.045
23,0.015,0.005
24,-0.075,-0.005
25,-0.125,-0.025
26,-0.175,-0.035
27,-0.205,-0.035
28,-0.195,-0.045
29,-0.205,-0.025
30,-0.165,-0.035
31,-0.185,-0.045
32,-0.185,-0.045
33,-0.185,-0.015
34,-0.195,-0.035
35,-0.195,-0.025
36,-0.185,-0.035
37,-0.165,-0.025
38,-0.145,-0.015
39,-0.135,-0.025
40,-0.145,-0.025
41,-0.155,-0.025
42,-0.185,-0.055
43,-0.185,-0.055
44,-0.165,-0.055
45,-0.175,-0.065
46,-0.145,-0.045
47,-0.165,-0.085
48,-0.165,-0.085
49,-0.175,-0.065
50,-0.185,-0.075
51,-0.195,-0.085
52,-0.195,-0.085
53,-0.175,-0.065
54,-0.165,-0.075
55,-0.165,-0.095
56,-0.175,-0.095
57,-0.175,-0.095
58,-0.185,-0.095
59,-0.205,-0.105
60,-0.195,-0.105
61,-0.185,-0.105
62,-0.165,-0.065
63,-0.135,-0.095
64,-0.115,-0.065
65,-0.065,-0.035
66,-0.075,-0.055
67,-0.075,-0.065
68,0.035,-0.095
69,0.005,-0.125
70,-0.065,-0.125
71,-0.085,-0.145
72,-0.105,-0.165
73,-0.155,-0.125
74,-0.175,-0.115
75,-0.195,-0.135
76,-0.185,-0.135
77,-0.175,-0.115
78,-0.145,-0.115
79,-0.155,-0.125
80,-0.165,-0.125
81,-0.175,-0.115
82,-0.175,-0.125
83,-0.155,-0.035
84,-0.335,0.175
85,-0.675,0.235
86,-0.345,-0.605
87,1.275,-1.515
88,2.465,-0.915
89,2.895,-0.705
90,1.805,-0.385
91,0.195,-0.055
92,-0.125,0.025
93,-0.155,0.025
94,-0.175,0.025
95,-0.215,0.015
96,-0.235,0.005
97,-0.215,0.025
98,-0.255,0.005
99,-0.255,0.005
100,-0.225,0.015
101,-0.225,0.025
102,-0.195,0.015
103,-0.195,0.005
104,-0.195,0.005
105,-0.165,0.035
106,-0.195,0.015
107,-0.165,0.025
108,-0.125,0.025
109,-0.105,0.055
110,-0.035,0.065
111,-0.015,0.065
112,0.025,0.085
113,0.085,0.085
114,0.105,0.085
115,0.175,0.075
116,0.235,0.085
117,0.275,0.085
118,0.355,0.115
119,0.395,0.085
120,0.395,0.115
121,0.405,0.115
122,0.295,0.085
123,0.215,0.045
124,0.145,0.005
125,0.045,-0.005
126,0.015,-0.005
127,-0.045,-0.055
128,-0.075,-0.055
129,-0.085,-0.055
130,-0.135,-0.055
131,-0.135,-0.065
132,-0.115,-0.055
133,-0.105,-0.055
134,-0.085,-0.045
135,-0.085,-0.065
136,-0.095,-0.065
137,-0.095,-0.035
138,-0.115,-0.045
139,-0.105,-0.035
140,-0.105,-0.035
141,-0.085,-0.045
142,-0.065,-0.045
143,-0.085,-0.045
144,-0.095,-0.045
145,-0.075,-0.035
146,-0.105,-0.055
147,-0.105,-0.075
148,-0.105,-0.055
149,-0.095,-0.065
150,-0.085,-0.065
151,-0.085,-0.085
152,-0.105,-0.095
153,-0.105,-0.085
154,-0.115,-0.105
155,-0.125,-0.105
156,-0.125,-0.105
157,-0.115,-0.095
158,-0.105,-0.105
159,-0.115,-0.095
160,-0.105,-0.115
161,-0.115,-0.115
162,-0.135,-0.105
163,-0.145,-0.145
164,-0.125,-0.125
165,-0.115,-0.115
166,-0.095,-0.095
167,-0.095,-0.115
168,-0.095,-0.095
169,-0.105,-0.095
170,-0.105,-0.095
171,-0.105,-0.125
172,-0.055,-0.055
173,-0.015,-0.055
174,-0.025,-0.085
175,0.045,-0.095
176,0.075,-0.105
177,0.015,-0.115
178,-0.085,-0.115
179,-0.075,-0.145
180,-0.075,-0.145
181,-0.135,-0.115
182,-0.105,-0.115
183,-0.125,-0.145
184,-0.125,-0.145
185,-0.115,-0.135
186,-0.145,-0.135
187,-0.145,-0.155
188,-0.135,-0.135
189,-0.125,-0.135
190,-0.085,-0.125
191,-0.075,-0.025
192,-0.365,0.055
193,-0.615,-0.055
194,-0.035,-0.805
195,1.565,-1.175
196,2.575,-0.805
197,2.895,-0.625
198,1.415,-0.275
199,0.065,-0.085
200,-0.085,-0.015
201,-0.115,-0.005
202,-0.185,-0.015
203,-0.205,-0.015
204,-0.205,-0.015
205,-0.215,-0.005
206,-0.185,-0.005
207,-0.195,-0.015
208,-0.195,0.005
209,-0.185,0.005
210,-0.205,0.005
211,-0.205,-0.005
212,-0.185,0.005
213,-0.185,0.025
214,-0.135,0.045
215,-0.125,0.025
216,-0.115,0.045
217,-0.085,0.055
218,-0.085,0.055
219,-0.045,0.055
220,0.005,0.065
221,0.055,0.095
222,0.135,0.105
223,0.175,0.085
224,0.225,0.085
225,0.285,0.105
226,0.305,0.095
227,0.345,0.085
228,0.365,0.085
229,0.355,0.095
230,0.335,0.075
231,0.245,0.035
232,0.135,0.005
233,0.055,-0.005
234,-0.065,-0.055
235,-0.115,-0.065
236,-0.135,-0.075
237,-0.165,-0.085
238,-0.135,-0.075
239,-0.155,-0.085
240,-0.145,-0.085
241,-0.155,-0.075
242,-0.175,-0.095
243,-0.175,-0.105
244,-0.165,-0.085
245,-0.155,-0.075
246,-0.135,-0.075
247,-0.135,-0.085
248,-0.145,-0.065
249,-0.135,-0.055
250,-0.155,-0.075
251,-0.175,-0.085
252,-0.165,-0.075
253,-0.155,-0.055
254,-0.135,-0.075
255,-0.135,-0.085
256,-0.135,-0.075
257,-0.145,-0.075
258,-0.165,-0.075
259,-0.165,-0.085
260,-0.175,-0.105
261,-0.165,-0.095
262,-0.155,-0.075
263,-0.165,-0.105
264,-0.175,-0.105
265,-0.165,-0.105
266,-0.195,-0.125
267,-0.205,-0.135
268,-0.185,-0.135
269,-0.175,-0.125
270,-0.165,-0.115
271,-0.165,-0.125
272,-0.165,-0.115
273,-0.185,-0.105
274,-0.185,-0.125
275,-0.185,-0.135
276,-0.165,-0.125
277,-0.155,-0.115
278,-0.145,-0.115
279,-0.145,-0.115
280,-0.135,-0.115
281,-0.135,-0.135
282,-0.135,-0.085
283,-0.085,-0.065
284,-0.065,-0.105
285,-0.015,-0.105
286,0.075,-0.125
287,-0.015,-0.165
288,-0.095,-0.135
289,-0.065,-0.145
290,-0.135,-0.165
291,-0.175,-0.165
292,-0.175,-0.165
293,-0.175,-0.155
294,-0.145,-0.145
295,-0.145,-0.155
296,-0.145,-0.155
297,-0.145,-0.165
298,-0.175,-0.155
299,-0.185,-0.155
300,-0.165,-0.155
301,-0.155,0.005
302,-0.505,0.125
303,-0.695,0.065
304,-0.005,-0.985
305,1.605,-1.265
306,2.585,-0.805
307,2.905,-0.745
308,1.545,-0.375
309,0.025,-0.095
310,-0.125,0.005
311,-0.145,-0.005
312,-0.205,-0.035
313,-0.225,-0.015
314,-0.265,-0.015
315,-0.275,-0.035
316,-0.275,-0.025
317,-0.265,-0.025
318,-0.245,-0.015
319,-0.245,-0.025
320,-0.245,-0.045
321,-0.225,-0.025
322,-0.235,-0.025
323,-0.215,-0.035
324,-0.185,-0.025
325,-0.185,-0.025
326,-0.125,-0.015
327,-0.125,-0.015
328,-0.085,0.015
329,-0.055,0.035
330,-0.035,0.025
331,-0.015,-0.005
332,0.055,0.015
333,0.125,0.035
334,0.205,0.035
335,0.245,0.025
336,0.285,0.025
337,0.325,0.035
338,0.345,0.025
339,0.325,0.045
340,0.295,0.015
341,0.245,0.025
342,0.155,0.005
343,0.085,-0.005
344,-0.015,-0.055
345,-0.095,-0.075
346,-0.145,-0.095
347,-0.205,-0.095
348,-0.195,-0.075
349,-0.175,-0.075
350,-0.175,-0.075
351,-0.175,-0.065
352,-0.185,-0.075
353,-0.185,-0.075
354,-0.195,-0.065
355,-0.215,-0.075
356,-0.195,-0.065
357,-0.185,-0.075
358,-0.185,-0.055
359,-0.175,-0.065
360,-0.175,-0.085
361,-0.175,-0.085
362,-0.185,-0.085
363,-0.215,-0.105
364,-0.205,-0.115
365,-0.185,-0.095
366,-0.175,-0.095
367,-0.175,-0.115
368,-0.185,-0.135
369,-0.195,-0.135
370,-0.215,-0.135
371,-0.225,-0.135
372,-0.215,-0.125
373,-0.205,-0.125
374,-0.195,-0.115
375,-0.195,-0.145
376,-0.215,-0.115
377,-0.205,-0.105
378,-0.225,-0.115
379,-0.225,-0.145
380,-0.215,-0.125
381,-0.215,-0.105
382,-0.175,-0.105
383,-0.165,-0.115
384,-0.165,-0.135
385,-0.135,-0.065
386,-0.125,-0.075
387,-0.115,-0.115
388,-0.065,-0.095
389,0.005,-0.125
390,-0.015,-0.145
391,-0.105,-0.135
392,-0.115,-0.145
393,-0.125,-0.145
394,-0.205,-0.135
395,-0.215,-0.145
396,-0.225,-0.155
397,-0.215,-0.165
398,-0.185,-0.145
399,-0.185,-0.145
400,-0.185,-0.155
401,-0.185,-0.135
402,-0.215,-0.145
403,-0.195,-0.145
404,-0.155,-0.065
405,-0.305,0.135
406,-0.675,0.215
407,-0.575,-0.235
408,0.765,-1.375
409,2.195,-0.955
410,2.855,-0.765
411,2.415,-0.545
412,0.505,-0.145
413,-0.165,0.005
414,-0.145,0.025
415,-0.195,-0.005
416,-0.235,-0.015
417,-0.255,0.015
418,-0.275,-0.005
419,-0.285,-0.025
420,-0.265,-0.005
421,-0.255,-0.005
422,-0.225,0.005
423,-0.225,-0.025
424,-0.225,0.005
425,-0.215,0.025
426,-0.215,-0.005
427,-0.215,-0.005
428,-0.175,0.015
429,-0.155,0.025
430,-0.095,0.035
431,-0.085,0.045
432,-0.045,0.055
433,-0.005,0.065
434,0.025,0.045
435,0.075,0.045
436,0.155,0.065
437,0.215,0.055
438,0.285,0.055
439,0.335,0.055
440,0.365,0.055
441,0.395,0.075
442,0.365,0.055
443,0.325,0.045
444,0.255,0.025
445,0.185,0.025
446,0.115,0.015
447,0.005,-0.015
448,-0.035,-0.035
449,-0.095,-0.035
450,-0.145,-0.055
451,-0.155,-0.065
452,-0.145,-0.065
453,-0.155,-0.065
454,-0.125,-0.055
455,-0.125,-0.085
456,-0.135,-0.055
457,-0.125,-0.035
458,-0.145,-0.045
459,-0.135,-0.055
460,-0.135,-0.045
461,-0.135,-0.045
462,-0.095,-0.025
463,-0.095,-0.045
464,-0.095,-0.045
465,-0.095,-0.045
466,-0.125,-0.055
467,-0.115,-0.065
468,-0.105,-0.065
469,-0.115,-0.065
470,-0.095,-0.065
471,-0.105,-0.075
472,-0.115,-0.085
473,-0.115,-0.065
474,-0.135,-0.075
475,-0.145,-0.105
476,-0.145,-0.095
477,-0.115,-0.085
478,-0.105,-0.085
479,-0.115,-0.115
480,-0.125,-0.115
481,-0.115,-0.095
482,-0.135,-0.105
483,-0.135,-0.115
484,-0.125,-0.125
485,-0.125,-0.115
486,-0.095,-0.115
487,-0.105,-0.115
488,-0.105,-0.115
489,-0.095,-0.095
490,-0.115,-0.105
491,-0.095,-0.115
492,-0.085,-0.085
493,-0.025,-0.035
494,0.025,-0.045
495,0.005,-0.095
496,0.095,-0.105
497,0.095,-0.115
498,-0.015,-0.165
499,-0.065,-0.135
500,-0.045,-0.155
501,-0.065,-0.155
502,-0.085,-0.105
503,-0.105,-0.135
504,-0.125,-0.155
505,-0.115,-0.135
506,-0.145,-0.155
507,-0.135,-0.155
508,-0.135,-0.165
509,-0.135,-0.145
510,-0.095,-0.115
511,-0.085,-0.155
512,-0.095,0.055
513,-0.415,0.195
514,-0.665,0.035
515,0.155,-1.235
516,1.755,-1.375
517,2.675,-0.815
518,2.915,-0.655
519,1.225,-0.175
520,0.015,0.005
521,-0.065,0.025
522,-0.145,0.005
523,-0.185,-0.015
524,-0.205,-0.005
525,-0.215,0.005
526,-0.185,0.015
527,-0.195,0.015
528,-0.205,0.005
529,-0.205,0.025
530,-0.205,-0.005
531,-0.205,0.005
532,-0.195,0.025
533,-0.175,0.035
534,-0.145,0.025
535,-0.135,0.025
536,-0.115,0.035
537,-0.095,0.055
538,-0.095,0.065
539,-0.065,0.075
540,-0.015,0.075
541,0.035,0.085
542,0.115,0.115
543,0.165,0.105
544,0.205,0.105
545,0.255,0.125
546,0.295,0.115
547,0.335,0.105
548,0.395,0.095
549,0.415,0.125
550,0.415,0.115
551,0.365,0.085
552,0.265,0.045
553,0.175,0.045
554,0.055,-0.005
555,-0.015,-0.035
556,-0.045,-0.045
557,-0.075,-0.045
558,-0.075,-0.045
559,-0.085,-0.065
560,-0.095,-0.065
561,-0.105,-0.055
562,-0.115,-0.055
563,-0.115,-0.065
564,-0.105,-0.055
565,-0.095,-0.055
566,-0.075,-0.025
567,-0.075,-0.045
568,-0.085,-0.035
569,-0.085,-0.025
570,-0.105,-0.045
571,-0.115,-0.055
572,-0.105,-0.055
573,-0.105,-0.035
574,-0.085,-0.045
575,-0.095,-0.075
576,-0.105,-0.055
577,-0.105,-0.045
578,-0.135,-0.085
579,-0.135,-0.095
580,-0.135,-0.095
581,-0.135,-0.095
582,-0.115,-0.085
583,-0.135,-0.115
584,-0.145,-0.105
585,-0.135,-0.085
586,-0.155,-0.115
587,-0.165,-0.125
588,-0.155,-0.115
589,-0.165,-0.125
590,-0.125,-0.115
591,-0.135,-0.135
592,-0.135,-0.115
593,-0.145,-0.105
594,-0.165,-0.105
595,-0.165,-0.135
596,-0.155,-0.115
597,-0.155,-0.115
598,-0.125,-0.115
599,-0.135,-0.115
600,-0.135,-0.115
601,-0.135,-0.085
602,-0.135,-0.085
603,-0.135,-0.145
604,-0.105,-0.085
605,-0.065,-0.065
606,-0.035,-0.095
607,0.005,-0.095
608,0.065,-0.135
609,0.015,-0.135
610,-0.115,-0.135
611,-0.105,-0.145
612,-0.105,-0.145
613,-0.135,-0.135
614,-0.135,-0.115
615,-0.155,-0.155
616,-0.175,-0.145
617,-0.165,-0.125
618,-0.175,-0.155
619,-0.185,-0.135
620,-0.175,-0.155
621,-0.165,-0.135
622,-0.165,-0.135
623,-0.145,-0.115
624,-0.185,0.115
625,-0.605,0.165
626,-0.665,-0.135
627,0.415,-1.335
628,1.885,-1.135
629,2.735,-0.745
630,2.425,-0.495
631,0.505,-0.105
632,-0.135,0.005
633,-0.175,0.005
634,-0.235,-0.015
635,-0.265,-0.045
636,-0.285,-0.035
637,-0.295,-0.025
638,-0.265,-0.025
639,-0.265,-0.025
640,-0.275,-0.015
641,-0.255,0.005
642,-0.275,-0.025
643,-0.275,-0.045
644,-0.255,-0.015
645,-0.255,0.005
646,-0.205,0.025
647,-0.195,0.015
648,-0.185,0.005
649,-0.165,0.025
650,-0.155,0.045
651,-0.125,0.035
652,-0.075,0.045
653,-0.035,0.045
654,0.055,0.065
655,0.105,0.075
656,0.155,0.065
657,0.205,0.085
658,0.235,0.075
659,0.265,0.065
660,0.305,0.045
661,0.325,0.075
662,0.325,0.055
663,0.245,0.045
664,0.155,-0.005
665,0.065,-0.005
666,-0.075,-0.045
667,-0.145,-0.065
668,-0.175,-0.085
669,-0.205,-0.105
670,-0.195,-0.085
671,-0.195,-0.105
672,-0.205,-0.105
673,-0.195,-0.085
674,-0.235,-0.105
675,-0.215,-0.115
676,-0.215,-0.105
677,-0.235,-0.095
678,-0.195,-0.095
679,-0.195,-0.095
680,-0.205,-0.105
681,-0.195,-0.075
682,-0.215,-0.095
683,-0.215,-0.105
684,-0.215,-0.095
685,-0.225,-0.105
686,-0.205,-0.085
687,-0.225,-0.095
688,-0.225,-0.115
689,-0.215,-0.105
690,-0.255,-0.115
691,-0.245,-0.125
692,-0.255,-0.145
693,-0.265,-0.145
694,-0.225,-0.125
695,-0.235,-0.145
696,-0.245,-0.145
697,-0.245,-0.135
698,-0.265,-0.155
699,-0.275,-0.165
700,-0.265,-0.145
701,-0.255,-0.145
702,-0.235,-0.135
703,-0.235,-0.165
704,-0.255,-0.165
705,-0.235,-0.145
706,-0.245,-0.155
707,-0.255,-0.175
708,-0.245,-0.155
709,-0.235,-0.145
710,-0.195,-0.175
711,-0.205,-0.135
712,-0.165,-0.115
713,-0.145,-0.115
714,-0.175,-0.135
715,-0.075,-0.155
716,-0.065,-0.185
717,-0.155,-0.165
718,-0.145,-0.135
719,-0.155,-0.185
720,-0.215,-0.175
721,-0.235,-0.155
722,-0.265,-0.165
723,-0.265,-0.185
724,-0.245,-0.175
725,-0.255,-0.175
726,-0.225,-0.165
727,-0.225,-0.175
728,-0.235,-0.165
729,-0.225,-0.155
730,-0.235,-0.135
731,-0.365,0.065
732,-0.775,0.135
733,-0.705,-0.165
734,0.735,-1.275
735,2.155,-0.915
736,2.785,-0.755
737,2.305,-0.565
738,0.335,-0.185
739,-0.275,-0.045
740,-0.235,-0.025
741,-0.275,-0.045
742,-0.295,-0.015
743,-0.305,-0.055
744,-0.325,-0.035
745,-0.315,-0.035
746,-0.345,-0.025
747,-0.335,-0.055
748,-0.325,-0.025
749,-0.315,-0.025
750,-0.285,-0.015
751,-0.285,-0.035
752,-0.275,-0.025
753,-0.245,-0.005
754,-0.265,-0.025
755,-0.245,-0.025
756,-0.205,0.005
757,-0.185,0.005
758,-0.125,0.035
759,-0.085,0.015
760,-0.035,0.005
761,0.015,0.045
762,0.035,0.025
763,0.095,0.025
764,0.155,0.025
765,0.205,0.025
766,0.275,0.025
767,0.305,0.045
768,0.295,0.045
769,0.285,0.065
770,0.155,0.035
771,0.075,0.025
772,-0.005,0.005
773,-0.095,-0.025
774,-0.115,-0.035
775,-0.175,-0.055
776,-0.215,-0.075
777,-0.215,-0.065
778,-0.245,-0.075
779,-0.235,-0.085
780,-0.225,-0.075
781,-0.235,-0.075
782,-0.205,-0.055
783,-0.195,-0.045
784,-0.205,-0.035
785,-0.205,-0.045
786,-0.215,-0.065
787,-0.205,-0.055
788,-0.185,-0.055
789,-0.205,-0.055
790,-0.175,-0.045
791,-0.175,-0.065
792,-0.185,-0.065
793,-0.175,-0.065
794,-0.195,-0.075
795,-0.195,-0.075
796,-0.185,-0.075
797,-0.195,-0.085
798,-0.175,-0.075
799,-0.175,-0.085
800,-0.175,-0.095
801,-0.185,-0.085
802,-0.195,-0.105
803,-0.205,-0.105
804,-0.195,-0.095
805,-0.205,-0.095
806,-0.185,-0.075
807,-0.195,-0.095
808,-0.185,-0.085
809,-0.185,-0.085
810,-0.215,-0.085
811,-0.215,-0.105
812,-0.195,-0.075
813,-0.195,-0.095
814,-0.115,-0.035
815,-0.095,-0.035
816,-0.115,-0.065
817,-0.105,-0.055
818,-0.035,-0.075
819,-0.055,-0.125
820,-0.135,-0.115
821,-0.135,-0.115
822,-0.135,-0.115
823,-0.175,-0.105
824,-0.185,-0.105
825,-0.205,-0.115
826,-0.225,-0.115
827,-0.225,-0.125
828,-0.215,-0.115
829,-0.195,-0.105
830,-0.185,-0.105
831,-0.185,-0.105
832,-0.185,-0.105
833,-0.155,-0.005
834,-0.395,0.145
835,-0.725,0.155
836,-0.415,-0.565
837,1.235,-1.345
838,2.345,-0.895
839,2.815,-0.715
840,2.095,-0.425
841,0.265,-0.075
842,-0.175,0.045
843,-0.205,0.035
844,-0.255,0.035
845,-0.285,0.045
846,-0.245,0.055
847,-0.265,0.015
848,-0.275,0.025
849,-0.265,0.045
850,-0.275,0.025
851,-0.285,0.015
852,-0.255,0.035
853,-0.235,0.045
854,-0.205,0.045
855,-0.195,0.045
856,-0.175,0.045
857,-0.155,0.055
858,-0.175,0.055
859,-0.125,0.055
860,-0.095,0.075
861,-0.065,0.085
862,-0.005,0.105
863,0.035,0.115
864,0.085,0.125
865,0.165,0.125
866,0.195,0.125
867,0.245,0.105
868,0.295,0.115
869,0.345,0.135
870,0.395,0.135
871,0.365,0.115
872,0.325,0.115
873,0.235,0.105
874,0.115,0.045
875,0.005,0.005
876,-0.065,-0.015
877,-0.105,-0.025
878,-0.115,-0.025
879,-0.135,-0.045
880,-0.155,-0.035
881,-0.165,-0.035
882,-0.185,-0.045
883,-0.185,-0.055
884,-0.175,-0.045
885,-0.155,-0.035
886,-0.125,-0.025
887,-0.135,-0.035
888,-0.155,-0.025
889,-0.135,-0.005
890,-0.155,-0.025
891,-0.165,-0.035
892,-0.135,-0.025
893,-0.135,-0.035
894,-0.105,-0.015
895,-0.105,-0.035
896,-0.125,-0.045
897,-0.115,-0.035
898,-0.145,-0.035
899,-0.135,-0.055
900,-0.135,-0.065
901,-0.145,-0.055
902,-0.125,-0.065
903,-0.145,-0.075
904,-0.145,-0.085
905,-0.135,-0.085
906,-0.185,-0.095
907,-0.185,-0.095
908,-0.165,-0.095
909,-0.155,-0.095
910,-0.145,-0.095
911,-0.145,-0.095
912,-0.155,-0.095
913,-0.145,-0.095
914,-0.185,-0.095
915,-0.185,-0.105
916,-0.175,-0.095
917,-0.165,-0.095
918,-0.135,-0.085
919,-0.135,-0.075
920,-0.115,-0.075
921,-0.095,-0.025
922,-0.075,-0.035
923,-0.085,-0.065
924,-0.045,-0.075
925,0.035,-0.085
926,0.035,-0.095
927,-0.065,-0.105
928,-0.085,-0.105
929,-0.085,-0.115
930,-0.135,-0.115
931,-0.165,-0.105
932,-0.175,-0.115
933,-0.175,-0.125
934,-0.135,-0.105
935,-0.155,-0.115
936,-0.155,-0.105
937,-0.135,-0.105
938,-0.165,-0.095
939,-0.165,-0.125
940,-0.135,-0.095
941,-0.235,0.165
942,-0.625,0.205
943,-0.505,-0.485
944,1.115,-1.465
945,2.365,-0.945
946,2.855,-0.725
947,2.125,-0.435
948,0.405,-0.045
949,-0.095,0.055
950,-0.095,0.055
951,-0.165,0.005
952,-0.215,0.025
953,-0.225,0.035
954,-0.275,0.015
955,-0.265,0.025
956,-0.265,0.015
957,-0.275,0.035
958,-0.215,0.035
959,-0.235,0.015
960,-0.235,0.025
961,-0.215,0.045
962,-0.235,0.035
963,-0.215,0.035
964,-0.195,0.055
965,-0.175,0.055
966,-0.125,0.065
967,-0.105,0.075
968,-0.085,0.095
969,-0.025,0.105
970,0.005,0.095
971,0.065,0.115
972,0.115,0.135
973,0.165,0.135
974,0.235,0.145
975,0.285,0.125
976,0.305,0.135
977,0.355,0.155
978,0.355,0.145
979,0.305,0.115
980,0.245,0.105
981,0.145,0.075
982,0.085,0.055
983,-0.015,-0.005
984,-0.095,-0.025
985,-0.125,-0.035
986,-0.185,-0.035
987,-0.195,-0.045
988,-0.195,-0.065
989,-0.195,-0.085
990,-0.175,-0.055
991,-0.175,-0.065
992,-0.185,-0.075
993,-0.185,-0.045
994,-0.225,-0.055
995,-0.225,-0.055
996,-0.205,-0.045
997,-0.175,-0.035
998,-0.175,-0.035
999,-0.185,-0.055
1000,-0.185,-0.045
1001,-0.195,-0.025
1002,-0.215,-0.045
1003,-0.205,-0.065
1004,-0.195,-0.065
1005,-0.205,-0.075
1006,-0.185,-0.065
1007,-0.185,-0.055
1008,-0.195,-0.075
1009,-0.205,-0.085
1010,-0.225,-0.075
1011,-0.235,-0.105
1012,-0.235,-0.105
1013,-0.235,-0.085
1014,-0.205,-0.095
1015,-0.215,-0.105
1016,-0.225,-0.125
1017,-0.225,-0.115
1018,-0.235,-0.115
1019,-0.245,-0.125
1020,-0.235,-0.135
1021,-0.235,-0.115
1022,-0.195,-0.095
1023,-0.225,-0.125
1024,-0.215,-0.115
1025,-0.215,-0.115
1026,-0.245,-0.105
1027,-0.215,-0.105
1028,-0.215,-0.135
1029,-0.175,-0.075
1030,-0.115,-0.055
1031,-0.135,-0.105
1032,-0.105,-0.095
1033,-0.015,-0.115
1034,-0.115,-0.155
1035,-0.175,-0.135
1036,-0.145,-0.145
1037,-0.175,-0.155
1038,-0.185,-0.115
1039,-0.195,-0.145
1040,-0.225,-0.155
1041,-0.225,-0.135
1042,-0.245,-0.135
1043,-0.255,-0.135
1044,-0.245,-0.135
1045,-0.235,-0.135
1046,-0.215,-0.125
1047,-0.205,-0.125
1048,-0.205,-0.015
1049,-0.495,0.135
1050,-0.785,0.145
1051,-0.465,-0.495
1052,1.035,-1.335
1053,2.345,-0.825
1054,2.885,-0.695
1055,1.625,-0.385
1056,0.005,-0.075
1057,-0.195,0.025
1058,-0.265,-0.015
1059,-0.305,-0.035
1060,-0.315,-0.035
1061,-0.325,-0.035
1062,-0.295,-0.025
1063,-0.305,-0.035
1064,-0.305,-0.005
1065,-0.285,-0.005
1066,-0.315,-0.015
1067,-0.325,-0.015
1068,-0.285,-0.005
1069,-0.275,0.005
1070,-0.235,0.015
1071,-0.245,-0.015
1072,-0.215,0.015
1073,-0.185,0.045
1074,-0.185,0.015
1075,-0.175,0.015
1076,-0.135,0.015
1077,-0.085,0.025
1078,-0.025,0.035
1079,0.015,0.025
1080,0.075,0.025
1081,0.145,0.025
1082,0.175,0.025
1083,0.215,0.035
1084,0.275,0.045
1085,0.305,0.055
1086,0.315,0.065
1087,0.265,0.055
1088,0.185,0.025
1089,0.085,0.045
1090,-0.015,0.005
1091,-0.115,-0.045
1092,-0.155,-0.065
1093,-0.185,-0.055
1094,-0.185,-0.055
1095,-0.205,-0.075
1096,-0.225,-0.065
1097,-0.215,-0.065
1098,-0.255,-0.075
1099,-0.245,-0.075
1100,-0.245,-0.065
1101,-0.225,-0.055
1102,-0.195,-0.045
1103,-0.205,-0.055
1104,-0.205,-0.045
1105,-0.195,-0.045
1106,-0.225,-0.055
1107,-0.225,-0.065
1108,-0.215,-0.065
1109,-0.225,-0.065
1110,-0.175,-0.055
1111,-0.185,-0.065
1112,-0.205,-0.065
1113,-0.195,-0.075
1114,-0.235,-0.095
1115,-0.235,-0.105
1116,-0.215,-0.095
1117,-0.235,-0.105
1118,-0.195,-0.095
1119,-0.225,-0.115
1120,-0.225,-0.115
1121,-0.215,-0.095
1122,-0.255,-0.115
1123,-0.245,-0.105
1124,-0.225,-0.105
1125,-0.235,-0.115
1126,-0.195,-0.105
1127,-0.225,-0.095
1128,-0.195,-0.075
1129,-0.165,-0.095
1130,-0.175,-0.055
1131,-0.135,-0.065
1132,-0.125,-0.065
1133,-0.125,-0.065
1134,0.005,-0.075
1135,-0.035,-0.115
1136,-0.125,-0.105
1137,-0.115,-0.105
1138,-0.165,-0.165
1139,-0.215,-0.145
1140,-0.195,-0.105
1141,-0.235,-0.145
1142,-0.205,-0.135
1143,-0.195,-0.135
1144,-0.205,-0.125
1145,-0.195,-0.135
1146,-0.215,-0.135
1147,-0.215,-0.145
1148,-0.195,-0.135
1149,-0.175,-0.105
1150,-0.205,0.125
1151,-0.655,0.185
1152,-0.685,-0.035
1153,0.535,-1.225
1154,2.015,-1.015
1155,2.735,-0.755
1156,2.615,-0.595
1157,0.795,-0.185
1158,-0.105,0.025
1159,-0.135,0.035
1160,-0.175,0.035
1161,-0.215,0.035
1162,-0.265,0.015
1163,-0.275,0.005
1164,-0.275,0.005
1165,-0.255,0.025
1166,-0.235,0.035
1167,-0.235,0.025
1168,-0.235,0.015
1169,-0.215,0.015
1170,-0.235,0.025
1171,-0.225,0.005
1172,-0.205,0.005
1173,-0.195,0.035
1174,-0.145,0.035
1175,-0.135,0.035
1176,-0.105,0.035
1177,-0.055,0.065
1178,-0.055,0.045
1179,0.005,0.045
1180,0.065,0.065
1181,0.135,0.075
1182,0.215,0.095
1183,0.265,0.055
1184,0.315,0.065
1185,0.365,0.075
1186,0.355,0.075
1187,0.355,0.075
1188,0.365,0.075
1189,0.305,0.075
1190,0.235,0.065
1191,0.155,0.055
1192,0.045,0.015
1193,-0.015,0.005
1194,-0.095,-0.035
1195,-0.145,-0.055
1196,-0.145,-0.055
1197,-0.135,-0.065
1198,-0.155,-0.065
1199,-0.135,-0.055
1200,-0.135,-0.055
1201,-0.135,-0.065
1202,-0.155,-0.055
1203,-0.155,-0.055
1204,-0.145,-0.065
1205,-0.115,-0.055
1206,-0.105,-0.035
1207,-0.105,-0.045
1208,-0.105,-0.035
1209,-0.105,-0.045
1210,-0.115,-0.035
1211,-0.125,-0.055
1212,-0.125,-0.055
1213,-0.115,-0.055
1214,-0.095,-0.035
1215,-0.085,-0.055
1216,-0.105,-0.045
1217,-0.105,-0.065
1218,-0.125,-0.065
1219,-0.135,-0.065
1220,-0.125,-0.065
1221,-0.115,-0.065
1222,-0.115,-0.065
1223,-0.115,-0.075
1224,-0.115,-0.085
1225,-0.115,-0.065
1226,-0.125,-0.075
1227,-0.145,-0.085
1228,-0.125,-0.075
1229,-0.115,-0.095
1230,-0.105,-0.095
1231,-0.115,-0.085
1232,-0.105,-0.085
1233,-0.085,-0.075
1234,-0.095,-0.085
1235,-0.065,-0.045
1236,-0.015,-0.025
1237,-0.005,-0.045
1238,0.045,-0.055
1239,0.125,-0.075
1240,0.065,-0.115
1241,-0.015,-0.095
1242,-0.055,-0.115
1243,-0.075,-0.155
1244,-0.095,-0.115
1245,-0.095,-0.115
1246,-0.105,-0.115
1247,-0.095,-0.115
1248,-0.095,-0.115
1249,-0.095,-0.105
1250,-0.115,-0.115
1251,-0.115,-0.115
1252,-0.105,-0.105
1253,-0.095,-0.105
1254,-0.035,-0.005
1255,-0.265,0.205
1256,-0.615,0.235
1257,-0.295,-0.625
1258,1.285,-1.545
1259,2.475,-0.925
1260,2.965,-0.725
1261,1.875,-0.325
1262,0.245,0.015
1263,-0.045,0.055
1264,-0.085,0.045
1265,-0.115,0.025
1266,-0.185,0.025
1267,-0.195,0.015
1268,-0.175,0.025
1269,-0.185,0.025
1270,-0.155,0.045
1271,-0.165,0.035
1272,-0.165,0.045
1273,-0.135,0.055
1274,-0.165,0.025
1275,-0.145,0.035
1276,-0.115,0.045
1277,-0.115,0.045
1278,-0.065,0.065
1279,-0.055,0.065
1280,-0.035,0.065
1281,0.015,0.085
1282,0.005,0.095
1283,0.055,0.105
1284,0.115,0.115
1285,0.175,0.125
1286,0.275,0.125
1287,0.325,0.105
1288,0.355,0.125
1289,0.405,0.135
1290,0.405,0.125
1291,0.425,0.115
1292,0.435,0.125
1293,0.395,0.105
1294,0.345,0.095
1295,0.255,0.045
1296,0.155,0.025
1297,0.085,0.015
1298,0.005,-0.035
1299,-0.025,-0.055
1300,-0.045,-0.035
1301,-0.055,-0.055
1302,-0.035,-0.035
1303,-0.035,-0.055
1304,-0.035,-0.065
1305,-0.025,-0.045
1306,-0.035,-0.065
1307,-0.045,-0.055
1308,-0.035,-0.045
1309,-0.035,-0.035
1310,-0.005,-0.025
1311,-0.005,-0.035
1312,-0.005,-0.045
1313,-0.005,-0.025
1314,-0.015,-0.035
1315,-0.025,-0.055
1316,-0.015,-0.045
1317,-0.015,-0.065
1318,0.005,-0.055
1319,-0.015,-0.065
1320,-0.015,-0.065
1321,-0.015,-0.085
1322,-0.035,-0.075
1323,-0.045,-0.095
1324,-0.035,-0.085
1325,-0.035,-0.105
1326,-0.035,-0.095
1327,-0.035,-0.105
1328,-0.045,-0.115
1329,-0.055,-0.115
1330,-0.075,-0.115
1331,-0.085,-0.135
1332,-0.085,-0.125
1333,-0.085,-0.115
1334,-0.075,-0.115
1335,-0.075,-0.135
1336,-0.075,-0.125
1337,-0.075,-0.125
1338,-0.095,-0.125
1339,-0.115,-0.125
1340,-0.105,-0.115
1341,-0.085,-0.105
1342,-0.075,-0.115
1343,-0.055,-0.095
1344,-0.025,-0.085
1345,-0.035,-0.105
1346,0.015,-0.125
1347,0.065,-0.155
1348,-0.005,-0.175
1349,-0.085,-0.155
1350,-0.045,-0.145
1351,-0.075,-0.155
1352,-0.145,-0.135
1353,-0.135,-0.125
1354,-0.175,-0.145
1355,-0.175,-0.145
1356,-0.155,-0.145
1357,-0.165,-0.135
1358,-0.125,-0.125
1359,-0.125,-0.145
1360,-0.135,-0.145
1361,-0.135,-0.125
1362,-0.135,-0.055
1363,-0.305,0.045
1364,-0.695,-0.045
1365,-0.365,-0.655
1366,1.225,-1.175
1367,2.455,-0.875
1368,2.945,-0.675
1369,1.825,-0.345
1370,0.115,-0.115
1371,-0.145,-0.035
1372,-0.155,-0.025
1373,-0.205,-0.015
1374,-0.215,-0.015
1375,-0.215,-0.025
1376,-0.245,-0.035
1377,-0.255,-0.025
1378,-0.255,-0.015
1379,-0.255,-0.025
1380,-0.245,-0.025
1381,-0.235,-0.015
1382,-0.215,-0.015
1383,-0.215,-0.025
1384,-0.205,-0.015
1385,-0.185,0.005
1386,-0.195,-0.005
1387,-0.175,0.005
1388,-0.135,0.015
1389,-0.095,0.025
1390,-0.045,0.055
1391,-0.015,0.055
1392,0.025,0.055
1393,0.085,0.055
1394,0.115,0.065
1395,0.155,0.055
1396,0.235,0.045
1397,0.285,0.065
1398,0.345,0.065
1399,0.375,0.065
1400,0.375,0.045
1401,0.325,0.055
1402,0.245,0.015
1403,0.145,-0.015
1404,0.065,-0.035
1405,-0.015,-0.075
1406,-0.065,-0.085
1407,-0.115,-0.115
1408,-0.155,-0.155
1409,-0.165,-0.135
1410,-0.185,-0.135
1411,-0.195,-0.175
1412,-0.195,-0.165
1413,-0.185,-0.155
1414,-0.165,-0.135
1415,-0.165,-0.135
1416,-0.175,-0.145
1417,-0.175,-0.145
1418,-0.185,-0.135
1419,-0.205,-0.165
1420,-0.185,-0.145
1421,-0.175,-0.125
1422,-0.155,-0.145
1423,-0.165,-0.165
1424,-0.175,-0.155
1425,-0.185,-0.135
1426,-0.185,-0.145
1427,-0.215,-0.165
1428,-0.205,-0.165
1429,-0.205,-0.145
1430,-0.185,-0.135
1431,-0.195,-0.155
1432,-0.205,-0.185
1433,-0.205,-0.145
1434,-0.225,-0.175
1435,-0.225,-0.175
1436,-0.215,-0.175
1437,-0.215,-0.175
1438,-0.185,-0.165
1439,-0.195,-0.195
1440,-0.215,-0.195
1441,-0.205,-0.165
1442,-0.235,-0.195
1443,-0.225,-0.205
1444,-0.215,-0.205
1445,-0.195,-0.175
1446,-0.165,-0.145
1447,-0.165,-0.205
1448,-0.145,-0.155
1449,-0.105,-0.135
1450,-0.125,-0.165
1451,-0.135,-0.165
1452,-0.025,-0.185
1453,-0.055,-0.215
1454,-0.125,-0.185
1455,-0.125,-0.195
1456,-0.145,-0.215
1457,-0.195,-0.175
1458,-0.225,-0.205
1459,-0.255,-0.215
1460,-0.225,-0.195
1461,-0.225,-0.185
1462,-0.195,-0.205
1463,-0.205,-0.205
1464,-0.215,-0.195
1465,-0.195,-0.185
1466,-0.225,-0.195
1467,-0.195,-0.085
1468,-0.435,0.085
1469,-0.775,0.115
1470,-0.415,-0.675
1471,1.275,-1.355
1472,2.525,-0.865
1473,2.935,-0.755
1474,1.715,-0.445
1475,0.055,-0.155
1476,-0.215,-0.045
1477,-0.205,-0.065
1478,-0.215,-0.055
1479,-0.275,-0.075
1480,-0.295,-0.045
1481,-0.305,-0.045
1482,-0.335,-0.065
1483,-0.315,-0.055
1484,-0.285,-0.065
1485,-0.285,-0.075
1486,-0.255,-0.055
1487,-0.265,-0.055
1488,-0.245,-0.055
1489,-0.235,-0.035
1490,-0.245,-0.045
1491,-0.225,-0.065
1492,-0.195,-0.055
1493,-0.175,-0.035
1494,-0.105,-0.015
1495,-0.075,-0.035
1496,-0.055,-0.035
1497,0.005,-0.005
1498,0.045,-0.015
1499,0.115,-0.015
1500,0.185,-0.015
1501,0.225,-0.005
1502,0.305,0.015
1503,0.325,-0.015
1504,0.335,0.025
1505,0.335,0.045
1506,0.275,0.025
1507,0.205,0.005
1508,0.115,-0.015
1509,0.015,-0.035
1510,-0.045,-0.035
1511,-0.115,-0.065
1512,-0.165,-0.075
1513,-0.185,-0.075
1514,-0.205,-0.115
1515,-0.225,-0.105
1516,-0.205,-0.095
1517,-0.205,-0.085
1518,-0.195,-0.085
1519,-0.195,-0.095
1520,-0.205,-0.085
1521,-0.185,-0.085
1522,-0.205,-0.075
1523,-0.205,-0.105
1524,-0.205,-0.065
1525,-0.185,-0.065
1526,-0.165,-0.065
1527,-0.165,-0.075
1528,-0.175,-0.075
1529,-0.175,-0.065
1530,-0.185,-0.085
1531,-0.205,-0.085
1532,-0.185,-0.085
1533,-0.185,-0.085
1534,-0.175,-0.085
1535,-0.175,-0.085
1536,-0.165,-0.105
1537,-0.185,-0.085
1538,-0.175,-0.095
1539,-0.215,-0.115
1540,-0.195,-0.105
1541,-0.185,-0.105
1542,-0.185,-0.105
1543,-0.175,-0.115
1544,-0.165,-0.125
1545,-0.175,-0.105
1546,-0.185,-0.135
1547,-0.185,-0.125
1548,-0.175,-0.105
1549,-0.145,-0.115
1550,-0.125,-0.085
1551,-0.075,-0.055
1552,-0.045,-0.045
1553,-0.075,-0.065
1554,-0.005,-0.085
1555,0.025,-0.125
1556,-0.025,-0.145
1557,-0.075,-0.125
1558,-0.045,-0.135
1559,-0.065,-0.145
1560,-0.115,-0.115
1561,-0.125,-0.115
1562,-0.145,-0.135
1563,-0.155,-0.145
1564,-0.135,-0.135
1565,-0.125,-0.125
1566,-0.115,-0.125
1567,-0.115,-0.145
1568,-0.105,-0.135
1569,-0.105,-0.105
1570,-0.115,0.095
1571,-0.425,0.185
1572,-0.595,0.065
1573,-0.055,-1.185
1574,1.405,-1.255
1575,2.265,-0.825
1576,2.525,-0.665
1577,1.305,-0.225
1578,0.125,-0.015
1579,-0.065,0.025
1580,-0.125,0.005
1581,-0.175,-0.015
1582,-0.195,0.005
1583,-0.205,-0.015
1584,-0.215,-0.005
1585,-0.215,0.015
1586,-0.245,-0.015
1587,-0.235,-0.025
1588,-0.235,-0.015
1589,-0.215,-0.005
1590,-0.185,0.015
1591,-0.185,0.005
1592,-0.185,0.005
1593,-0.165,0.035
1594,-0.165,0.015
1595,-0.135,0.035
1596,-0.115,0.055
1597,-0.085,0.075
1598,-0.025,0.085
1599,0.015,0.085
1600,0.055,0.075
1601,0.105,0.095
1602,0.165,0.085
1603,0.215,0.105
1604,0.275,0.105
1605,0.325,0.095
1606,0.375,0.105
1607,0.395,0.105
1608,0.395,0.095
1609,0.345,0.085
1610,0.255,0.065
1611,0.145,0.005
1612,0.055,-0.005
1613,-0.025,-0.025
1614,-0.065,-0.035
1615,-0.115,-0.065
1616,-0.125,-0.045
1617,-0.145,-0.055
1618,-0.175,-0.055
1619,-0.175,-0.085
1620,-0.165,-0.095
1621,-0.165,-0.065
1622,-0.135,-0.065
1623,-0.135,-0.065
1624,-0.145,-0.065
1625,-0.145,-0.055
1626,-0.155,-0.055
1627,-0.155,-0.065
1628,-0.155,-0.055
1629,-0.155,-0.045
1630,-0.115,-0.045
1631,-0.115,-0.055
1632,-0.125,-0.055
1633,-0.125,-0.065
1634,-0.165,-0.065
1635,-0.165,-0.075
1636,-0.165,-0.075
1637,-0.155,-0.085
1638,-0.135,-0.075
1639,-0.135,-0.095
1640,-0.165,-0.095
1641,-0.175,-0.085
1642,-0.195,-0.085
1643,-0.185,-0.105
1644,-0.165,-0.105
1645,-0.175,-0.105
1646,-0.155,-0.105
1647,-0.165,-0.105
1648,-0.165,-0.115
1649,-0.165,-0.105
1650,-0.185,-0.125
1651,-0.185,-0.135
1652,-0.175,-0.115
1653,-0.185,-0.115
1654,-0.145,-0.105
1655,-0.155,-0.115
1656,-0.165,-0.125
1657,-0.145,-0.085
1658,-0.145,-0.095
1659,-0.145,-0.105
1660,-0.075,-0.055
1661,-0.065,-0.055
1662,-0.035,-0.095
1663,0.035,-0.125
1664,0.045,-0.115
1665,-0.015,-0.135
1666,-0.115,-0.125
1667,-0.085,-0.155
1668,-0.105,-0.155
1669,-0.155,-0.125
1670,-0.135,-0.115
1671,-0.155,-0.135
1672,-0.165,-0.135
1673,-0.155,-0.125
1674,-0.175,-0.145
1675,-0.195,-0.155
1676,-0.175,-0.135
1677,-0.165,-0.135
1678,-0.135,-0.145
1679,-0.115,-0.005
1680,-0.355,0.175
1681,-0.685,0.175
1682,-0.395,-0.835
1683,1.215,-1.625
1684,2.395,-0.925
1685,2.865,-0.765
1686,1.945,-0.355
1687,0.325,-0.055
1688,-0.095,0.005
1689,-0.115,0.005
1690,-0.175,-0.015
1691,-0.255,-0.025
1692,-0.255,-0.035
1693,-0.255,-0.015
1694,-0.255,-0.015
1695,-0.255,-0.015
1696,-0.245,-0.005
1697,-0.245,-0.015
1698,-0.245,-0.015
1699,-0.255,-0.025
1700,-0.235,-0.005
1701,-0.215,0.005
1702,-0.175,0.025
1703,-0.175,0.015
1704,-0.165,0.035
1705,-0.125,0.055
1706,-0.125,0.045
1707,-0.105,0.055
1708,-0.055,0.065
1709,-0.005,0.085
1710,0.045,0.105
1711,0.115,0.105
1712,0.165,0.115
1713,0.225,0.135
1714,0.265,0.105
1715,0.285,0.105
1716,0.335,0.095
1717,0.365,0.095
1718,0.345,0.105
1719,0.295,0.075
1720,0.205,0.045
1721,0.095,0.035
1722,-0.005,-0.005
1723,-0.105,-0.045
1724,-0.135,-0.045
1725,-0.165,-0.055
1726,-0.195,-0.065
1727,-0.185,-0.065
1728,-0.205,-0.085
1729,-0.195,-0.075
1730,-0.205,-0.075
1731,-0.225,-0.095
1732,-0.215,-0.075
1733,-0.195,-0.085
1734,-0.185,-0.065
1735,-0.185,-0.065
1736,-0.185,-0.065
1737,-0.185,-0.075
1738,-0.195,-0.075
1739,-0.225,-0.065
1740,-0.225,-0.075
1741,-0.205,-0.065
1742,-0.195,-0.055
1743,-0.215,-0.085
1744,-0.215,-0.075
1745,-0.215,-0.065
1746,-0.245,-0.075
1747,-0.255,-0.115
1748,-0.245,-0.105
1749,-0.235,-0.095
1750,-0.215,-0.085
1751,-0.245,-0.105
1752,-0.255,-0.115
1753,-0.245,-0.115
1754,-0.275,-0.115
1755,-0.275,-0.135
1756,-0.265,-0.135
1757,-0.265,-0.125
1758,-0.235,-0.115
1759,-0.255,-0.135
1760,-0.255,-0.125
1761,-0.245,-0.115
1762,-0.285,-0.125
1763,-0.265,-0.115
1764,-0.255,-0.115
1765,-0.265,-0.125
1766,-0.245,-0.105
1767,-0.245,-0.125
1768,-0.245,-0.125
1769,-0.245,-0.125
1770,-0.275,-0.135
1771,-0.265,-0.135
1772,-0.235,-0.135
1773,-0.245,-0.145
1774,-0.185,-0.105
1775,-0.155,-0.085
1776,-0.165,-0.115
1777,-0.125,-0.105
1778,-0.065,-0.145
1779,-0.105,-0.185
1780,-0.215,-0.175
1781,-0.185,-0.165
1782,-0.175,-0.175
1783,-0.215,-0.165
1784,-0.255,-0.165
1785,-0.255,-0.175
1786,-0.295,-0.185
1787,-0.265,-0.155
1788,-0.265,-0.165
1789,-0.265,-0.165
1790,-0.245,-0.155
1791,-0.235,-0.165
1792,-0.225,-0.155
1793,-0.205,-0.055
1794,-0.455,0.125
1795,-0.805,0.145
1796,-0.535,-0.535
1797,1.135,-1.385
1798,2.365,-0.805
1799,2.805,-0.725
1800,1.845,-0.455
1801,0.165,-0.115
1802,-0.215,-0.015
1803,-0.235,-0.035
1804,-0.285,-0.025
1805,-0.305,-0.025
1806,-0.305,-0.015
1807,-0.325,-0.025
1808,-0.335,-0.025
1809,-0.335,-0.015
1810,-0.365,-0.015
1811,-0.345,-0.035
1812,-0.325,-0.025
1813,-0.325,-0.015
1814,-0.305,-0.005
1815,-0.295,-0.005
1816,-0.275,-0.005
1817,-0.285,0.015
1818,-0.275,0.015
1819,-0.265,-0.015
1820,-0.225,-0.005
1821,-0.195,0.015
1822,-0.145,0.025
1823,-0.075,0.025
1824,-0.025,0.025
1825,0.025,0.035
1826,0.075,0.045
1827,0.125,0.035
1828,0.195,0.035
1829,0.235,0.035
1830,0.285,0.045
1831,0.295,0.055
1832,0.255,0.045
1833,0.185,0.035
1834,0.065,0.025
1835,-0.025,-0.005
1836,-0.105,-0.025
1837,-0.165,-0.055
1838,-0.195,-0.055
1839,-0.235,-0.075
1840,-0.265,-0.105
1841,-0.275,-0.065
1842,-0.285,-0.085
1843,-0.295,-0.085
1844,-0.275,-0.085
1845,-0.265,-0.095
1846,-0.255,-0.085
1847,-0.275,-0.065
1848,-0.255,-0.075
1849,-0.255,-0.065
1850,-0.275,-0.075
1851,-0.275,-0.085
1852,-0.265,-0.085
1853,-0.275,-0.085
1854,-0.245,-0.085
1855,-0.245,-0.105
1856,-0.255,-0.105
1857,-0.255,-0.095
1858,-0.285,-0.095
1859,-0.305,-0.115
1860,-0.295,-0.125
1861,-0.285,-0.125
1862,-0.255,-0.125
1863,-0.275,-0.155
1864,-0.285,-0.125
1865,-0.295,-0.115
1866,-0.315,-0.135
1867,-0.305,-0.145
1868,-0.295,-0.165
1869,-0.305,-0.155
1870,-0.285,-0.135
1871,-0.285,-0.135
1872,-0.285,-0.145
1873,-0.265,-0.135
1874,-0.295,-0.155
1875,-0.305,-0.165
1876,-0.275,-0.135
1877,-0.285,-0.145
1878,-0.255,-0.125
1879,-0.265,-0.135
1880,-0.255,-0.145
1881,-0.255,-0.115
1882,-0.235,-0.085
1883,-0.195,-0.075
1884,-0.195,-0.115
1885,-0.105,-0.115
1886,-0.045,-0.125
1887,-0.135,-0.165
1888,-0.185,-0.135
1889,-0.175,-0.155
1890,-0.255,-0.185
1891,-0.285,-0.155
1892,-0.275,-0.165
1893,-0.295,-0.165
1894,-0.245,-0.155
1895,-0.255,-0.165
1896,-0.255,-0.145
1897,-0.235,-0.145
1898,-0.275,-0.165
1899,-0.265,-0.165
1900,-0.225,-0.105
1901,-0.325,0.085
1902,-0.735,0.175
1903,-0.725,-0.155
1904,0.715,-1.335
1905,2.145,-0.895
1906,2.755,-0.745
1907,2.465,-0.595
1908,0.585,-0.185
1909,-0.195,-0.025
1910,-0.185,0.015
1911,-0.225,-0.005
1912,-0.285,-0.005
1913,-0.305,-0.005
1914,-0.335,0.015
1915,-0.325,-0.015
1916,-0.325,-0.015
1917,-0.315,0.005
1918,-0.275,0.005
1919,-0.285,-0.005
1920,-0.295,-0.005
1921,-0.265,-0.005
1922,-0.285,-0.005
1923,-0.255,-0.015
1924,-0.235,-0.005
1925,-0.205,0.005
1926,-0.165,0.015
1927,-0.155,0.005
1928,-0.125,0.025
1929,-0.085,0.025
1930,-0.065,0.025
1931,-0.025,0.035
1932,0.045,0.035
1933,0.115,0.065
1934,0.195,0.065
1935,0.255,0.045
1936,0.295,0.045
1937,0.335,0.075
1938,0.325,0.075
1939,0.315,0.065
1940,0.275,0.065
1941,0.195,0.045
1942,0.125,0.045
1943,0.035,0.005
1944,-0.055,-0.015
1945,-0.105,-0.025
1946,-0.165,-0.055
1947,-0.215,-0.065
1948,-0.205,-0.075
1949,-0.205,-0.075
1950,-0.185,-0.045
1951,-0.175,-0.065
1952,-0.185,-0.075
1953,-0.185,-0.045
1954,-0.205,-0.065
1955,-0.205,-0.075
1956,-0.185,-0.055
1957,-0.165,-0.055
1958,-0.135,-0.015
1959,-0.145,-0.055
1960,-0.155,-0.065
1961,-0.175,-0.045
1962,-0.185,-0.045
1963,-0.195,-0.075
1964,-0.195,-0.085
1965,-0.185,-0.045
1966,-0.155,-0.045
1967,-0.165,-0.095
1968,-0.185,-0.085
1969,-0.195,-0.085
1970,-0.215,-0.105
1971,-0.215,-0.115
1972,-0.205,-0.095
1973,-0.195,-0.085
1974,-0.175,-0.065
1975,-0.185,-0.085
1976,-0.215,-0.065
1977,-0.195,-0.075
1978,-0.215,-0.085
1979,-0.215,-0.115
1980,-0.215,-0.095
1981,-0.195,-0.095
1982,-0.175,-0.085
1983,-0.175,-0.095
1984,-0.185,-0.095
1985,-0.165,-0.085
1986,-0.195,-0.075
1987,-0.175,-0.095
1988,-0.155,-0.055
1989,-0.085,-0.035
1990,-0.065,-0.015
1991,-0.085,-0.055
1992,0.025,-0.075
1993,0.015,-0.085
1994,-0.105,-0.105
1995,-0.125,-0.095
1996,-0.115,-0.115
1997,-0.155,-0.105
1998,-0.145,-0.075
1999,-0.175,-0.125
2000,-0.195,-0.115
2001,-0.175,-0.105
2002,-0.195,-0.115
2003,-0.195,-0.115
2004,-0.175,-0.105
2005,-0.185,-0.115
2006,-0.145,-0.095
2007,-0.135,-0.055
2008,-0.275,0.175
2009,-0.645,0.275
2010,-0.545,-0.305
2011,0.865,-1.435
2012,2.155,-1.065
2013,2.765,-0.745
2014,2.525,-0.545
2015,0.745,-0.105
2016,-0.085,0.045
2017,-0.115,0.065
2018,-0.195,0.025
2019,-0.245,0.025
2020,-0.255,0.025
2021,-0.255,0.035
2022,-0.225,0.025
2023,-0.235,0.025
2024,-0.245,0.025
2025,-0.245,0.025
2026,-0.265,0.005
2027,-0.265,0.015
2028,-0.235,0.025
2029,-0.215,0.035
2030,-0.185,0.035
2031,-0.175,0.055
2032,-0.155,0.045
2033,-0.125,0.085
2034,-0.125,0.065
2035,-0.095,0.095
2036,-0.045,0.105
2037,-0.005,0.125
2038,0.075,0.135
2039,0.125,0.135
2040,0.185,0.135
2041,0.245,0.145
2042,0.275,0.155
2043,0.305,0.155
2044,0.375,0.145
2045,0.395,0.145
2046,0.385,0.135
2047,0.325,0.115
2048,0.245,0.085
2049,0.145,0.055
2050,0.025,0.005
2051,-0.055,-0.025
2052,-0.095,-0.045
2053,-0.145,-0.045
2054,-0.115,-0.035
2055,-0.135,-0.055
2056,-0.155,-0.045
2057,-0.145,-0.035
2058,-0.175,-0.055
2059,-0.165,-0.055
2060,-0.145,-0.045
2061,-0.155,-0.065
2062,-0.125,-0.045
2063,-0.125,-0.035
2064,-0.125,-0.035
2065,-0.125,-0.025
2066,-0.155,-0.035
2067,-0.155,-0.045
2068,-0.135,-0.035
2069,-0.155,-0.035
2070,-0.125,-0.035
2071,-0.135,-0.055
2072,-0.135,-0.055
2073,-0.125,-0.045
2074,-0.165,-0.055
2075,-0.175,-0.065
2076,-0.165,-0.075
2077,-0.175,-0.075
2078,-0.145,-0.055
2079,-0.155,-0.065
2080,-0.165,-0.085
2081,-0.165,-0.065
2082,-0.185,-0.095
2083,-0.195,-0.095
2084,-0.185,-0.085
2085,-0.175,-0.095
2086,-0.145,-0.075
2087,-0.165,-0.095
2088,-0.165,-0.105
2089,-0.165,-0.085
2090,-0.185,-0.095
2091,-0.185,-0.105
2092,-0.175,-0.105
2093,-0.165,-0.115
2094,-0.145,-0.115
2095,-0.165,-0.125
2096,-0.145,-0.095
2097,-0.135,-0.065
2098,-0.105,-0.035
2099,-0.085,-0.065
2100,-0.095,-0.085
2101,-0.015,-0.065
2102,0.065,-0.085
2103,-0.025,-0.115
2104,-0.095,-0.115
2105,-0.075,-0.125
2106,-0.125,-0.155
2107,-0.165,-0.125
2108,-0.155,-0.135
2109,-0.185,-0.125
2110,-0.155,-0.125
2111,-0.165,-0.125
2112,-0.165,-0.125
2113,-0.155,-0.125
2114,-0.195,-0.135
2115,-0.195,-0.135
2116,-0.175,-0.125
2117,-0.185,0.055
2118,-0.435,0.185
2119,-0.705,0.125
2120,-0.175,-0.835
2121,1.405,-1.495
2122,2.445,-0.845
2123,2.805,-0.735
2124,1.805,-0.425
2125,0.235,-0.065
2126,-0.105,0.025
2127,-0.135,0.015
2128,-0.215,-0.005
2129,-0.265,0.015
2130,-0.285,-0.005
2131,-0.315,-0.015
2132,-0.295,-0.015
2133,-0.295,-0.005
2134,-0.255,0.005
2135,-0.255,-0.015
2136,-0.245,-0.005
2137,-0.225,0.005
2138,-0.245,-0.005
2139,-0.225,-0.005
2140,-0.215,0.015
2141,-0.195,0.025
2142,-0.155,0.025
2143,-0.145,0.035
2144,-0.105,0.045
2145,-0.045,0.035
2146,-0.055,0.065
2147,0.005,0.065
2148,0.055,0.065
2149,0.115,0.085
2150,0.205,0.095
2151,0.245,0.075
2152,0.285,0.075
2153,0.325,0.105
2154,0.325,0.105
2155,0.315,0.085
2156,0.285,0.055
2157,0.205,0.035
2158,0.155,0.025
2159,0.045,-0.015
2160,-0.055,-0.035
2161,-0.095,-0.045
2162,-0.175,-0.075
2163,-0.205,-0.095
2164,-0.215,-0.085
2165,-0.235,-0.075
2166,-0.195,-0.085
2167,-0.205,-0.095
2168,-0.205,-0.095
2169,-0.195,-0.065
2170,-0.235,-0.095
2171,-0.225,-0.105
2172,-0.225,-0.085
2173,-0.215,-0.065
2174,-0.195,-0.055
2175,-0.195,-0.085
2176,-0.195,-0.075
2177,-0.185,-0.075
2178,-0.225,-0.075
2179,-0.225,-0.085
2180,-0.215,-0.085
2181,-0.195,-0.095
2182,-0.185,-0.085
2183,-0.185,-0.105
2184,-0.215,-0.095
2185,-0.225,-0.085
2186,-0.235,-0.085
2187,-0.245,-0.105
2188,-0.245,-0.125
2189,-0.235,-0.125
2190,-0.215,-0.105
2191,-0.235,-0.135
2192,-0.235,-0.135
2193,-0.225,-0.135
2194,-0.265,-0.145
2195,-0.245,-0.155
2196,-0.235,-0.145
2197,-0.235,-0.125
2198,-0.205,-0.115
2199,-0.215,-0.115
2200,-0.215,-0.125
2201,-0.195,-0.115
2202,-0.175,-0.065
2203,-0.145,-0.085
2204,-0.165,-0.125
2205,-0.085,-0.105
2206,0.015,-0.135
2207,-0.085,-0.145
2208,-0.135,-0.125
2209,-0.135,-0.135
2210,-0.205,-0.155
2211,-0.235,-0.155
2212,-0.225,-0.165
2213,-0.255,-0.165
2214,-0.225,-0.155
2215,-0.235,-0.165
2216,-0.215,-0.145
2217,-0.215,-0.145
2218,-0.245,-0.155
2219,-0.255,-0.165
2220,-0.225,-0.175
2221,-0.205,-0.005
2222,-0.505,0.125
2223,-0.785,0.115
2224,-0.245,-0.785
2225,1.415,-1.225
2226,2.465,-0.785
2227,2.825,-0.705
2228,1.625,-0.445
2229,0.095,-0.115
2230,-0.155,0.015
2231,-0.185,-0.005
2232,-0.225,-0.025
2233,-0.255,-0.015
2234,-0.295,-0.035
2235,-0.305,-0.035
2236,-0.285,-0.015
2237,-0.275,-0.025
2238,-0.245,-0.015
2239,-0.255,-0.025
2240,-0.265,-0.035
2241,-0.255,-0.015
2242,-0.265,-0.015
2243,-0.255,-0.025
2244,-0.235,-0.025
2245,-0.225,-0.025
2246,-0.175,0.005
2247,-0.165,-0.015
2248,-0.145,-0.005
2249,-0.115,0.015
2250,-0.095,0.015
2251,-0.055,-0.005
2252,0.015,0.015
2253,0.085,0.005
2254,0.165,0.015
2255,0.215,0.005
2256,0.265,0.025
2257,0.305,0.025
2258,0.325,0.025
2259,0.305,0.025
2260,0.275,0.025
2261,0.215,0.035
2262,0.145,0.015
2263,0.025,-0.025
2264,-0.065,-0.055
2265,-0.125,-0.055
2266,-0.185,-0.085
2267,-0.215,-0.095
2268,-0.205,-0.085
2269,-0.205,-0.095
2270,-0.195,-0.065
2271,-0.205,-0.075
2272,-0.205,-0.075
2273,-0.205,-0.075
2274,-0.195,-0.065
2275,-0.225,-0.075
2276,-0.215,-0.075
2277,-0.205,-0.055
2278,-0.195,-0.055
2279,-0.165,-0.055
2280,-0.175,-0.065
2281,-0.175,-0.065
2282,-0.155,-0.065
2283,-0.195,-0.065
2284,-0.195,-0.085
2285,-0.175,-0.085
2286,-0.185,-0.095
2287,-0.185,-0.095
2288,-0.185,-0.115
2289,-0.185,-0.115
2290,-0.185,-0.105
2291,-0.215,-0.125
2292,-0.205,-0.115
2293,-0.195,-0.115
2294,-0.185,-0.125
2295,-0.175,-0.125
2296,-0.185,-0.135
2297,-0.185,-0.125
2298,-0.185,-0.145
2299,-0.205,-0.135
2300,-0.185,-0.125
2301,-0.135,-0.095
2302,-0.055,-0.045
2303,-0.035,-0.045
2304,-0.095,-0.085
2305,-0.025,-0.025
2306,0.045,-0.085
2307,-0.045,-0.125
2308,-0.045,-0.095
2309,-0.105,-0.155
2310,-0.125,-0.135
2311,-0.155,-0.155
2312,-0.185,-0.155
2313,-0.185,-0.145
2314,-0.205,-0.165
2315,-0.195,-0.165
2316,-0.195,-0.175
2317,-0.195,-0.155
2318,-0.155,-0.135
2319,-0.165,-0.155
2320,-0.155,-0.145
2321,-0.175,0.095
2322,-0.605,0.175
2323,-0.705,-0.035
2324,0.385,-1.335
2325,1.945,-1.185
2326,2.805,-0.805
2327,2.685,-0.615
2328,0.725,-0.155
2329,-0.115,0.005
2330,-0.165,0.005
2331,-0.195,0.005
2332,-0.235,0.005
2333,-0.265,0.005
2334,-0.225,-0.005
2335,-0.235,0.005
2336,-0.255,0.005
2337,-0.235,0.025
2338,-0.265,0.015
2339,-0.235,-0.005
2340,-0.235,-0.005
2341,-0.235,0.025
2342,-0.185,0.025
2343,-0.185,0.015
2344,-0.165,0.025
2345,-0.145,0.055
2346,-0.145,0.035
2347,-0.125,0.045
2348,-0.085,0.065
2349,-0.055,0.085
2350,0.035,0.105
2351,0.085,0.085
2352,0.115,0.105
2353,0.195,0.125
2354,0.225,0.105
2355,0.275,0.095
2356,0.345,0.095
2357,0.375,0.105
2358,0.425,0.105
2359,0.385,0.085
2360,0.315,0.075
2361,0.235,0.085
2362,0.105,0.035
2363,0.025,-0.005
2364,-0.035,-0.025
2365,-0.095,-0.045
2366,-0.095,-0.045
2367,-0.125,-0.065
2368,-0.145,-0.065
2369,-0.145,-0.055
2370,-0.165,-0.065
2371,-0.175,-0.075
2372,-0.155,-0.065
2373,-0.145,-0.065
2374,-0.115,-0.065
2375,-0.125,-0.065
2376,-0.145,-0.075
2377,-0.125,-0.035
2378,-0.145,-0.045
2379,-0.145,-0.055
2380,-0.125,-0.055
2381,-0.135,-0.055
2382,-0.095,-0.045
2383,-0.105,-0.055
2384,-0.125,-0.075
2385,-0.115,-0.055
2386,-0.145,-0.075
2387,-0.165,-0.095
2388,-0.155,-0.085
2389,-0.145,-0.075
2390,-0.125,-0.075
2391,-0.135,-0.085
2392,-0.165,-0.115
2393,-0.155,-0.085
2394,-0.185,-0.085
2395,-0.175,-0.105
2396,-0.175,-0.115
2397,-0.165,-0.115
2398,-0.145,-0.105
2399,-0.145,-0.115
2400,-0.155,-0.125
2401,-0.145,-0.095
2402,-0.165,-0.105
2403,-0.165,-0.125
2404,-0.155,-0.105
2405,-0.125,-0.065
2406,-0.035,-0.035
2407,-0.015,-0.025
2408,-0.065,-0.055
2409,0.015,-0.015
2410,0.045,-0.095
2411,-0.025,-0.125
2412,-0.035,-0.095
2413,-0.085,-0.125
2414,-0.075,-0.135
2415,-0.125,-0.125
2416,-0.155,-0.145
2417,-0.165,-0.115
2418,-0.195,-0.135
2419,-0.185,-0.135
2420,-0.185,-0.125
2421,-0.195,-0.125
2422,-0.145,-0.115
2423,-0.165,-0.145
2424,-0.165,-0.135
2425,-0.125,-0.055
2426,-0.265,0.175
2427,-0.655,0.235
2428,-0.505,-0.355
2429,0.895,-1.475
2430,2.245,-1.005
2431,2.835,-0.735
2432,2.335,-0.485
2433,0.535,-0.045
2434,-0.125,0.055
2435,-0.155,0.035
2436,-0.185,0.025
2437,-0.245,0.025
2438,-0.235,0.045
2439,-0.255,0.035
2440,-0.255,0.025
2441,-0.255,0.035
2442,-0.265,0.045
2443,-0.275,0.025
2444,-0.265,0.025
2445,-0.245,0.045
2446,-0.215,0.065
2447,-0.205,0.045
2448,-0.195,0.055
2449,-0.185,0.065
2450,-0.165,0.085
2451,-0.155,0.085
2452,-0.135,0.085
2453,-0.085,0.105
2454,-0.035,0.115
2455,0.015,0.125
2456,0.055,0.125
2457,0.115,0.145
2458,0.175,0.145
2459,0.225,0.145
2460,0.275,0.155
2461,0.335,0.145
2462,0.385,0.155
2463,0.395,0.135
2464,0.385,0.135
2465,0.305,0.105
2466,0.205,0.095
2467,0.095,0.065
2468,0.005,0.025
2469,-0.085,-0.005
2470,-0.095,-0.015
2471,-0.145,-0.035
2472,-0.165,-0.045
2473,-0.155,-0.035
2474,-0.195,-0.055
2475,-0.195,-0.075
2476,-0.185,-0.055
2477,-0.175,-0.045
2478,-0.135,-0.045
2479,-0.165,-0.055
2480,-0.155,-0.055
2481,-0.145,-0.025
2482,-0.175,-0.035
2483,-0.175,-0.035
2484,-0.165,-0.045
2485,-0.175,-0.045
2486,-0.135,-0.035
2487,-0.165,-0.055
2488,-0.165,-0.045
2489,-0.165,-0.045
2490,-0.205,-0.065
2491,-0.205,-0.075
2492,-0.205,-0.075
2493,-0.215,-0.065
2494,-0.185,-0.055
2495,-0.185,-0.085
2496,-0.205,-0.085
2497,-0.195,-0.085
2498,-0.225,-0.085
2499,-0.225,-0.105
2500,-0.225,-0.105
2501,-0.235,-0.095
2502,-0.195,-0.085
2503,-0.205,-0.115
2504,-0.215,-0.105
2505,-0.195,-0.105
2506,-0.225,-0.115
2507,-0.225,-0.125
2508,-0.225,-0.105
2509,-0.225,-0.105
2510,-0.185,-0.095
2511,-0.195,-0.125
2512,-0.185,-0.105
2513,-0.145,-0.075
2514,-0.175,-0.095
2515,-0.135,-0.065
2516,-0.105,-0.075
2517,-0.145,-0.105
2518,0.005,-0.085
2519,0.005,-0.145
2520,-0.085,-0.155
2521,-0.115,-0.115
2522,-0.165,-0.155
2523,-0.165,-0.175
2524,-0.215,-0.145
2525,-0.225,-0.155
2526,-0.205,-0.155
2527,-0.205,-0.155
2528,-0.205,-0.145
2529,-0.205,-0.145
2530,-0.225,-0.165
2531,-0.225,-0.165
2532,-0.215,-0.165
2533,-0.205,-0.145
2534,-0.155,-0.075
2535,-0.355,0.115
2536,-0.745,0.185
2537,-0.405,-0.615
2538,1.295,-1.465
2539,2.515,-0.845
2540,2.895,-0.745
2541,1.465,-0.385
2542,0.025,-0.075
2543,-0.165,-0.015
2544,-0.195,-0.015
2545,-0.235,-0.005
2546,-0.305,-0.035
2547,-0.315,-0.045
2548,-0.305,-0.045
2549,-0.325,-0.035
2550,-0.265,-0.015
2551,-0.285,-0.045
2552,-0.285,-0.035
2553,-0.255,-0.015
2554,-0.295,-0.045
2555,-0.295,-0.035
2556,-0.265,-0.025
2557,-0.245,-0.015
2558,-0.205,0.005
2559,-0.185,-0.015
2560,-0.155,-0.005
2561,-0.115,0.015
2562,-0.135,0.015
2563,-0.075,0.005
2564,-0.025,0.025
2565,0.015,0.025
2566,0.115,0.045
2567,0.165,0.025
2568,0.205,0.055
2569,0.305,0.055
2570,0.315,0.045
2571,0.335,0.045
2572,0.345,0.065
2573,0.285,0.045
2574,0.245,0.025
2575,0.115,-0.025
2576,0.005,-0.035
2577,-0.055,-0.055
2578,-0.145,-0.085
2579,-0.185,-0.085
2580,-0.195,-0.095
2581,-0.215,-0.105
2582,-0.205,-0.095
2583,-0.205,-0.105
2584,-0.215,-0.115
2585,-0.195,-0.095
2586,-0.235,-0.115
2587,-0.245,-0.115
2588,-0.235,-0.105
2589,-0.235,-0.095
2590,-0.195,-0.085
2591,-0.205,-0.105
2592,-0.215,-0.065
2593,-0.225,-0.065
2594,-0.235,-0.085
2595,-0.245,-0.095
2596,-0.215,-0.095
2597,-0.235,-0.085
2598,-0.225,-0.085
2599,-0.225,-0.105
2600,-0.245,-0.115
2601,-0.225,-0.115
2602,-0.255,-0.125
2603,-0.265,-0.145
2604,-0.255,-0.135
2605,-0.255,-0.135
2606,-0.245,-0.135
2607,-0.245,-0.165
2608,-0.255,-0.155
2609,-0.255,-0.135
2610,-0.275,-0.145
2611,-0.285,-0.145
2612,-0.265,-0.145
2613,-0.255,-0.145
2614,-0.235,-0.125
2615,-0.235,-0.135
2616,-0.245,-0.135
2617,-0.215,-0.125
2618,-0.225,-0.125
2619,-0.195,-0.085
2620,-0.155,-0.095
2621,-0.185,-0.115
2622,-0.045,-0.095
2623,-0.035,-0.125
2624,-0.105,-0.145
2625,-0.145,-0.135
2626,-0.155,-0.165
2627,-0.215,-0.195
2628,-0.245,-0.165
2629,-0.225,-0.165
2630,-0.215,-0.155
2631,-0.235,-0.185
2632,-0.235,-0.175
2633,-0.225,-0.155
2634,-0.245,-0.165
2635,-0.255,-0.175
2636,-0.225,-0.175
2637,-0.205,-0.175
2638,-0.175,-0.075
2639,-0.365,0.095
2640,-0.695,0.135
2641,-0.375,-0.585
2642,1.105,-1.275
2643,2.135,-0.845
2644,2.525,-0.725
2645,1.685,-0.445
2646,0.245,-0.125
2647,-0.105,-0.025
2648,-0.155,-0.045
2649,-0.225,-0.035
2650,-0.285,-0.045
2651,-0.305,-0.045
2652,-0.315,-0.045
2653,-0.305,-0.035
2654,-0.275,-0.035
2655,-0.275,-0.045
2656,-0.275,-0.055
2657,-0.265,-0.035
2658,-0.275,-0.065
2659,-0.275,-0.055
2660,-0.255,-0.055
2661,-0.225,-0.055
2662,-0.195,-0.045
2663,-0.185,-0.045
2664,-0.165,-0.045
2665,-0.135,-0.025
2666,-0.125,-0.025
2667,-0.075,-0.035
2668,-0.015,-0.015
2669,0.055,-0.005
2670,0.155,-0.005
2671,0.195,-0.025
2672,0.245,-0.005
2673,0.295,0.005
2674,0.315,-0.005
2675,0.335,-0.015
2676,0.325,0.005
2677,0.265,0.005
2678,0.205,-0.005
2679,0.095,-0.035
2680,-0.005,-0.045
2681,-0.065,-0.055
2682,-0.155,-0.085
2683,-0.185,-0.115
2684,-0.195,-0.115
2685,-0.215,-0.125
2686,-0.185,-0.115
2687,-0.205,-0.115
2688,-0.215,-0.105
2689,-0.195,-0.095
2690,-0.225,-0.105
2691,-0.225,-0.115
2692,-0.215,-0.095
2693,-0.205,-0.105
2694,-0.165,-0.095
2695,-0.175,-0.085
2696,-0.175,-0.095
2697,-0.165,-0.085
2698,-0.205,-0.095
2699,-0.195,-0.105
2700,-0.185,-0.115
2701,-0.185,-0.115
2702,-0.165,-0.105
2703,-0.185,-0.125
2704,-0.185,-0.135
2705,-0.175,-0.125
2706,-0.215,-0.135
2707,-0.225,-0.155
2708,-0.225,-0.145
2709,-0.235,-0.135
2710,-0.195,-0.125
2711,-0.205,-0.145
2712,-0.215,-0.145
2713,-0.215,-0.135
2714,-0.235,-0.145
2715,-0.215,-0.155
2716,-0.215,-0.155
2717,-0.225,-0.155
2718,-0.195,-0.155
2719,-0.195,-0.145
2720,-0.205,-0.145
2721,-0.175,-0.125
2722,-0.205,-0.135
2723,-0.145,-0.085
2724,-0.105,-0.085
2725,-0.125,-0.115
2726,-0.075,-0.115
2727,0.015,-0.125
2728,-0.035,-0.155
2729,-0.115,-0.155
2730,-0.155,-0.165
2731,-0.155,-0.195
2732,-0.195,-0.175
2733,-0.205,-0.155
2734,-0.205,-0.185
2735,-0.215,-0.175
2736,-0.205,-0.175
2737,-0.215,-0.145
2738,-0.235,-0.165
2739,-0.245,-0.175
2740,-0.215,-0.155
2741,-0.215,-0.145
2742,-0.135,-0.085
2743,-0.275,0.165
2744,-0.695,0.215
2745,-0.545,-0.315
2746,0.865,-1.525
2747,2.255,-1.065
2748,2.835,-0.775
2749,2.115,-0.445
2750,0.305,-0.035
2751,-0.145,0.025
2752,-0.185,-0.005
2753,-0.205,0.035
2754,-0.295,-0.005
2755,-0.295,-0.025
2756,-0.285,0.005
2757,-0.285,0.005
2758,-0.265,0.025
2759,-0.265,-0.005
2760,-0.275,-0.005
2761,-0.245,0.015
2762,-0.285,0.005
2763,-0.275,-0.005
2764,-0.245,0.015
2765,-0.235,0.015
2766,-0.175,0.035
2767,-0.165,0.015
2768,-0.145,0.025
2769,-0.105,0.065
2770,-0.105,0.055
2771,-0.065,0.035
2772,-0.015,0.085
2773,0.045,0.085
2774,0.125,0.105
2775,0.185,0.095
2776,0.215,0.085
2777,0.275,0.105
2778,0.285,0.095
2779,0.315,0.065
2780,0.325,0.075
2781,0.295,0.065
2782,0.265,0.055
2783,0.175,0.005
2784,0.085,-0.025
2785,0.025,-0.045
2786,-0.065,-0.075
2787,-0.095,-0.095
2788,-0.105,-0.105
2789,-0.125,-0.105
2790,-0.105,-0.095
2791,-0.115,-0.115
2792,-0.125,-0.105
2793,-0.115,-0.095
2794,-0.145,-0.115
2795,-0.145,-0.125
2796,-0.125,-0.105
2797,-0.135,-0.105
2798,-0.115,-0.085
2799,-0.115,-0.105
2800,-0.115,-0.105
2801,-0.125,-0.095
2802,-0.145,-0.105
2803,-0.155,-0.105
2804,-0.155,-0.095
2805,-0.155,-0.095
2806,-0.145,-0.095
2807,-0.145,-0.105
2808,-0.155,-0.115
2809,-0.165,-0.105
2810,-0.195,-0.135
2811,-0.185,-0.135
2812,-0.185,-0.145
2813,-0.185,-0.145
2814,-0.165,-0.125
2815,-0.175,-0.145
2816,-0.175,-0.145
2817,-0.195,-0.135
2818,-0.215,-0.135
2819,-0.215,-0.165
2820,-0.215,-0.145
2821,-0.215,-0.145
2822,-0.175,-0.145
2823,-0.185,-0.165
2824,-0.195,-0.135
2825,-0.175,-0.125
2826,-0.205,-0.145
2827,-0.205,-0.155
2828,-0.195,-0.145
2829,-0.175,-0.135
2830,-0.175,-0.125
2831,-0.155,-0.115
2832,-0.155,-0.135
2833,-0.115,-0.075
2834,-0.115,-0.065
2835,-0.115,-0.095
2836,-0.065,-0.115
2837,0.025,-0.115
2838,-0.005,-0.145
2839,-0.085,-0.155
2840,-0.105,-0.155
2841,-0.115,-0.165
2842,-0.205,-0.155
2843,-0.195,-0.165
2844,-0.215,-0.175
2845,-0.205,-0.155
2846,-0.175,-0.155
2847,-0.185,-0.155
2848,-0.195,-0.175
2849,-0.195,-0.155
2850,-0.215,-0.165
2851,-0.205,-0.185
2852,-0.165,-0.085
2853,-0.345,0.135
2854,-0.685,0.185
2855,-0.515,-0.495
2856,0.985,-1.495
2857,2.265,-1.025
2858,2.795,-0.765
2859,2.425,-0.555
2860,0.475,-0.115
2861,-0.155,0.025
2862,-0.165,-0.005
2863,-0.215,-0.045
2864,-0.265,-0.035
2865,-0.285,-0.005
2866,-0.305,-0.035
2867,-0.305,-0.035
2868,-0.305,-0.015
2869,-0.285,-0.015
2870,-0.255,-0.005
2871,-0.265,-0.035
2872,-0.265,-0.005
2873,-0.255,-0.005
2874,-0.255,-0.005
2875,-0.235,-0.015
2876,-0.225,-0.015
2877,-0.205,0.025
2878,-0.135,0.025
2879,-0.125,0.025
2880,-0.095,0.055
2881,-0.045,0.065
2882,-0.035,0.045
2883,0.015,0.065
2884,0.095,0.075
2885,0.155,0.065
2886,0.225,0.095
2887,0.265,0.085
2888,0.295,0.085
2889,0.355,0.085
2890,0.335,0.085
2891,0.305,0.065
2892,0.245,0.025
2893,0.165,0.015
2894,0.085,-0.015
2895,-0.015,-0.045
2896,-0.105,-0.085
2897,-0.155,-0.065
2898,-0.185,-0.095
2899,-0.215,-0.125
2900,-0.225,-0.125
2901,-0.215,-0.115
2902,-0.195,-0.105
2903,-0.205,-0.115
2904,-0.215,-0.105
2905,-0.205,-0.095
2906,-0.215,-0.115
2907,-0.235,-0.115
2908,-0.215,-0.135
2909,-0.215,-0.085
2910,-0.195,-0.085
2911,-0.195,-0.095
2912,-0.195,-0.085
2913,-0.185,-0.095
2914,-0.205,-0.085
2915,-0.225,-0.095
2916,-0.215,-0.115
2917,-0.205,-0.105
2918,-0.195,-0.095
2919,-0.195,-0.125
2920,-0.205,-0.135
2921,-0.215,-0.135
2922,-0.235,-0.135
2923,-0.245,-0.135
2924,-0.235,-0.145
2925,-0.225,-0.145
2926,-0.225,-0.135
2927,-0.225,-0.155
2928,-0.235,-0.155
2929,-0.225,-0.155
2930,-0.245,-0.135
2931,-0.255,-0.165
2932,-0.255,-0.165
2933,-0.235,-0.165
2934,-0.215,-0.165
2935,-0.215,-0.155
2936,-0.225,-0.165
2937,-0.205,-0.165
2938,-0.225,-0.185
2939,-0.245,-0.195
2940,-0.225,-0.145
2941,-0.205,-0.165
2942,-0.165,-0.135
2943,-0.125,-0.115
2944,-0.125,-0.145
2945,-0.135,-0.125
2946,-0.025,-0.165
2947,-0.065,-0.195
2948,-0.145,-0.185
2949,-0.155,-0.185
2950,-0.135,-0.185
2951,-0.185,-0.175
2952,-0.195,-0.185
2953,-0.225,-0.185
2954,-0.255,-0.195
2955,-0.255,-0.195
2956,-0.235,-0.195
2957,-0.235,-0.185
2958,-0.215,-0.165
2959,-0.225,-0.185
2960,-0.225,-0.185
2961,-0.205,-0.105
2962,-0.365,0.095
2963,-0.765,0.135
2964,-0.705,-0.265
2965,0.635,-1.405
2966,2.095,-0.895
2967,2.775,-0.765
2968,2.085,-0.515
2969,0.375,-0.145
2970,-0.205,-0.015
2971,-0.235,-0.025
2972,-0.275,-0.025
2973,-0.325,-0.035
2974,-0.315,-0.035
2975,-0.325,-0.045
2976,-0.315,-0.035
2977,-0.325,-0.025
2978,-0.335,-0.045
2979,-0.335,-0.045
2980,-0.325,-0.045
2981,-0.315,-0.025
2982,-0.275,-0.005
2983,-0.255,-0.025
2984,-0.265,-0.015
2985,-0.245,0.015
2986,-0.245,0.005
2987,-0.215,0.005
2988,-0.195,0.005
2989,-0.165,0.005
2990,-0.085,0.025
2991,-0.055,0.025
2992,-0.005,0.035
2993,0.065,0.045
2994,0.105,0.025
2995,0.145,0.015
2996,0.205,0.035
2997,0.245,0.045
2998,0.325,0.075
2999,0.335,0.065
3000,0.285,0.045
3001,0.235,0.065
3002,0.135,0.045
3003,0.055,-0.005
3004,-0.045,-0.025
3005,-0.135,-0.035
3006,-0.165,-0.045
3007,-0.205,-0.055
3008,-0.215,-0.065
3009,-0.235,-0.065
3010,-0.265,-0.085
3011,-0.265,-0.095
3012,-0.265,-0.075
3013,-0.255,-0.055
3014,-0.215,-0.055
3015,-0.235,-0.065
3016,-0.235,-0.055
3017,-0.245,-0.055
3018,-0.265,-0.055
3019,-0.265,-0.055
3020,-0.255,-0.055
3021,-0.235,-0.045
3022,-0.225,-0.055
3023,-0.245,-0.065
3024,-0.255,-0.045
3025,-0.255,-0.065
3026,-0.275,-0.075
3027,-0.275,-0.085
3028,-0.265,-0.095
3029,-0.265,-0.085
3030,-0.245,-0.085
3031,-0.265,-0.105
3032,-0.265,-0.105
3033,-0.275,-0.105
3034,-0.295,-0.115
3035,-0.305,-0.115
3036,-0.275,-0.125
3037,-0.265,-0.105
3038,-0.255,-0.085
3039,-0.255,-0.125
3040,-0.265,-0.125
3041,-0.245,-0.095
3042,-0.265,-0.105
3043,-0.285,-0.105
3044,-0.265,-0.105
3045,-0.225,-0.115
3046,-0.195,-0.065
3047,-0.165,-0.045
3048,-0.135,-0.075
3049,-0.165,-0.075
3050,-0.085,-0.085
3051,-0.035,-0.125
3052,-0.105,-0.125
3053,-0.155,-0.105
3054,-0.135,-0.125
3055,-0.185,-0.135
3056,-0.235,-0.105
3057,-0.235,-0.135
3058,-0.265,-0.135
3059,-0.265,-0.125
3060,-0.245,-0.125
3061,-0.235,-0.125
3062,-0.215,-0.115
3063,-0.235,-0.135
3064,-0.215,-0.115
3065,-0.215,-0.095
3066,-0.215,0.045
3067,-0.565,0.165
3068,-0.775,0.135
3069,-0.185,-0.975
3070,1.505,-1.265
3071,2.535,-0.825
3072,2.855,-0.705
3073,1.315,-0.255
3074,-0.085,-0.055
3075,-0.205,0.015
3076,-0.215,-0.005
3077,-0.255,-0.015
3078,-0.275,0.015
3079,-0.295,0.015
3080,-0.305,0.015
3081,-0.315,0.025
3082,-0.325,-0.005
3083,-0.315,0.005
3084,-0.295,0.005
3085,-0.295,0.025
3086,-0.265,0.015
3087,-0.255,0.005
3088,-0.245,0.005
3089,-0.235,0.035
3090,-0.245,0.005
3091,-0.215,0.015
3092,-0.175,0.025
3093,-0.155,0.055
3094,-0.075,0.065
3095,-0.035,0.075
3096,0.005,0.075
3097,0.065,0.085
3098,0.105,0.065
3099,0.155,0.075
3100,0.225,0.085
3101,0.275,0.075
3102,0.335,0.085
3103,0.355,0.095
3104,0.345,0.065
3105,0.305,0.085
3106,0.215,0.065
3107,0.105,0.045
3108,0.035,0.005
3109,-0.045,-0.005
3110,-0.085,-0.015
3111,-0.145,-0.055
3112,-0.165,-0.055
3113,-0.185,-0.035
3114,-0.195,-0.065
3115,-0.215,-0.065
3116,-0.195,-0.065
3117,-0.185,-0.045
3118,-0.155,-0.035
3119,-0.165,-0.055
3120,-0.165,-0.055
3121,-0.185,-0.045
3122,-0.195,-0.035
3123,-0.185,-0.045
3124,-0.175,-0.045
3125,-0.165,-0.045
3126,-0.145,-0.045
3127,-0.155,-0.065
3128,-0.165,-0.055
3129,-0.155,-0.045
3130,-0.175,-0.065
3131,-0.185,-0.075
3132,-0.185,-0.075
3133,-0.185,-0.075
3134,-0.165,-0.055
3135,-0.165,-0.075
3136,-0.175,-0.085
3137,-0.185,-0.095
3138,-0.205,-0.095
3139,-0.215,-0.095
3140,-0.205,-0.105
3141,-0.205,-0.095
3142,-0.175,-0.095
3143,-0.185,-0.095
3144,-0.195,-0.105
3145,-0.195,-0.105
3146,-0.205,-0.105
3147,-0.215,-0.115
3148,-0.195,-0.105
3149,-0.185,-0.115
3150,-0.175,-0.105
3151,-0.165,-0.105
3152,-0.165,-0.085
3153,-0.155,-0.095
3154,-0.145,-0.025
3155,-0.105,-0.035
3156,-0.105,-0.065
3157,-0.105,-0.065
3158,0.035,-0.075
3159,0.015,-0.115
3160,-0.085,-0.115
3161,-0.105,-0.115
3162,-0.125,-0.145
3163,-0.175,-0.145
3164,-0.175,-0.115
3165,-0.185,-0.135
3166,-0.175,-0.135
3167,-0.185,-0.135
3168,-0.185,-0.145
3169,-0.195,-0.115
3170,-0.215,-0.135
3171,-0.215,-0.135
3172,-0.185,-0.125
3173,-0.155,-0.075
3174,-0.215,0.195
3175,-0.625,0.215
3176,-0.645,-0.185
3177,0.565,-1.505
3178,2.135,-1.065
3179,2.835,-0.775
3180,2.425,-0.475
3181,0.585,-0.095
3182,-0.075,0.045
3183,-0.135,0.005
3184,-0.185,0.005
3185,-0.215,0.005
3186,-0.255,0.015
3187,-0.285,-0.005
3188,-0.275,-0.005
3189,-0.255,0.015
3190,-0.235,0.015
3191,-0.235,0.005
3192,-0.235,0.005
3193,-0.235,0.025
3194,-0.245,0.025
3195,-0.235,0.025
3196,-0.195,0.035
3197,-0.185,0.045
3198,-0.155,0.055
3199,-0.135,0.065
3200,-0.115,0.075
3201,-0.085,0.075
3202,-0.065,0.085
3203,-0.015,0.085
3204,0.045,0.105
3205,0.105,0.115
3206,0.195,0.125
3207,0.255,0.135
3208,0.295,0.115
3209,0.345,0.145
3210,0.385,0.125
3211,0.385,0.125
3212,0.395,0.115
3213,0.355,0.115
3214,0.285,0.085
3215,0.195,0.045
3216,0.085,0.015
3217,0.015,-0.015
3218,-0.055,-0.015
3219,-0.125,-0.045
3220,-0.135,-0.045
3221,-0.135,-0.045
3222,-0.135,-0.045
3223,-0.135,-0.035
3224,-0.145,-0.055
3225,-0.125,-0.035
3226,-0.135,-0.045
3227,-0.145,-0.055
3228,-0.125,-0.045
3229,-0.115,-0.025
3230,-0.095,-0.015
3231,-0.105,-0.035
3232,-0.115,-0.035
3233,-0.125,-0.045
3234,-0.135,-0.015
3235,-0.145,-0.025
3236,-0.135,-0.035
3237,-0.135,-0.035
3238,-0.135,-0.045
3239,-0.125,-0.055
3240,-0.135,-0.055
3241,-0.155,-0.055
3242,-0.165,-0.075
3243,-0.185,-0.085
3244,-0.175,-0.095
3245,-0.165,-0.085
3246,-0.145,-0.085
3247,-0.155,-0.095
3248,-0.165,-0.095
3249,-0.165,-0.085
3250,-0.185,-0.125
3251,-0.175,-0.105
3252,-0.185,-0.105
3253,-0.175,-0.105
3254,-0.145,-0.095
3255,-0.145,-0.105
3256,-0.155,-0.105
3257,-0.155,-0.085
3258,-0.175,-0.095
3259,-0.165,-0.115
3260,-0.165,-0.115
3261,-0.175,-0.095
3262,-0.135,-0.095
3263,-0.135,-0.095
3264,-0.135,-0.075
3265,-0.115,-0.075
3266,-0.135,-0.075
3267,-0.075,-0.045
3268,-0.045,-0.045
3269,-0.065,-0.085
3270,0.015,-0.075
3271,0.075,-0.115
3272,-0.025,-0.145
3273,-0.105,-0.095
3274,-0.105,-0.135
3275,-0.125,-0.145
3276,-0.155,-0.105
3277,-0.165,-0.115
3278,-0.155,-0.115
3279,-0.155,-0.135
3280,-0.155,-0.105
3281,-0.165,-0.105
3282,-0.175,-0.125
3283,-0.175,-0.105
3284,-0.155,-0.115
3285,-0.155,-0.105
3286,-0.105,0.095
3287,-0.455,0.175
3288,-0.675,0.045
3289,-0.025,-1.095
3290,1.605,-1.375
3291,2.595,-0.785
3292,2.925,-0.705
3293,1.585,-0.265
3294,0.135,-0.025
3295,-0.085,0.025
3296,-0.165,0.005
3297,-0.205,0.005
3298,-0.245,0.015
3299,-0.285,-0.005
3300,-0.265,-0.015
3301,-0.275,0.015
3302,-0.245,0.045
3303,-0.245,0.025
3304,-0.255,0.015
3305,-0.255,0.025
3306,-0.255,0.025
3307,-0.255,0.025
3308,-0.225,0.025
3309,-0.205,0.045
3310,-0.165,0.075
3311,-0.155,0.045
3312,-0.155,0.075
3313,-0.115,0.095
3314,-0.095,0.065
3315,-0.045,0.075
3316,0.005,0.085
3317,0.075,0.105
3318,0.165,0.115
3319,0.215,0.115
3320,0.255,0.115
3321,0.305,0.145
3322,0.325,0.115
3323,0.355,0.115
3324,0.365,0.125
3325,0.335,0.095
3326,0.275,0.085
3327,0.175,0.045
3328,0.055,0.005
3329,-0.025,0.005
3330,-0.115,-0.015
3331,-0.155,-0.065
3332,-0.185,-0.055
3333,-0.195,-0.055
3334,-0.175,-0.045
3335,-0.185,-0.075
3336,-0.185,-0.055
3337,-0.175,-0.065
3338,-0.185,-0.075
3339,-0.205,-0.075
3340,-0.195,-0.065
3341,-0.195,-0.065
3342,-0.175,-0.045
3343,-0.175,-0.065
3344,-0.185,-0.055
3345,-0.175,-0.055
3346,-0.195,-0.055
3347,-0.205,-0.065
3348,-0.195,-0.065
3349,-0.195,-0.055
3350,-0.185,-0.055
3351,-0.185,-0.065
3352,-0.195,-0.085
3353,-0.205,-0.065
3354,-0.225,-0.085
3355,-0.235,-0.105
3356,-0.245,-0.085
3357,-0.235,-0.075
3358,-0.205,-0.105
3359,-0.215,-0.115
3360,-0.225,-0.095
3361,-0.225,-0.105
3362,-0.265,-0.115
3363,-0.265,-0.125
3364,-0.265,-0.115
3365,-0.255,-0.135
3366,-0.225,-0.115
3367,-0.235,-0.115
3368,-0.235,-0.105
3369,-0.225,-0.105
3370,-0.255,-0.115
3371,-0.255,-0.125
3372,-0.255,-0.125
3373,-0.265,-0.125
3374,-0.215,-0.095
3375,-0.205,-0.135
3376,-0.225,-0.105
3377,-0.165,-0.055
3378,-0.175,-0.085
3379,-0.175,-0.105
3380,-0.085,-0.105
3381,-0.035,-0.125
3382,-0.095,-0.125
3383,-0.165,-0.145
3384,-0.155,-0.165
3385,-0.185,-0.135
3386,-0.245,-0.125
3387,-0.245,-0.175
3388,-0.225,-0.145
3389,-0.235,-0.145
3390,-0.215,-0.125
3391,-0.215,-0.135
3392,-0.215,-0.125
3393,-0.235,-0.135
3394,-0.225,-0.105
3395,-0.225,-0.135
3396,-0.195,0.015
3397,-0.485,0.145
3398,-0.765,0.215
3399,-0.495,-0.565
3400,1.195,-1.365
3401,2.475,-0.805
3402,2.925,-0.705
3403,2.025,-0.485
3404,0.325,-0.125
3405,-0.185,0.035
3406,-0.185,0.015
3407,-0.235,-0.025
3408,-0.285,-0.015
3409,-0.295,-0.005
3410,-0.315,-0.025
3411,-0.325,-0.045
3412,-0.335,-0.025
3413,-0.315,0.005
3414,-0.295,0.005
3415,-0.285,-0.005
3416,-0.295,-0.025
3417,-0.295,-0.015
3418,-0.275,-0.005
3419,-0.275,-0.015
3420,-0.255,-0.005
3421,-0.215,0.005
3422,-0.195,0.025
3423,-0.155,0.015
3424,-0.135,0.005
3425,-0.085,0.025
3426,-0.055,0.035
3427,-0.025,0.025
3428,0.055,0.025
3429,0.125,0.055
3430,0.195,0.045
3431,0.255,0.045
3432,0.295,0.035
3433,0.335,0.055
3434,0.335,0.035
3435,0.275,0.045
3436,0.215,0.035
3437,0.135,0.035
3438,0.045,0.015
3439,-0.045,-0.025
3440,-0.125,-0.055
3441,-0.195,-0.055
3442,-0.235,-0.075
3443,-0.255,-0.085
3444,-0.245,-0.065
3445,-0.225,-0.065
3446,-0.225,-0.075
3447,-0.235,-0.085
3448,-0.215,-0.075
3449,-0.215,-0.055
3450,-0.245,-0.055
3451,-0.255,-0.075
3452,-0.245,-0.055
3453,-0.235,-0.055
3454,-0.205,-0.055
3455,-0.205,-0.055
3456,-0.205,-0.055
3457,-0.215,-0.065
3458,-0.225,-0.075
3459,-0.225,-0.105
3460,-0.225,-0.075
3461,-0.225,-0.075
3462,-0.195,-0.065
3463,-0.195,-0.085
3464,-0.215,-0.095
3465,-0.215,-0.075
3466,-0.215,-0.095
3467,-0.245,-0.125
3468,-0.235,-0.105
3469,-0.225,-0.105
3470,-0.205,-0.095
3471,-0.195,-0.105
3472,-0.205,-0.105
3473,-0.205,-0.095
3474,-0.225,-0.095
3475,-0.235,-0.105
3476,-0.225,-0.105
3477,-0.215,-0.115
3478,-0.175,-0.095
3479,-0.195,-0.125
3480,-0.185,-0.075
3481,-0.175,-0.095
3482,-0.185,-0.055
3483,-0.115,-0.055
3484,-0.105,-0.065
3485,-0.125,-0.065
3486,0.015,-0.075
3487,0.005,-0.125
3488,-0.095,-0.105
3489,-0.115,-0.105
3490,-0.145,-0.135
3491,-0.185,-0.145
3492,-0.195,-0.135
3493,-0.195,-0.135
3494,-0.185,-0.125
3495,-0.195,-0.135
3496,-0.195,-0.125
3497,-0.185,-0.115
3498,-0.225,-0.125
3499,-0.205,-0.135
3500,-0.195,-0.135
3501,-0.175,-0.095
3502,-0.215,0.135
3503,-0.625,0.215
3504,-0.645,-0.115
3505,0.575,-1.305
3506,2.095,-1.005
3507,2.775,-0.755
3508,2.275,-0.485
3509,0.555,-0.075
3510,-0.095,0.055
3511,-0.145,0.045
3512,-0.195,0.025
3513,-0.215,0.025
3514,-0.275,0.015
3515,-0.265,0.005
3516,-0.265,0.015
3517,-0.275,0.015
3518,-0.245,0.035
3519,-0.245,0.025
3520,-0.235,0.025
3521,-0.215,0.025
3522,-0.235,0.025
3523,-0.215,0.005
3524,-0.195,0.035
3525,-0.185,0.035
3526,-0.125,0.075
3527,-0.125,0.045
3528,-0.115,0.055
3529,-0.075,0.065
3530,-0.065,0.065
3531,-0.025,0.065
3532,0.035,0.095
3533,0.085,0.095
3534,0.195,0.115
3535,0.245,0.085
3536,0.295,0.105
3537,0.365,0.125
3538,0.345,0.125
3539,0.375,0.115
3540,0.365,0.135
3541,0.295,0.105
3542,0.235,0.085
3543,0.125,0.045
3544,0.025,0.035
3545,-0.035,0.015
3546,-0.115,-0.015
3547,-0.145,-0.045
3548,-0.165,-0.055
3549,-0.175,-0.045
3550,-0.145,-0.045
3551,-0.155,-0.065
3552,-0.155,-0.065
3553,-0.145,-0.045
3554,-0.185,-0.045
3555,-0.185,-0.045
3556,-0.165,-0.045
3557,-0.165,-0.055
3558,-0.135,-0.025
3559,-0.135,-0.035
3560,-0.145,-0.055
3561,-0.135,-0.035
3562,-0.145,-0.045
3563,-0.145,-0.065
3564,-0.145,-0.065
3565,-0.155,-0.065
3566,-0.115,-0.055
3567,-0.135,-0.075
3568,-0.145,-0.065
3569,-0.135,-0.065
3570,-0.165,-0.065
3571,-0.165,-0.095
3572,-0.165,-0.075
3573,-0.165,-0.065
3574,-0.125,-0.075
3575,-0.155,-0.095
3576,-0.155,-0.105
3577,-0.145,-0.105
3578,-0.185,-0.105
3579,-0.155,-0.105
3580,-0.155,-0.105
3581,-0.165,-0.115
3582,-0.125,-0.085
3583,-0.135,-0.115
3584,-0.145,-0.115
3585,-0.125,-0.095
3586,-0.155,-0.105
3587,-0.155,-0.125
3588,-0.145,-0.115
3589,-0.125,-0.085
3590,-0.095,-0.085
3591,-0.055,-0.035
3592,-0.035,-0.045
3593,-0.025,-0.045
3594,0.005,-0.075
3595,0.055,-0.105
3596,0.005,-0.125
3597,-0.075,-0.115
3598,-0.045,-0.125
3599,-0.055,-0.155
3600,-0.105,-0.145
3601,-0.115,-0.135
3602,-0.155,-0.145
3603,-0.155,-0.145
3604,-0.145,-0.135
3605,-0.135,-0.145
3606,-0.115,-0.125
3607,-0.125,-0.135
3608,-0.125,-0.135
3609,-0.125,-0.125
3610,-0.105,-0.115
3611,-0.155,0.125
3612,-0.565,0.215
3613,-0.615,-0.095
3614,0.655,-1.355
3615,2.125,-1.185
3616,2.785,-0.795
3617,2.725,-0.615
3618,0.915,-0.135
3619,-0.045,-0.005
3620,-0.065,0.025
3621,-0.125,0.015
3622,-0.145,-0.005
3623,-0.175,-0.005
3624,-0.205,0.015
3625,-0.195,0.025
3626,-0.215,0.015
3627,-0.225,-0.005
3628,-0.195,-0.005
3629,-0.185,0.015
3630,-0.165,0.015
3631,-0.155,0.005
3632,-0.155,0.015
3633,-0.135,0.025
3634,-0.145,0.025
3635,-0.145,0.005
3636,-0.095,0.025
3637,-0.065,0.065
3638,-0.025,0.085
3639,0.015,0.075
3640,0.045,0.065
3641,0.095,0.115
3642,0.145,0.125
3643,0.175,0.105
3644,0.275,0.125
3645,0.335,0.135
3646,0.415,0.145
3647,0.455,0.115
3648,0.465,0.125
3649,0.445,0.125
3650,0.365,0.085
3651,0.285,0.045
3652,0.195,0.025
3653,0.105,0.005
3654,0.045,-0.005
3655,-0.025,-0.035
3656,-0.065,-0.055
3657,-0.095,-0.055
3658,-0.125,-0.075
3659,-0.115,-0.085
3660,-0.115,-0.085
3661,-0.115,-0.085
3662,-0.085,-0.055
3663,-0.095,-0.065
3664,-0.095,-0.065
3665,-0.095,-0.065
3666,-0.105,-0.065
3667,-0.125,-0.075
3668,-0.115,-0.065
3669,-0.115,-0.065
3670,-0.075,-0.045
3671,-0.085,-0.055
3672,-0.105,-0.075
3673,-0.115,-0.055
3674,-0.125,-0.065
3675,-0.135,-0.075
3676,-0.135,-0.085
3677,-0.135,-0.095
3678,-0.115,-0.085
3679,-0.125,-0.125
3680,-0.135,-0.105
3681,-0.135,-0.115
3682,-0.165,-0.145
3683,-0.175,-0.135
3684,-0.175,-0.125
3685,-0.165,-0.115
3686,-0.145,-0.125
3687,-0.145,-0.145
3688,-0.165,-0.145
3689,-0.155,-0.135
3690,-0.185,-0.145
3691,-0.185,-0.145
3692,-0.165,-0.145
3693,-0.165,-0.145
3694,-0.135,-0.135
3695,-0.155,-0.145
3696,-0.155,-0.125
3697,-0.145,-0.145
3698,-0.175,-0.155
3699,-0.165,-0.155
3700,-0.155,-0.155
3701,-0.165,-0.145
3702,-0.125,-0.135
3703,-0.115,-0.155
3704,-0.115,-0.105
3705,-0.065,-0.085
3706,-0.095,-0.125
3707,-0.075,-0.125
3708,0.025,-0.155
3709,-0.015,-0.175
3710,-0.095,-0.155
3711,-0.095,-0.185
3712,-0.105,-0.195
3713,-0.135,-0.175
3714,-0.205,-0.165
3715,-0.205,-0.175
3716,-0.205,-0.185
3717,-0.205,-0.195
3718,-0.165,-0.155
3719,-0.195,-0.195
3720,-0.195,-0.175
3721,-0.185,-0.165
3722,-0.205,-0.185
3723,-0.175,-0.145
3724,-0.305,0.105
3725,-0.695,0.145
3726,-0.465,-0.405
3727,0.925,-1.505
3728,2.205,-0.995
3729,2.765,-0.765
3730,2.135,-0.555
3731,0.445,-0.145
3732,-0.135,-0.015
3733,-0.165,-0.015
3734,-0.205,-0.055
3735,-0.265,-0.035
3736,-0.285,-0.025
3737,-0.285,-0.015
3738,-0.325,-0.025
3739,-0.325,-0.045
3740,-0.305,-0.025
3741,-0.315,-0.025
3742,-0.275,-0.015
3743,-0.285,-0.045
3744,-0.275,-0.015
3745,-0.245,-0.005
3746,-0.275,-0.025
3747,-0.245,-0.025
3748,-0.225,-0.025
3749,-0.205,0.015
3750,-0.155,0.005
3751,-0.135,0.025
3752,-0.095,0.045
3753,-0.035,0.075
3754,-0.025,0.055
3755,0.045,0.055
3756,0.095,0.055
3757,0.155,0.065
3758,0.245,0.085
3759,0.275,0.085
3760,0.315,0.095
3761,0.335,0.115
3762,0.285,0.105
3763,0.225,0.065
3764,0.145,0.035
3765,0.035,0.015
3766,-0.025,0.005
3767,-0.125,-0.035
3768,-0.185,-0.065
3769,-0.215,-0.065
3770,-0.275,-0.085
3771,-0.275,-0.095
3772,-0.265,-0.085
3773,-0.265,-0.075
3774,-0.245,-0.085
3775,-0.255,-0.095
3776,-0.265,-0.095
3777,-0.245,-0.065
3778,-0.285,-0.075
3779,-0.285,-0.085
3780,-0.265,-0.085
3781,-0.265,-0.065
3782,-0.235,-0.055
3783,-0.255,-0.085
3784,-0.265,-0.085
3785,-0.265,-0.075
3786,-0.285,-0.085
3787,-0.285,-0.095
3788,-0.295,-0.085
3789,-0.285,-0.065
3790,-0.265,-0.065
3791,-0.275,-0.105
3792,-0.285,-0.095
3793,-0.275,-0.105
3794,-0.305,-0.115
3795,-0.305,-0.115
3796,-0.305,-0.105
3797,-0.315,-0.115
3798,-0.295,-0.105
3799,-0.305,-0.115
3800,-0.305,-0.135
3801,-0.295,-0.115
3802,-0.345,-0.125
3803,-0.315,-0.145
3804,-0.305,-0.145
3805,-0.325,-0.135
3806,-0.295,-0.125
3807,-0.285,-0.135
3808,-0.295,-0.135
3809,-0.285,-0.125
3810,-0.305,-0.115
3811,-0.305,-0.145
3812,-0.285,-0.105
3813,-0.235,-0.075
3814,-0.195,-0.085
3815,-0.215,-0.115
3816,-0.115,-0.125
3817,-0.105,-0.145
3818,-0.225,-0.155
3819,-0.235,-0.135
3820,-0.215,-0.165
3821,-0.275,-0.155
3822,-0.275,-0.115
3823,-0.295,-0.165
3824,-0.295,-0.165
3825,-0.285,-0.155
3826,-0.305,-0.145
3827,-0.325,-0.155
3828,-0.305,-0.155
3829,-0.295,-0.135
3830,-0.275,-0.135
3831,-0.265,-0.145
3832,-0.265,0.015
3833,-0.635,0.115
3834,-0.835,0.075
3835,0.025,-1.045
3836,1.665,-1.115
3837,2.615,-0.775
3838,2.655,-0.635
3839,0.795,-0.245
3840,-0.195,-0.035
3841,-0.255,0.005
3842,-0.295,-0.015
3843,-0.335,-0.025
3844,-0.345,-0.025
3845,-0.375,-0.015
3846,-0.355,-0.015
3847,-0.355,-0.035
3848,-0.365,-0.025
3849,-0.355,-0.025
3850,-0.375,-0.005
3851,-0.365,-0.035
3852,-0.345,-0.035
3853,-0.325,-0.025
3854,-0.295,-0.005
3855,-0.285,-0.015
3856,-0.265,-0.025
3857,-0.255,0.005
3858,-0.235,-0.005
3859,-0.205,-0.005
3860,-0.155,0.005
3861,-0.115,0.005
3862,-0.015,0.025
3863,0.025,0.025
3864,0.085,0.035
3865,0.145,0.045
3866,0.175,0.045
3867,0.215,0.035
3868,0.265,0.065
3869,0.295,0.065
3870,0.315,0.085
3871,0.255,0.065
3872,0.165,0.055
3873,0.065,0.045
3874,-0.065,0.015
3875,-0.135,-0.035
3876,-0.185,-0.055
3877,-0.235,-0.065
3878,-0.235,-0.045
3879,-0.255,-0.065
3880,-0.275,-0.055
3881,-0.255,-0.055
3882,-0.285,-0.065
3883,-0.265,-0.055
3884,-0.255,-0.045
3885,-0.265,-0.045
3886,-0.225,-0.035
3887,-0.235,-0.045
3888,-0.225,-0.055
3889,-0.205,-0.045
3890,-0.245,-0.045
3891,-0.235,-0.055
3892,-0.235,-0.065
3893,-0.225,-0.065
3894,-0.195,-0.055
3895,-0.205,-0.065
3896,-0.215,-0.065
3897,-0.205,-0.055
3898,-0.245,-0.075
3899,-0.245,-0.095
3900,-0.245,-0.085
3901,-0.235,-0.075
3902,-0.215,-0.065
3903,-0.235,-0.085
3904,-0.235,-0.095
3905,-0.235,-0.085
3906,-0.265,-0.095
3907,-0.265,-0.115
3908,-0.245,-0.095
3909,-0.235,-0.085
3910,-0.225,-0.095
3911,-0.225,-0.085
3912,-0.215,-0.095
3913,-0.215,-0.105
3914,-0.225,-0.095
3915,-0.215,-0.075
3916,-0.195,-0.105
3917,-0.145,-0.025
3918,-0.095,-0.015
3919,-0.115,-0.065
3920,-0.085,-0.065
3921,0.005,-0.095
3922,-0.075,-0.115
3923,-0.175,-0.125
3924,-0.145,-0.135
3925,-0.145,-0.145
3926,-0.175,-0.105
3927,-0.195,-0.135
3928,-0.205,-0.145
3929,-0.205,-0.135
3930,-0.225,-0.125
3931,-0.235,-0.135
3932,-0.215,-0.145
3933,-0.215,-0.135
3934,-0.195,-0.105
3935,-0.195,-0.135
3936,-0.185,-0.055
3937,-0.335,0.175
3938,-0.705,0.255
3939,-0.575,-0.405
3940,0.955,-1.515
3941,2.305,-0.965
3942,2.845,-0.765
3943,2.215,-0.475
3944,0.445,-0.085
3945,-0.155,0.025
3946,-0.135,0.025
3947,-0.205,0.015
3948,-0.235,0.035
3949,-0.265,0.025
3950,-0.275,0.025
3951,-0.265,0.035
3952,-0.275,0.025
3953,-0.275,0.025
3954,-0.285,0.025
3955,-0.295,0.025
3956,-0.265,0.025
3957,-0.245,0.035
3958,-0.215,0.045
3959,-0.205,0.065
3960,-0.195,0.055
3961,-0.175,0.065
3962,-0.145,0.075
3963,-0.125,0.075
3964,-0.085,0.095
3965,-0.035,0.085
3966,0.055,0.125
3967,0.105,0.125
3968,0.155,0.115
3969,0.215,0.125
3970,0.245,0.115
3971,0.295,0.115
3972,0.355,0.115
3973,0.375,0.105
3974,0.425,0.135
3975,0.355,0.115
3976,0.265,0.105
3977,0.175,0.095
3978,0.045,0.015
3979,-0.045,-0.005
3980,-0.115,-0.035
3981,-0.145,-0.025
3982,-0.135,-0.025
3983,-0.155,-0.065
3984,-0.175,-0.055
3985,-0.155,-0.045
3986,-0.195,-0.055
3987,-0.185,-0.055
3988,-0.175,-0.045
3989,-0.185,-0.045
3990,-0.145,-0.025
3991,-0.155,-0.055
3992,-0.145,-0.035
3993,-0.135,-0.005
3994,-0.175,-0.035
3995,-0.165,-0.045
3996,-0.155,-0.055
3997,-0.165,-0.035
3998,-0.135,-0.015
3999,-0.145,-0.045
4000,-0.155,-0.055
4001,-0.145,-0.035
4002,-0.175,-0.055
4003,-0.175,-0.075
4004,-0.175,-0.075
4005,-0.175,-0.085
4006,-0.145,-0.065
4007,-0.155,-0.085
4008,-0.175,-0.105
4009,-0.165,-0.085
4010,-0.195,-0.085
4011,-0.205,-0.105
4012,-0.185,-0.095
4013,-0.185,-0.095
4014,-0.155,-0.085
4015,-0.165,-0.095
4016,-0.175,-0.095
4017,-0.175,-0.095
4018,-0.195,-0.105
4019,-0.185,-0.125
4020,-0.175,-0.105
4021,-0.165,-0.115
4022,-0.145,-0.105
4023,-0.145,-0.095
4024,-0.125,-0.105
4025,-0.115,-0.075
4026,-0.075,-0.045
4027,-0.075,-0.055
4028,-0.085,-0.085
4029,0.015,-0.095
4030,0.045,-0.135
4031,-0.055,-0.145
4032,-0.085,-0.135
4033,-0.095,-0.145
4034,-0.125,-0.145
4035,-0.175,-0.135
4036,-0.165,-0.155
4037,-0.185,-0.155
4038,-0.155,-0.135
4039,-0.155,-0.145
4040,-0.165,-0.145
4041,-0.165,-0.145
4042,-0.175,-0.155
4043,-0.185,-0.165
4044,-0.155,-0.155
4045,-0.135,0.025
4046,-0.405,0.175
4047,-0.675,0.055
4048,-0.025,-1.165
4049,1.665,-1.375
4050,2.635,-0.825
4051,2.815,-0.685
4052,1.135,-0.155
4053,-0.035,0.025
4054,-0.105,0.015
4055,-0.165,-0.015
4056,-0.215,-0.025
4057,-0.245,0.005
4058,-0.265,-0.015
4059,-0.275,-0.035
4060,-0.275,-0.005
4061,-0.265,-0.005
4062,-0.245,0.025
4063,-0.245,0.005
4064,-0.235,-0.005
4065,-0.235,0.005
4066,-0.235,-0.005
4067,-0.235,-0.005
4068,-0.215,0.025
4069,-0.185,0.025
4070,-0.125,0.045
4071,-0.105,0.025
4072,-0.095,0.045
4073,-0.045,0.085
4074,-0.025,0.085
4075,0.035,0.085
4076,0.095,0.085
4077,0.165,0.105
4078,0.255,0.135
4079,0.295,0.105
4080,0.315,0.085
4081,0.365,0.105
4082,0.365,0.115
4083,0.375,0.115
4084,0.325,0.095
4085,0.245,0.055
4086,0.165,0.025
4087,0.055,-0.005
4088,-0.035,-0.045
4089,-0.095,-0.045
4090,-0.155,-0.075
4091,-0.195,-0.095
4092,-0.205,-0.105
4093,-0.195,-0.085
4094,-0.175,-0.095
4095,-0.195,-0.105
4096,-0.195,-0.105
4097,-0.195,-0.095
4098,-0.215,-0.105
4099,-0.215,-0.125
4100,-0.215,-0.085
4101,-0.205,-0.095
4102,-0.185,-0.095
4103,-0.195,-0.115
4104,-0.185,-0.105
4105,-0.185,-0.105
4106,-0.215,-0.135
4107,-0.225,-0.105
4108,-0.215,-0.105
4109,-0.195,-0.135
4110,-0.175,-0.125
4111,-0.185,-0.135
4112,-0.205,-0.155
4113,-0.215,-0.135
4114,-0.235,-0.145
4115,-0.225,-0.165
4116,-0.235,-0.165
4117,-0.215,-0.155
4118,-0.205,-0.155
4119,-0.215,-0.175
4120,-0.225,-0.175
4121,-0.235,-0.175
4122,-0.255,-0.165
4123,-0.255,-0.185
4124,-0.245,-0.175
4125,-0.235,-0.175
4126,-0.215,-0.165
4127,-0.215,-0.185
4128,-0.225,-0.205
4129,-0.225,-0.165
4130,-0.235,-0.185
4131,-0.255,-0.185
4132,-0.225,-0.155
4133,-0.215,-0.175
4134,-0.175,-0.155
4135,-0.145,-0.135
4136,-0.135,-0.125
4137,-0.165,-0.165
4138,-0.095,-0.175
4139,-0.045,-0.195
4140,-0.105,-0.215
4141,-0.165,-0.195
4142,-0.135,-0.195
4143,-0.155,-0.215
4144,-0.225,-0.195
4145,-0.225,-0.205
4146,-0.255,-0.225
4147,-0.245,-0.225
4148,-0.245,-0.215
4149,-0.225,-0.205
4150,-0.195,-0.185
4151,-0.215,-0.215
4152,-0.225,-0.205
4153,-0.205,-0.195
4154,-0.225,-0.005
4155,-0.595,0.065
4156,-0.785,-0.015
4157,-0.185,-1.055
4158,1.495,-1.285
4159,2.525,-0.825
4160,2.875,-0.755
4161,1.595,-0.415
4162,0.035,-0.145
4163,-0.215,-0.065
4164,-0.215,-0.055
4165,-0.255,-0.085
4166,-0.285,-0.085
4167,-0.305,-0.085
4168,-0.325,-0.085
4169,-0.305,-0.065
4170,-0.315,-0.075
4171,-0.325,-0.085
4172,-0.315,-0.105
4173,-0.305,-0.085
4174,-0.275,-0.085
4175,-0.275,-0.095
4176,-0.275,-0.095
4177,-0.255,-0.075
4178,-0.255,-0.055
4179,-0.245,-0.075
4180,-0.185,-0.055
4181,-0.145,-0.065
4182,-0.115,-0.045
4183,-0.065,-0.045
4184,-0.025,-0.045
4185,0.035,-0.045
4186,0.075,-0.045
4187,0.135,-0.045
4188,0.205,-0.035
4189,0.265,-0.025
4190,0.335,-0.005
4191,0.355,-0.025
4192,0.365,-0.015
4193,0.335,0.005
4194,0.265,-0.015
4195,0.155,-0.045
4196,0.055,-0.065
4197,-0.045,-0.085
4198,-0.105,-0.095
4199,-0.165,-0.115
4200,-0.205,-0.125
4201,-0.215,-0.125
4202,-0.245,-0.125
4203,-0.255,-0.145
4204,-0.235,-0.135
4205,-0.225,-0.115
4206,-0.205,-0.135
4207,-0.225,-0.145
4208,-0.225,-0.135
4209,-0.225,-0.115
4210,-0.215,-0.115
4211,-0.225,-0.125
4212,-0.215,-0.115
4213,-0.205,-0.105
4214,-0.195,-0.105
4215,-0.195,-0.125
4216,-0.215,-0.125
4217,-0.205,-0.125
4218,-0.215,-0.115
4219,-0.215,-0.145
4220,-0.215,-0.145
4221,-0.205,-0.145
4222,-0.195,-0.155
4223,-0.195,-0.155
4224,-0.205,-0.145
4225,-0.205,-0.155
4226,-0.215,-0.155
4227,-0.245,-0.175
4228,-0.235,-0.165
4229,-0.205,-0.165
4230,-0.215,-0.145
4231,-0.205,-0.165
4232,-0.225,-0.175
4233,-0.215,-0.165
4234,-0.235,-0.175
4235,-0.235,-0.175
4236,-0.225,-0.155
4237,-0.195,-0.155
4238,-0.165,-0.155
4239,-0.145,-0.105
4240,-0.105,-0.105
4241,-0.115,-0.105
4242,-0.075,-0.115
4243,-0.005,-0.145
4244,-0.065,-0.165
4245,-0.135,-0.155
4246,-0.105,-0.175
4247,-0.125,-0.185
4248,-0.185,-0.175
4249,-0.195,-0.165
4250,-0.225,-0.155
4251,-0.215,-0.185
4252,-0.215,-0.175
4253,-0.205,-0.175
4254,-0.195,-0.145
4255,-0.195,-0.165
4256,-0.185,-0.165
4257,-0.165,-0.155
4258,-0.155,-0.105
4259,-0.315,0.105
4260,-0.675,0.195
4261,-0.505,-0.385
4262,0.965,-1.445
4263,2.285,-0.915
4264,2.815,-0.775
4265,2.195,-0.505
4266,0.475,-0.125
4267,-0.135,0.005
4268,-0.155,-0.005
4269,-0.185,-0.015
4270,-0.215,-0.005
4271,-0.225,-0.025
4272,-0.245,-0.035
4273,-0.245,-0.015
4274,-0.265,-0.025
4275,-0.255,-0.045
4276,-0.235,-0.025
4277,-0.235,-0.015
4278,-0.205,0.015
4279,-0.215,-0.005
4280,-0.215,-0.005
4281,-0.195,-0.005
4282,-0.195,0.015
4283,-0.165,0.005
4284,-0.125,0.025
4285,-0.085,0.025
4286,-0.025,0.025
4287,0.015,0.035
4288,0.045,0.055
4289,0.115,0.055
4290,0.165,0.045
4291,0.215,0.035
4292,0.295,0.045
4293,0.355,0.055
4294,0.425,0.085
4295,0.445,0.075
4296,0.435,0.085
4297,0.405,0.085
4298,0.305,0.045
4299,0.205,0.025
4300,0.095,0.005
4301,-0.005,-0.015
4302,-0.025,-0.045
4303,-0.085,-0.055
4304,-0.125,-0.055
4305,-0.115,-0.055
4306,-0.155,-0.075
4307,-0.145,-0.075
4308,-0.145,-0.065
4309,-0.145,-0.065
4310,-0.125,-0.055
4311,-0.135,-0.075
4312,-0.135,-0.065
4313,-0.125,-0.045
4314,-0.145,-0.055
4315,-0.145,-0.065
4316,-0.135,-0.075
4317,-0.125,-0.055
4318,-0.105,-0.045
4319,-0.095,-0.055
4320,-0.105,-0.065
4321,-0.115,-0.045
4322,-0.125,-0.055
4323,-0.125,-0.065
4324,-0.125,-0.065
4325,-0.125,-0.055
4326,-0.105,-0.055
4327,-0.115,-0.075
4328,-0.135,-0.075
4329,-0.125,-0.065
4330,-0.145,-0.085
4331,-0.155,-0.115
4332,-0.155,-0.095
4333,-0.135,-0.095
4334,-0.115,-0.085
4335,-0.125,-0.095
4336,-0.125,-0.095
4337,-0.135,-0.075
4338,-0.145,-0.105
4339,-0.145,-0.095
4340,-0.145,-0.095
4341,-0.135,-0.095
4342,-0.115,-0.075
4343,-0.125,-0.085
4344,-0.135,-0.075
4345,-0.115,-0.045
4346,-0.115,-0.085
4347,-0.115,-0.075
4348,-0.045,-0.035
4349,-0.045,-0.035
4350,-0.035,-0.035
4351,0.045,-0.065
4352,0.055,-0.095
4353,-0.015,-0.095
4354,-0.095,-0.075
4355,-0.085,-0.115
4356,-0.085,-0.125
4357,-0.145,-0.085
4358,-0.115,-0.075
4359,-0.135,-0.115
4360,-0.155,-0.115
4361,-0.155,-0.115
4362,-0.175,-0.115
4363,-0.175,-0.105
4364,-0.175,-0.115
4365,-0.165,-0.095
4366,-0.135,-0.115
4367,-0.105,-0.035
4368,-0.275,0.175
4369,-0.655,0.235
4370,-0.345,-0.785
4371,1.285,-1.575
4372,2.485,-0.905
4373,2.935,-0.735
4374,2.035,-0.365
4375,0.375,-0.035
4376,-0.065,0.055
4377,-0.115,0.035
4378,-0.195,0.025
4379,-0.215,0.015
4380,-0.225,0.015
4381,-0.225,0.005
4382,-0.225,0.035
4383,-0.225,0.025
4384,-0.215,0.025
4385,-0.225,0.025
4386,-0.235,0.035
4387,-0.225,0.035
4388,-0.205,0.045
4389,-0.185,0.065
4390,-0.165,0.065
4391,-0.145,0.055
4392,-0.145,0.045
4393,-0.125,0.085
4394,-0.105,0.075
4395,-0.075,0.075
4396,-0.015,0.095
4397,0.015,0.125
4398,0.095,0.135
4399,0.155,0.135
4400,0.205,0.145
4401,0.275,0.135
4402,0.315,0.135
4403,0.365,0.125
4404,0.415,0.135
4405,0.425,0.125
4406,0.415,0.135
4407,0.355,0.105
4408,0.255,0.065
4409,0.155,0.045
4410,0.055,0.025
4411,-0.045,-0.025
4412,-0.085,-0.025
4413,-0.115,-0.025
4414,-0.105,-0.035
4415,-0.135,-0.055
4416,-0.135,-0.055
4417,-0.135,-0.035
4418,-0.135,-0.045
4419,-0.145,-0.065
4420,-0.145,-0.035
4421,-0.145,-0.045
4422,-0.115,-0.025
4423,-0.115,-0.045
4424,-0.125,-0.025
4425,-0.135,-0.015
4426,-0.145,-0.015
4427,-0.145,-0.035
4428,-0.135,-0.025
4429,-0.135,-0.035
4430,-0.125,-0.025
4431,-0.125,-0.045
4432,-0.145,-0.055
4433,-0.135,-0.045
4434,-0.165,-0.065
4435,-0.165,-0.075
4436,-0.155,-0.085
4437,-0.175,-0.085
4438,-0.155,-0.085
4439,-0.165,-0.095
4440,-0.165,-0.095
4441,-0.175,-0.085
4442,-0.195,-0.105
4443,-0.195,-0.115
4444,-0.195,-0.105
4445,-0.195,-0.095
4446,-0.155,-0.075
4447,-0.175,-0.095
4448,-0.185,-0.105
4449,-0.175,-0.085
4450,-0.205,-0.105
4451,-0.195,-0.105
4452,-0.185,-0.095
4453,-0.195,-0.105
4454,-0.155,-0.095
4455,-0.155,-0.095
4456,-0.155,-0.095
4457,-0.155,-0.095
4458,-0.185,-0.095
4459,-0.175,-0.115
4460,-0.165,-0.105
4461,-0.165,-0.075
4462,-0.135,-0.085
4463,-0.155,-0.095
4464,-0.115,-0.065
4465,-0.065,-0.045
4466,-0.085,-0.095
4467,-0.075,-0.085
4468,0.015,-0.115
4469,-0.045,-0.125
4470,-0.125,-0.105
4471,-0.095,-0.125
4472,-0.125,-0.135
4473,-0.145,-0.105
4474,-0.175,-0.105
4475,-0.215,-0.125
4476,-0.195,-0.115
4477,-0.195,-0.125
4478,-0.195,-0.105
4479,-0.185,-0.115
4480,-0.175,-0.115
4481,-0.185,-0.115
4482,-0.175,-0.095
4483,-0.185,-0.045
4484,-0.265,0.185
4485,-0.655,0.245
4486,-0.605,-0.255
4487,0.705,-1.455
4488,2.065,-1.005
4489,2.775,-0.705
4490,2.495,-0.455
4491,0.685,-0.065
4492,-0.095,0.055
4493,-0.135,0.045
4494,-0.195,0.045
4495,-0.235,0.025
4496,-0.255,0.045
4497,-0.255,0.025
4498,-0.275,0.035
4499,-0.295,0.005
4500,-0.285,0.045
4501,-0.265,0.045
4502,-0.245,0.045
4503,-0.245,0.045
4504,-0.235,0.045
4505,-0.225,0.045
4506,-0.225,0.055
4507,-0.225,0.045
4508,-0.205,0.045
4509,-0.165,0.065
4510,-0.125,0.085
4511,-0.095,0.085
4512,-0.055,0.105
4513,-0.015,0.115
4514,0.025,0.105
4515,0.085,0.105
4516,0.165,0.115
4517,0.245,0.125
4518,0.315,0.125
4519,0.355,0.115
4520,0.395,0.125
4521,0.405,0.135
4522,0.365,0.115
4523,0.285,0.085
4524,0.195,0.075
4525,0.085,0.045
4526,0.005,0.025
4527,-0.085,-0.015
4528,-0.145,-0.035
4529,-0.175,-0.025
4530,-0.215,-0.035
4531,-0.235,-0.045
4532,-0.235,-0.025
4533,-0.225,-0.025
4534,-0.195,-0.035
4535,-0.205,-0.025
4536,-0.215,-0.025
4537,-0.215,-0.025
4538,-0.225,-0.025
4539,-0.245,-0.035
4540,-0.235,-0.035
4541,-0.225,-0.025
4542,-0.195,-0.035
4543,-0.205,-0.065
4544,-0.215,-0.045
4545,-0.225,-0.015
4546,-0.235,-0.065
4547,-0.255,-0.055
4548,-0.245,-0.055
4549,-0.215,-0.065
4550,-0.205,-0.075
4551,-0.225,-0.105
4552,-0.235,-0.095
4553,-0.245,-0.085
4554,-0.255,-0.095
4555,-0.275,-0.115
4556,-0.265,-0.105
4557,-0.255,-0.105
4558,-0.225,-0.085
4559,-0.235,-0.105
4560,-0.245,-0.125
4561,-0.245,-0.105
4562,-0.245,-0.105
4563,-0.265,-0.135
4564,-0.255,-0.135
4565,-0.245,-0.105
4566,-0.215,-0.115
4567,-0.215,-0.105
4568,-0.225,-0.115
4569,-0.225,-0.105
4570,-0.265,-0.135
4571,-0.235,-0.115
4572,-0.235,-0.105
4573,-0.225,-0.105
4574,-0.185,-0.105
4575,-0.205,-0.105
4576,-0.165,-0.065
4577,-0.125,-0.065
4578,-0.165,-0.105
4579,-0.095,-0.095
4580,-0.045,-0.145
4581,-0.135,-0.145
4582,-0.145,-0.105
4583,-0.125,-0.125
4584,-0.175,-0.155
4585,-0.215,-0.105
4586,-0.245,-0.135
4587,-0.255,-0.135
4588,-0.235,-0.145
4589,-0.245,-0.115
4590,-0.205,-0.125
4591,-0.215,-0.135
4592,-0.225,-0.105
4593,-0.225,-0.115
4594,-0.225,-0.125
4595,-0.235,0.045
4596,-0.575,0.145
4597,-0.755,0.135
4598,-0.045,-0.945
4599,1.585,-1.165
4600,2.565,-0.775
4601,2.825,-0.665
4602,1.315,-0.295
4603,-0.045,-0.065
4604,-0.185,0.015
4605,-0.195,0.015
4606,-0.235,0.005
4607,-0.275,-0.005
4608,-0.295,0.025
4609,-0.295,0.005
4610,-0.305,-0.005
4611,-0.335,-0.015
4612,-0.305,0.005
4613,-0.285,-0.005
4614,-0.275,0.005
4615,-0.265,-0.005
4616,-0.265,0.005
4617,-0.245,0.005
4618,-0.255,-0.005
4619,-0.235,0.005
4620,-0.215,0.005
4621,-0.185,0.025
4622,-0.145,0.025
4623,-0.105,0.005
4624,-0.075,0.025
4625,-0.015,0.045
4626,0.035,0.035
4627,0.095,0.005
4628,0.175,0.025
4629,0.225,0.035
4630,0.315,0.045
4631,0.365,0.025
4632,0.375,0.045
4633,0.375,0.075
4634,0.325,0.055
4635,0.235,0.045
4636,0.155,0.035
4637,0.055,-0.015
4638,-0.015,-0.035
4639,-0.095,-0.075
4640,-0.155,-0.105
4641,-0.185,-0.085
4642,-0.215,-0.085
4643,-0.225,-0.105
4644,-0.235,-0.095
4645,-0.215,-0.075
4646,-0.195,-0.065
4647,-0.195,-0.105
4648,-0.205,-0.075
4649,-0.205,-0.055
4650,-0.215,-0.065
4651,-0.205,-0.085
4652,-0.195,-0.095
4653,-0.205,-0.055
4654,-0.165,-0.055
4655,-0.165,-0.075
4656,-0.175,-0.085
4657,-0.195,-0.065
4658,-0.195,-0.095
4659,-0.205,-0.095
4660,-0.195,-0.105
4661,-0.195,-0.105
4662,-0.165,-0.105
4663,-0.185,-0.125
4664,-0.185,-0.115
4665,-0.185,-0.105
4666,-0.225,-0.145
4667,-0.245,-0.165
4668,-0.205,-0.145
4669,-0.205,-0.145
4670,-0.205,-0.125
4671,-0.185,-0.135
4672,-0.195,-0.145
4673,-0.205,-0.155
4674,-0.195,-0.145
4675,-0.225,-0.175
4676,-0.215,-0.165
4677,-0.205,-0.165
4678,-0.215,-0.155
4679,-0.195,-0.165
4680,-0.205,-0.165
4681,-0.195,-0.145
4682,-0.195,-0.145
4683,-0.205,-0.145
4684,-0.205,-0.165
4685,-0.155,-0.115
4686,-0.095,-0.085
4687,-0.095,-0.145
4688,-0.055,-0.145
4689,0.015,-0.175
4690,-0.055,-0.195
4691,-0.165,-0.195
4692,-0.145,-0.195
4693,-0.135,-0.205
4694,-0.165,-0.145
4695,-0.175,-0.185
4696,-0.175,-0.175
4697,-0.185,-0.165
4698,-0.205,-0.185
4699,-0.215,-0.175
4700,-0.205,-0.175
4701,-0.195,-0.175
4702,-0.175,-0.175
4703,-0.155,-0.165
4704,-0.215,0.095
4705,-0.605,0.205
4706,-0.585,-0.315
4707,0.775,-1.495
4708,2.185,-1.005
4709,2.755,-0.795
4710,2.445,-0.545
4711,0.625,-0.115
4712,-0.095,0.005
4713,-0.135,-0.005
4714,-0.215,-0.035
4715,-0.245,-0.025
4716,-0.255,-0.025
4717,-0.265,-0.025
4718,-0.235,-0.025
4719,-0.255,-0.025
4720,-0.255,-0.025
4721,-0.235,-0.005
4722,-0.255,-0.025
4723,-0.245,-0.045
4724,-0.225,-0.015
4725,-0.225,-0.025
4726,-0.175,-0.015
4727,-0.175,-0.005
4728,-0.155,-0.005
4729,-0.135,0.015
4730,-0.135,0.005
4731,-0.125,0.025
4732,-0.065,0.045
4733,-0.035,0.045
4734,0.055,0.085
4735,0.105,0.065
4736,0.155,0.065
4737,0.215,0.075
4738,0.255,0.055
4739,0.295,0.065
4740,0.355,0.085
4741,0.395,0.075
4742,0.405,0.075
4743,0.355,0.045
4744,0.285,0.025
4745,0.185,0.015
4746,0.085,-0.035
4747,-0.015,-0.075
4748,-0.085,-0.095
4749,-0.105,-0.095
4750,-0.105,-0.095
4751,-0.125,-0.105
4752,-0.145,-0.105
4753,-0.145,-0.115
4754,-0.155,-0.125
4755,-0.165,-0.095
4756,-0.155,-0.105
4757,-0.135,-0.075
4758,-0.125,-0.065
4759,-0.135,-0.095
4760,-0.135,-0.085
4761,-0.135,-0.055
4762,-0.155,-0.085
4763,-0.155,-0.085
4764,-0.135,-0.085
4765,-0.145,-0.095
4766,-0.125,-0.065
4767,-0.125,-0.075
4768,-0.145,-0.085
4769,-0.155,-0.085
4770,-0.165,-0.095
4771,-0.165,-0.105
4772,-0.165,-0.105
4773,-0.175,-0.105
4774,-0.145,-0.115
4775,-0.155,-0.115
4776,-0.175,-0.125
4777,-0.165,-0.115
4778,-0.205,-0.125
4779,-0.195,-0.125
4780,-0.195,-0.145
4781,-0.195,-0.145
4782,-0.165,-0.135
4783,-0.175,-0.145
4784,-0.185,-0.145
4785,-0.175,-0.125
4786,-0.205,-0.135
4787,-0.205,-0.145
4788,-0.195,-0.135
4789,-0.175,-0.145
4790,-0.155,-0.115
4791,-0.155,-0.135
4792,-0.155,-0.145
4793,-0.155,-0.145
4794,-0.165,-0.125
4795,-0.185,-0.135
4796,-0.175,-0.115
4797,-0.145,-0.135
4798,-0.125,-0.095
4799,-0.055,-0.075
4800,-0.075,-0.115
4801,-0.065,-0.105
4802,0.025,-0.135
4803,-0.025,-0.165
4804,-0.115,-0.155
4805,-0.105,-0.145
4806,-0.105,-0.175
4807,-0.115,-0.145
4808,-0.165,-0.145
4809,-0.155,-0.145
4810,-0.175,-0.165
4811,-0.185,-0.155
4812,-0.175,-0.135
4813,-0.165,-0.145
4814,-0.165,-0.115
4815,-0.145,-0.135
4816,-0.145,-0.115
4817,-0.125,-0.075
4818,-0.215,0.145
4819,-0.635,0.215
4820,-0.595,-0.315
4821,0.715,-1.455
4822,2.095,-0.975
4823,2.715,-0.735
4824,2.575,-0.535
4825,0.805,-0.065
4826,-0.035,0.055
4827,-0.135,0.035
4828,-0.195,-0.005
4829,-0.225,0.015
4830,-0.225,0.035
4831,-0.225,0.015
4832,-0.245,0.005
4833,-0.245,0.005
4834,-0.245,0.025
4835,-0.265,0.005
4836,-0.235,0.025
4837,-0.215,0.005
4838,-0.205,0.035
4839,-0.205,0.025
4840,-0.195,0.035
4841,-0.175,0.025
4842,-0.175,0.055
4843,-0.155,0.045
4844,-0.135,0.045
4845,-0.095,0.065
4846,-0.045,0.105
4847,-0.005,0.095
4848,0.065,0.125
4849,0.115,0.115
4850,0.165,0.105
4851,0.225,0.095
4852,0.295,0.085
4853,0.345,0.125
4854,0.405,0.125
4855,0.435,0.115
4856,0.395,0.085
4857,0.325,0.095
4858,0.235,0.045
4859,0.115,0.005
4860,0.005,-0.045
4861,-0.055,-0.045
4862,-0.085,-0.055
4863,-0.115,-0.075
4864,-0.145,-0.095
4865,-0.185,-0.075
4866,-0.195,-0.085
4867,-0.205,-0.115
4868,-0.195,-0.065
4869,-0.185,-0.075
4870,-0.165,-0.045
4871,-0.165,-0.075
4872,-0.175,-0.065
4873,-0.175,-0.045
4874,-0.195,-0.065
4875,-0.195,-0.075
4876,-0.185,-0.055
4877,-0.175,-0.075
4878,-0.165,-0.045
4879,-0.175,-0.075
4880,-0.195,-0.065
4881,-0.185,-0.065
4882,-0.205,-0.085
4883,-0.215,-0.095
4884,-0.205,-0.095
4885,-0.215,-0.085
4886,-0.195,-0.075
4887,-0.205,-0.105
4888,-0.225,-0.105
4889,-0.215,-0.085
4890,-0.235,-0.105
4891,-0.255,-0.135
4892,-0.225,-0.115
4893,-0.225,-0.105
4894,-0.215,-0.095
4895,-0.225,-0.095
4896,-0.225,-0.125
4897,-0.235,-0.085
4898,-0.235,-0.115
4899,-0.235,-0.135
4900,-0.245,-0.115
4901,-0.225,-0.105
4902,-0.215,-0.105
4903,-0.205,-0.105
4904,-0.225,-0.105
4905,-0.225,-0.075
4906,-0.235,-0.105
4907,-0.235,-0.115
4908,-0.225,-0.105
4909,-0.215,-0.095
4910,-0.175,-0.065
4911,-0.175,-0.115
4912,-0.165,-0.065
4913,-0.115,-0.025
4914,-0.135,-0.085
4915,-0.115,-0.085
4916,-0.005,-0.105
4917,-0.055,-0.125
4918,-0.125,-0.095
4919,-0.125,-0.135
4920,-0.155,-0.145
4921,-0.205,-0.105
4922,-0.225,-0.125
4923,-0.245,-0.125
4924,-0.215,-0.115
4925,-0.225,-0.115
4926,-0.185,-0.105
4927,-0.185,-0.115
4928,-0.205,-0.125
4929,-0.195,-0.095
4930,-0.205,-0.105
4931,-0.195,0.075
4932,-0.525,0.155
4933,-0.765,0.125
4934,-0.155,-0.905
4935,1.525,-1.165
4936,2.585,-0.715
4937,2.905,-0.645
4938,1.545,-0.325
4939,0.045,-0.055
4940,-0.195,0.035
4941,-0.195,0.045
4942,-0.245,0.035
4943,-0.265,0.005
4944,-0.305,0.005
4945,-0.335,0.025
4946,-0.335,0.025
4947,-0.345,0.005
4948,-0.315,0.015
4949,-0.305,0.005
4950,-0.275,0.025
4951,-0.265,0.005
4952,-0.285,0.025
4953,-0.275,0.045
4954,-0.265,0.025
4955,-0.255,0.025
4956,-0.225,0.045
4957,-0.195,0.055
4958,-0.145,0.075
4959,-0.125,0.055
4960,-0.095,0.075
4961,-0.045,0.085
4962,0.005,0.085
4963,0.055,0.065
4964,0.125,0.095
4965,0.195,0.085
4966,0.275,0.105
4967,0.305,0.095
4968,0.345,0.105
4969,0.365,0.105
4970,0.315,0.115
4971,0.245,0.085
4972,0.155,0.065
4973,0.055,0.045
4974,-0.005,0.005
4975,-0.105,-0.025
4976,-0.185,-0.035
4977,-0.205,-0.035
4978,-0.245,-0.045
4979,-0.255,-0.055
4980,-0.265,-0.035
4981,-0.245,-0.025
4982,-0.225,-0.045
4983,-0.245,-0.035
4984,-0.245,-0.045
4985,-0.235,-0.025
4986,-0.245,-0.045
4987,-0.255,-0.045
4988,-0.265,-0.035
4989,-0.235,-0.025
4990,-0.235,-0.025
4991,-0.225,-0.025
4992,-0.245,-0.035
4993,-0.245,-0.035
4994,-0.235,-0.025
4995,-0.275,-0.045
4996,-0.265,-0.075
4997,-0.265,-0.045
4998,-0.265,-0.045
4999,-0.245,-0.055
5000,-0.255,-0.065
5001,-0.255,-0.075
5002,-0.265,-0.075
5003,-0.295,-0.085
5004,-0.285,-0.085
5005,-0.275,-0.075
5006,-0.265,-0.065
5007,-0.265,-0.065
5008,-0.285,-0.095
5009,-0.265,-0.085
5010,-0.275,-0.085
5011,-0.295,-0.095
5012,-0.285,-0.095
5013,-0.275,-0.095
5014,-0.255,-0.095
5015,-0.255,-0.085
5016,-0.235,-0.085
5017,-0.255,-0.085
5018,-0.255,-0.065
5019,-0.235,-0.095
5020,-0.205,-0.045
5021,-0.155,-0.035
5022,-0.135,-0.055
5023,-0.125,-0.055
5024,-0.025,-0.085
5025,-0.075,-0.105
5026,-0.185,-0.105
5027,-0.175,-0.115
5028,-0.165,-0.145
5029,-0.215,-0.115
5030,-0.205,-0.095
5031,-0.215,-0.145
5032,-0.235,-0.135
5033,-0.235,-0.095
5034,-0.235,-0.125
5035,-0.235,-0.125
5036,-0.235,-0.115
5037,-0.235,-0.105
5038,-0.185,-0.085
5039,-0.175,-0.005
5040,-0.445,0.145
5041,-0.765,0.245
5042,-0.465,-0.525
5043,1.235,-1.335
5044,2.485,-0.785
5045,2.935,-0.695
5046,1.995,-0.395
5047,0.185,-0.055
5048,-0.185,0.065
5049,-0.185,0.035
5050,-0.255,0.025
5051,-0.305,0.005
5052,-0.305,0.025
5053,-0.295,0.005
5054,-0.275,0.025
5055,-0.275,0.025
5056,-0.285,0.025
5057,-0.275,0.015
5058,-0.285,0.005
5059,-0.285,0.005
5060,-0.265,-0.005
5061,-0.235,0.035
5062,-0.205,0.045
5063,-0.195,0.025
5064,-0.175,0.035
5065,-0.165,0.065
5066,-0.145,0.045
5067,-0.105,0.065
5068,-0.055,0.065
5069,0.005,0.095
5070,0.065,0.115
5071,0.125,0.085
5072,0.175,0.105
5073,0.245,0.115
5074,0.285,0.105
5075,0.325,0.105
5076,0.365,0.105
5077,0.395,0.125
5078,0.385,0.125
5079,0.315,0.105
5080,0.215,0.085
5081,0.105,0.075
5082,-0.015,0.025
5083,-0.095,-0.005
5084,-0.145,-0.015
5085,-0.155,-0.005
5086,-0.155,-0.015
5087,-0.165,-0.025
5088,-0.175,-0.035
5089,-0.185,-0.035
5090,-0.205,-0.035
5091,-0.195,-0.055
5092,-0.195,-0.045
5093,-0.195,-0.025
5094,-0.145,-0.015
5095,-0.165,-0.025
5096,-0.155,-0.025
5097,-0.155,-0.005
5098,-0.165,-0.025
5099,-0.175,-0.045
5100,-0.175,-0.035
5101,-0.155,-0.015
5102,-0.145,-0.035
5103,-0.145,-0.045
5104,-0.145,-0.055
5105,-0.155,-0.055
5106,-0.185,-0.065
5107,-0.185,-0.065
5108,-0.185,-0.085
5109,-0.175,-0.065
5110,-0.165,-0.085
5111,-0.155,-0.075
5112,-0.175,-0.075
5113,-0.185,-0.095
5114,-0.185,-0.095
5115,-0.195,-0.105
5116,-0.185,-0.105
5117,-0.175,-0.105
5118,-0.155,-0.075
5119,-0.155,-0.095
5120,-0.165,-0.085
5121,-0.155,-0.095
5122,-0.175,-0.105
5123,-0.175,-0.075
5124,-0.165,-0.085
5125,-0.155,-0.095
5126,-0.125,-0.065
5127,-0.105,-0.085
5128,-0.115,-0.065
5129,-0.045,-0.025
5130,-0.055,-0.055
5131,-0.075,-0.085
5132,0.035,-0.075
5133,0.065,-0.135
5134,0.015,-0.115
5135,-0.045,-0.115
5136,-0.045,-0.135
5137,-0.055,-0.135
5138,-0.145,-0.125
5139,-0.145,-0.165
5140,-0.155,-0.155
5141,-0.155,-0.135
5142,-0.125,-0.125
5143,-0.135,-0.125
5144,-0.145,-0.135
5145,-0.125,-0.115
5146,-0.145,-0.135
5147,-0.125,-0.135
5148,-0.125,0.105
5149,-0.485,0.205
5150,-0.575,0.075
5151,0.165,-1.135
5152,1.715,-1.355
5153,2.665,-0.785
5154,2.865,-0.655
5155,1.315,-0.205
5156,0.035,0.005
5157,-0.095,0.025
5158,-0.125,0.015
5159,-0.175,-0.025
5160,-0.205,-0.005
5161,-0.195,0.015
5162,-0.245,-0.005
5163,-0.235,-0.015
5164,-0.225,-0.005
5165,-0.215,0.015
5166,-0.185,0.025
5167,-0.185,-0.005
5168,-0.175,0.005
5169,-0.175,0.025
5170,-0.175,0.015
5171,-0.165,0.005
5172,-0.135,0.035
5173,-0.105,0.045
5174,-0.065,0.075
5175,-0.045,0.055
5176,-0.015,0.085
5177,0.015,0.095
5178,0.065,0.095
5179,0.125,0.085
5180,0.185,0.125
5181,0.265,0.135
5182,0.365,0.135
5183,0.405,0.105
5184,0.435,0.115
5185,0.465,0.125
5186,0.465,0.125
5187,0.425,0.085
5188,0.345,0.075
5189,0.245,0.035
5190,0.165,0.015
5191,0.055,-0.015
5192,-0.035,-0.045
5193,-0.075,-0.035
5194,-0.115,-0.055
5195,-0.135,-0.085
5196,-0.135,-0.085
5197,-0.145,-0.075
5198,-0.105,-0.075
5199,-0.105,-0.075
5200,-0.125,-0.095
5201,-0.115,-0.055
5202,-0.155,-0.075
5203,-0.145,-0.085
5204,-0.125,-0.065
5205,-0.135,-0.065
5206,-0.095,-0.055
5207,-0.115,-0.065
5208,-0.105,-0.065
5209,-0.095,-0.055
5210,-0.135,-0.065
5211,-0.145,-0.075
5212,-0.145,-0.085
5213,-0.145,-0.075
5214,-0.105,-0.075
5215,-0.125,-0.105
5216,-0.135,-0.085
5217,-0.135,-0.085
5218,-0.165,-0.105
5219,-0.165,-0.125
5220,-0.165,-0.115
5221,-0.165,-0.115
5222,-0.135,-0.105
5223,-0.145,-0.135
5224,-0.145,-0.135
5225,-0.135,-0.115
5226,-0.175,-0.135
5227,-0.155,-0.115
5228,-0.145,-0.125
5229,-0.155,-0.125
5230,-0.115,-0.105
5231,-0.125,-0.125
5232,-0.145,-0.145
5233,-0.135,-0.135
5234,-0.155,-0.115
5235,-0.155,-0.125
5236,-0.145,-0.135
5237,-0.135,-0.115
5238,-0.115,-0.115
5239,-0.115,-0.105
5240,-0.085,-0.115
5241,-0.105,-0.115
5242,-0.065,-0.075
5243,-0.045,-0.085
5244,-0.045,-0.115
5245,0.015,-0.095
5246,0.085,-0.115
5247,0.005,-0.155
5248,-0.085,-0.135
5249,-0.065,-0.125
5250,-0.105,-0.155
5251,-0.175,-0.135
5252,-0.155,-0.155
5253,-0.155,-0.155
5254,-0.155,-0.125
5255,-0.145,-0.145
5256,-0.145,-0.145
5257,-0.155,-0.125
5258,-0.165,-0.135
5259,-0.165,-0.135
5260,-0.145,-0.115
5261,-0.155,0.095
5262,-0.455,0.155
5263,-0.595,0.015
5264,0.145,-1.115
5265,1.565,-1.375
5266,2.495,-0.785
5267,2.785,-0.715
5268,1.575,-0.315
5269,0.165,-0.035
5270,-0.075,0.045
5271,-0.125,0.005
5272,-0.185,-0.015
5273,-0.235,0.005
5274,-0.255,-0.015
5275,-0.275,-0.035
5276,-0.265,-0.035
5277,-0.255,-0.025
5278,-0.225,0.005
5279,-0.215,-0.015
5280,-0.215,-0.015
5281,-0.205,0.015
5282,-0.215,0.005
5283,-0.205,0.005
5284,-0.185,0.005
5285,-0.185,-0.005
5286,-0.135,0.015
5287,-0.095,0.035
5288,-0.065,0.045
5289,-0.035,0.075
5290,-0.045,0.045
5291,0.045,0.055
5292,0.095,0.045
5293,0.115,0.085
5294,0.265,0.085
5295,0.245,0.045
5296,0.415,0.045
5297,0.365,0.095
5298,0.395,0.095
5299,0.365,0.085
5300,0.325,0.045
5301,0.275,0.045
5302,0.235,-0.005
5303,0.165,-0.045
5304,0.015,-0.025
5305,-0.095,-0.095
5306,-0.055,0.005
5307,-0.295,-0.075
5308,-0.255,-0.115
5309,-0.185,-0.085
5310,-0.215,-0.125
5311,-0.095,-0.135
5312,-0.225,-0.105
5313,-0.195,-0.095
5314,-0.285,-0.115
5315,-0.155,-0.105
5316,-0.245,-0.085
5317,-0.255,-0.105
5318,-0.155,-0.085
5319,-0.195,-0.115
5320,-0.205,-0.115
5321,-0.215,-0.115
5322,-0.225,-0.115
5323,-0.245,-0.105
5324,-0.225,-0.095
5325,-0.225,-0.105
5326,-0.225,-0.115
5327,-0.205,-0.145
5328,-0.235,-0.125
5329,-0.235,-0.125
5330,-0.265,-0.135
5331,-0.285,-0.155
5332,-0.245,-0.125
5333,-0.255,-0.155
5334,-0.225,-0.145
5335,-0.225,-0.155
5336,-0.215,-0.145
5337,-0.295,-0.115
5338,-0.305,-0.135
5339,-0.295,-0.155
5340,-0.225,-0.195
5341,-0.165,-0.145
5342,-0.195,-0.085
5343,-0.335,-0.095
5344,-0.315,-0.135
5345,-0.285,-0.155
5346,-0.275,-0.175
5347,-0.275,-0.155
5348,-0.285,-0.195
5349,-0.215,-0.175
5350,-0.165,-0.085
5351,-0.275,-0.165
5352,-0.235,-0.095
5353,-0.145,-0.105
5354,-0.175,-0.115
5355,-0.205,-0.095
5356,-0.095,-0.165
5357,-0.065,-0.195
5358,-0.065,-0.155
5359,-0.125,-0.185
5360,-0.165,-0.105
5361,-0.355,-0.125
5362,-0.345,-0.175
5363,-0.315,-0.145
5364,-0.275,-0.175
5365,-0.255,-0.165
5366,-0.225,-0.155
5367,-0.265,-0.195
5368,-0.255,-0.165
5369,-0.225,-0.145
5370,-0.255,-0.165
5371,-0.215,-0.155
5372,-0.365,0.065
5373,-0.785,0.155
5374,-0.635,-0.235
5375,0.885,-1.405
5376,2.265,-0.905
5377,2.885,-0.735
5378,1.915,-0.485
5379,0.155,-0.165
5380,-0.235,-0.055
5381,-0.255,-0.025
5382,-0.225,0.005
5383,-0.315,-0.035
5384,-0.355,-0.035
5385,-0.295,-0.005
5386,-0.365,-0.035
5387,-0.345,-0.005
5388,-0.335,-0.065
5389,-0.375,-0.005
5390,-0.285,0.005
5391,-0.355,-0.035
5392,-0.275,-0.025
5393,-0.305,-0.005
5394,-0.315,-0.035
5395,-0.295,-0.025
5396,-0.255,-0.015
5397,-0.255,-0.035
5398,-0.165,0.005
5399,-0.175,-0.045
5400,-0.125,0.015
5401,-0.095,0.025
5402,-0.065,0.005
5403,0.015,-0.015
5404,0.075,0.005
5405,0.135,-0.005
5406,0.245,0.015
5407,0.295,-0.005
5408,0.285,0.025
5409,0.355,0.025
5410,0.305,-0.045
5411,0.195,0.025
5412,0.225,0.035
5413,0.075,-0.005
5414,-0.035,-0.015
5415,-0.125,-0.055
5416,-0.175,-0.095
5417,-0.175,-0.055
5418,-0.285,-0.125
5419,-0.275,-0.085
5420,-0.275,-0.105
5421,-0.285,-0.085
5422,-0.265,-0.085
5423,-0.235,-0.115
5424,-0.275,-0.095
5425,-0.275,-0.045
5426,-0.295,-0.085
5427,-0.285,-0.115
5428,-0.265,-0.065
5429,-0.245,-0.075
5430,-0.235,-0.075
5431,-0.235,-0.075
5432,-0.225,-0.095
5433,-0.215,-0.085
5434,-0.255,-0.095
5435,-0.265,-0.115
5436,-0.245,-0.115
5437,-0.255,-0.085
5438,-0.215,-0.085
5439,-0.225,-0.115
5440,-0.235,-0.115
5441,-0.215,-0.115
5442,-0.255,-0.095
5443,-0.265,-0.115
5444,-0.235,-0.095
5445,-0.245,-0.115
5446,-0.215,-0.105
5447,-0.225,-0.115
5448,-0.225,-0.085
5449,-0.215,-0.095
5450,-0.255,-0.105
5451,-0.225,-0.125
5452,-0.225,-0.105
5453,-0.235,-0.095
5454,-0.195,-0.075
5455,-0.195,-0.095
5456,-0.155,-0.045
5457,-0.105,-0.025
5458,-0.145,-0.065
5459,-0.115,-0.075
5460,-0.025,-0.085
5461,-0.075,-0.125
5462,-0.115,-0.105
5463,-0.105,-0.115
5464,-0.135,-0.135
5465,-0.165,-0.125
5466,-0.205,-0.105
5467,-0.235,-0.155
5468,-0.205,-0.115
5469,-0.205,-0.125
5470,-0.175,-0.115
5471,-0.185,-0.125
5472,-0.195,-0.115
5473,-0.175,-0.115
5474,-0.205,-0.115
5475,-0.175,-0.115
5476,-0.185,0.115
5477,-0.575,0.225
5478,-0.645,0.105
5479,0.195,-1.105
5480,1.785,-1.165
5481,2.635,-0.775
5482,2.655,-0.625
5483,0.935,-0.205
5484,-0.075,0.015
5485,-0.125,0.065
5486,-0.145,0.045
5487,-0.185,0.005
5488,-0.215,0.015
5489,-0.235,0.025
5490,-0.255,0.005
5491,-0.255,0.015
5492,-0.245,0.015
5493,-0.215,0.025
5494,-0.205,0.035
5495,-0.195,0.015
5496,-0.185,0.015
5497,-0.185,0.025
5498,-0.185,0.015
5499,-0.175,0.005
5500,-0.135,0.045
5501,-0.105,0.045
5502,-0.045,0.075
5503,-0.035,0.055
5504,-0.015,0.065
5505,0.025,0.095
5506,0.085,0.105
5507,0.135,0.075
5508,0.205,0.095
5509,0.265,0.105
5510,0.375,0.115
5511,0.415,0.115
5512,0.465,0.105
5513,0.475,0.125
5514,0.415,0.115
5515,0.395,0.095
5516,0.315,0.085
5517,0.235,0.065
5518,0.145,0.035
5519,0.045,0.015
5520,-0.035,-0.005
5521,-0.075,-0.025
5522,-0.125,-0.045
5523,-0.125,-0.055
5524,-0.125,-0.045
5525,-0.125,-0.065
5526,-0.115,-0.035
5527,-0.125,-0.045
5528,-0.095,-0.035
5529,-0.105,-0.025
5530,-0.145,-0.015
5531,-0.125,-0.025
5532,-0.115,-0.015
5533,-0.125,-0.005
5534,-0.085,-0.015
5535,-0.095,-0.035
5536,-0.105,-0.005
5537,-0.095,-0.015
5538,-0.135,-0.025
5539,-0.125,-0.035
5540,-0.135,-0.035
5541,-0.135,-0.035
5542,-0.115,-0.015
5543,-0.115,-0.025
5544,-0.115,-0.015
5545,-0.115,0.005
5546,-0.145,-0.015
5547,-0.145,-0.005
5548,-0.165,-0.025
5549,-0.145,0.005
5550,-0.125,0.015
5551,-0.135,0.005
5552,-0.145,0.025
5553,-0.135,-0.005
5554,-0.155,-0.005
5555,-0.165,0.025
5556,-0.155,0.025
5557,-0.155,0.035
5558,-0.125,0.055
5559,-0.135,0.015
5560,-0.155,0.045
5561,-0.115,0.075
5562,-0.145,0.055
5563,-0.105,0.075
5564,-0.065,0.065
5565,-0.075,0.055
5566,0.015,0.085
5567,0.065,0.065
5568,0.015,0.065
5569,-0.065,0.065
5570,-0.085,0.035
5571,-0.085,0.045
5572,-0.115,0.055
5573,-0.135,0.065
5574,-0.125,0.065
5575,-0.145,0.025
5576,-0.145,0.055
5577,-0.145,0.065
5578,-0.155,0.055
5579,-0.175,0.065
5580,-0.155,0.015
5581,-0.145,0.015
5582,-0.115,0.015
5583,-0.115,0.065
5584,-0.405,0.155
5585,-0.645,0.145
5586,0.155,-0.445
5587,1.785,-0.695
5588,2.695,-0.455
5589,2.595,-0.345
5590,0.945,-0.095
5591,-0.005,0.015
5592,-0.065,0.055
5593,-0.115,0.065
5594,-0.175,0.055
5595,-0.235,0.035
5596,-0.235,0.035
5597,-0.225,0.045
5598,-0.215,0.055
5599,-0.205,0.035
5600,-0.215,0.035
5601,-0.215,0.045
5602,-0.225,0.035
5603,-0.215,0.025
5604,-0.185,0.035
5605,-0.175,0.055
5606,-0.145,0.055
5607,-0.125,0.035
5608,-0.125,0.055
5609,-0.075,0.075
5610,-0.065,0.085
5611,-0.015,0.075
5612,0.025,0.095
5613,0.075,0.095
5614,0.165,0.105
5615,0.225,0.105
5616,0.265,0.095
5617,0.335,0.105
5618,0.355,0.115
5619,0.415,0.105
5620,0.435,0.115
5621,0.425,0.115
5622,0.425,0.105
5623,0.345,0.065
5624,0.245,0.025
5625,0.125,0.045
5626,0.015,-0.015
5627,-0.055,-0.065
5628,-0.085,-0.055
5629,-0.125,-0.065
5630,-0.095,-0.035
5631,-0.115,-0.065
5632,-0.115,-0.075
5633,-0.105,-0.075
5634,-0.125,-0.085
5635,-0.135,-0.075
5636,-0.125,-0.075
5637,-0.125,-0.075
5638,-0.085,-0.065
5639,-0.095,-0.065
5640,-0.115,-0.065
5641,-0.095,-0.045
5642,-0.125,-0.055
5643,-0.115,-0.065
5644,-0.115,-0.085
5645,-0.125,-0.065
5646,-0.085,-0.065
5647,-0.095,-0.085
5648,-0.105,-0.075
5649,-0.115,-0.075
5650,-0.135,-0.105
5651,-0.155,-0.105
5652,-0.145,-0.115
5653,-0.155,-0.115
5654,-0.125,-0.095
5655,-0.135,-0.125
5656,-0.155,-0.135
5657,-0.155,-0.115
5658,-0.175,-0.125
5659,-0.175,-0.135
5660,-0.165,-0.125
5661,-0.155,-0.135
5662,-0.125,-0.125
5663,-0.135,-0.145
5664,-0.145,-0.135
5665,-0.125,-0.125
5666,-0.145,-0.155
5667,-0.165,-0.155
5668,-0.155,-0.145
5669,-0.145,-0.145
5670,-0.135,-0.155
5671,-0.135,-0.145
5672,-0.125,-0.135
5673,-0.135,-0.115
5674,-0.135,-0.145
5675,-0.155,-0.135
5676,-0.125,-0.125
5677,-0.115,-0.125
5678,-0.105,-0.105
5679,-0.065,-0.095
5680,-0.045,-0.125
5681,-0.055,-0.105
5682,0.025,-0.165
5683,-0.005,-0.185
5684,-0.085,-0.175
5685,-0.095,-0.165
5686,-0.055,-0.175
5687,-0.095,-0.155
5688,-0.145,-0.135
5689,-0.155,-0.165
5690,-0.185,-0.175
5691,-0.195,-0.155
5692,-0.165,-0.165
5693,-0.175,-0.165
5694,-0.135,-0.155
5695,-0.155,-0.165
5696,-0.155,-0.165
5697,-0.135,-0.155
5698,-0.155,0.035
5699,-0.495,0.135
5700,-0.675,-0.035
5701,0.205,-1.275
5702,1.765,-1.245
5703,2.605,-0.785
5704,2.695,-0.685
5705,1.275,-0.265
5706,0.045,-0.055
5707,-0.135,-0.035
5708,-0.175,-0.025
5709,-0.225,-0.025
5710,-0.235,-0.015
5711,-0.245,-0.035
5712,-0.265,-0.045
5713,-0.285,-0.025
5714,-0.275,-0.035
5715,-0.285,-0.045
5716,-0.285,-0.035
5717,-0.275,-0.025
5718,-0.245,-0.015
5719,-0.235,-0.035
5720,-0.235,-0.015
5721,-0.235,0.005
5722,-0.225,-0.015
5723,-0.225,-0.025
5724,-0.195,0.005
5725,-0.155,0.005
5726,-0.095,0.025
5727,-0.055,0.025
5728,-0.005,0.035
5729,0.055,0.055
5730,0.105,0.045
5731,0.145,0.025
5732,0.215,0.035
5733,0.275,0.055
5734,0.355,0.065
5735,0.375,0.045
5736,0.365,0.055
5737,0.325,0.055
5738,0.225,0.025
5739,0.135,-0.025
5740,0.045,-0.045
5741,-0.065,-0.075
5742,-0.105,-0.085
5743,-0.155,-0.105
5744,-0.195,-0.135
5745,-0.225,-0.125
5746,-0.255,-0.135
5747,-0.265,-0.135
5748,-0.245,-0.125
5749,-0.245,-0.145
5750,-0.205,-0.135
5751,-0.215,-0.135
5752,-0.225,-0.135
5753,-0.225,-0.125
5754,-0.245,-0.145
5755,-0.245,-0.135
5756,-0.235,-0.135
5757,-0.225,-0.145
5758,-0.205,-0.125
5759,-0.195,-0.155
5760,-0.205,-0.145
5761,-0.205,-0.145
5762,-0.235,-0.130
5763,-0.225,-0.150
5764,-0.225,-0.160
5765,-0.215,-0.170
5766,-0.185,-0.150
5767,-0.195,-0.190
5768,-0.195,-0.170
5769,-0.195,-0.180
5770,-0.205,-0.190
5771,-0.205,-0.210
5772,-0.195,-0.170
5773,-0.185,-0.190
5774,-0.155,-0.170
5775,-0.155,-0.180
5776,-0.145,-0.190
5777,-0.135,-0.180
5778,-0.135,-0.210
5779,-0.125,-0.200
5780,-0.115,-0.200
5781,-0.105,-0.200
5782,-0.085,-0.190
5783,-0.085,-0.190
5784,-0.075,-0.220
5785,-0.075,-0.190
5786,-0.065,-0.210
5787,-0.075,-0.220
5788,-0.065,-0.180
5789,-0.045,-0.210
5790,-0.035,-0.180
5791,-0.035,-0.160
5792,-0.015,-0.170
5793,-0.015,-0.170
5794,-0.005,-0.185
5795,0.025,-0.205
5796,0.005,-0.235
5797,-0.025,-0.195
5798,-0.005,-0.195
5799,-0.015,-0.235
5800,-0.025,-0.205
5801,-0.025,-0.205
5802,-0.035,-0.215
5803,-0.035,-0.215
5804,-0.025,-0.205
5805,-0.025,-0.195
5806,-0.025,-0.185
5807,-0.015,-0.185
5808,-0.015,-0.195
5809,-0.025,-0.195
5810,-0.015,-0.065
5811,-0.075,0.055
5812,-0.175,0.045
5813,-0.115,-0.985
5814,0.395,-1.155
5815,0.795,-0.835
5816,0.915,-0.695
5817,0.505,-0.345
5818,0.085,-0.115
5819,-0.005,-0.055
5820,-0.025,-0.065
5821,-0.055,-0.095
5822,-0.065,-0.055
5823,-0.075,-0.085
5824,-0.085,-0.075
5825,-0.095,-0.075
5826,-0.105,-0.045
5827,-0.105,-0.065
5828,-0.115,-0.055
5829,-0.105,-0.065
5830,-0.105,-0.045
5831,-0.105,-0.065
5832,-0.115,-0.035
5833,-0.105,-0.015
5834,-0.115,-0.055
5835,-0.115,-0.045
5836,-0.115,-0.025
5837,-0.095,0.005
5838,-0.075,0.015
5839,-0.055,0.005
5840,-0.045,0.005
5841,-0.015,0.005
5842,0.015,0.005
5843,0.035,-0.005
5844,0.105,-0.005
5845,0.155,0.015
5846,0.185,0.025
5847,0.235,0.025
5848,0.275,0.025
5849,0.295,0.025
5850,0.255,0.025
5851,0.175,-0.015
5852,0.095,-0.035
5853,0.025,-0.025
5854,-0.055,-0.055
5855,-0.105,-0.075
5856,-0.175,-0.105
5857,-0.195,-0.085
5858,-0.215,-0.095
5859,-0.255,-0.115
5860,-0.255,-0.105
5861,-0.255,-0.095
5862,-0.265,-0.105
5863,-0.235,-0.095
5864,-0.235,-0.105
5865,-0.235,-0.105
5866,-0.235,-0.075
5867,-0.235,-0.095
5868,-0.245,-0.115
5869,-0.235,-0.095
5870,-0.205,-0.085
5871,-0.205,-0.115
5872,-0.205,-0.115
5873,-0.215,-0.115
5874,-0.215,-0.085
5875,-0.225,-0.135
5876,-0.235,-0.125
5877,-0.225,-0.145
5878,-0.215,-0.115
5879,-0.195,-0.115
5880,-0.215,-0.125
5881,-0.225,-0.155
5882,-0.225,-0.115
5883,-0.235,-0.145
5884,-0.235,-0.145
5885,-0.245,-0.135
5886,-0.235,-0.135
5887,-0.205,-0.135
5888,-0.215,-0.145
5889,-0.225,-0.135
5890,-0.215,-0.145
5891,-0.265,-0.135
5892,-0.235,-0.135
5893,-0.245,-0.155
5894,-0.225,-0.135
5895,-0.205,-0.105
5896,-0.185,-0.105
5897,-0.185,-0.155
5898,-0.175,-0.085
5899,-0.155,-0.065
5900,-0.125,-0.085
5901,-0.135,-0.105
5902,-0.045,-0.115
5903,-0.025,-0.165
5904,-0.135,-0.145
5905,-0.135,-0.145
5906,-0.145,-0.175
5907,-0.225,-0.155
5908,-0.215,-0.175
5909,-0.225,-0.185
5910,-0.225,-0.135
5911,-0.205,-0.155
5912,-0.215,-0.155
5913,-0.225,-0.135
5914,-0.215,-0.155
5915,-0.225,-0.145
5916,-0.195,-0.135
5917,-0.185,0.045
5918,-0.505,0.185
5919,-0.715,0.045
5920,-0.015,-1.175
5921,1.515,-1.285
5922,2.565,-0.845
5923,2.795,-0.725
5924,1.325,-0.245
5925,0.015,-0.035
5926,-0.125,0.015
5927,-0.175,-0.015
5928,-0.235,-0.015
5929,-0.255,-0.005
5930,-0.285,-0.015
5931,-0.295,-0.035
5932,-0.285,-0.025
5933,-0.285,-0.005
5934,-0.245,0.005
5935,-0.245,-0.005
5936,-0.235,-0.005
5937,-0.235,0.015
5938,-0.245,-0.005
5939,-0.245,0.005
5940,-0.225,0.005
5941,-0.205,0.005
5942,-0.145,0.035
5943,-0.135,0.015
5944,-0.105,0.045
5945,-0.085,0.065
5946,-0.045,0.065
5947,-0.005,0.065
5948,0.055,0.065
5949,0.105,0.095
5950,0.205,0.105
5951,0.265,0.085
5952,0.315,0.095
5953,0.345,0.105
5954,0.375,0.105
5955,0.395,0.085
5956,0.375,0.085
5957,0.325,0.085
5958,0.265,0.055
5959,0.155,0.015
5960,0.035,-0.015
5961,-0.035,-0.015
5962,-0.115,-0.055
5963,-0.165,-0.065
5964,-0.175,-0.055
5965,-0.175,-0.055
5966,-0.175,-0.055
5967,-0.165,-0.065
5968,-0.175,-0.055
5969,-0.175,-0.035
5970,-0.185,-0.055
5971,-0.195,-0.065
5972,-0.175,-0.035
5973,-0.165,-0.045
5974,-0.145,-0.025
5975,-0.135,-0.065
5976,-0.155,-0.055
5977,-0.145,-0.045
5978,-0.155,-0.065
5979,-0.185,-0.075
5980,-0.175,-0.045
5981,-0.165,-0.055
5982,-0.145,-0.065
5983,-0.155,-0.065
5984,-0.165,-0.085
5985,-0.175,-0.075
5986,-0.185,-0.095
5987,-0.205,-0.105
5988,-0.185,-0.085
5989,-0.185,-0.105
5990,-0.175,-0.095
5991,-0.175,-0.105
5992,-0.195,-0.095
5993,-0.195,-0.085
5994,-0.195,-0.095
5995,-0.195,-0.095
5996,-0.205,-0.115
5997,-0.185,-0.095
5998,-0.175,-0.095
5999,-0.175,-0.105
6000,-0.185,-0.125
6001,-0.175,-0.095
6002,-0.175,-0.115
6003,-0.195,-0.135
6004,-0.185,-0.105
6005,-0.165,-0.095
6006,-0.165,-0.075
6007,-0.135,-0.125
6008,-0.125,-0.075
6009,-0.065,-0.065
6010,-0.075,-0.085
6011,-0.095,-0.095
6012,0.005,-0.115
6013,0.005,-0.125
6014,-0.095,-0.135
6015,-0.095,-0.125
6016,-0.085,-0.145
6017,-0.115,-0.135
6018,-0.145,-0.125
6019,-0.195,-0.145
6020,-0.195,-0.135
6021,-0.175,-0.115
6022,-0.175,-0.115
6023,-0.165,-0.135
6024,-0.185,-0.155
6025,-0.165,-0.105
6026,-0.155,-0.125
6027,-0.165,-0.075
6028,-0.245,0.165
6029,-0.625,0.235
6030,-0.595,-0.495
6031,0.805,-1.545
6032,2.165,-0.955
6033,2.775,-0.735
6034,2.355,-0.385
6035,0.585,-0.065
6036,-0.075,0.045
6037,-0.115,0.045
6038,-0.175,0.015
6039,-0.215,0.015
6040,-0.235,0.015
6041,-0.245,0.005
6042,-0.255,0.015
6043,-0.275,-0.015
6044,-0.275,0.005
6045,-0.245,0.015
6046,-0.235,0.025
6047,-0.225,0.015
6048,-0.225,0.025
6049,-0.215,0.025
6050,-0.215,0.015
6051,-0.225,0.025
6052,-0.185,0.055
6053,-0.155,0.075
6054,-0.125,0.085
6055,-0.085,0.065
6056,-0.055,0.095
6057,-0.025,0.105
6058,0.025,0.105
6059,0.055,0.105
6060,0.145,0.115
6061,0.225,0.115
6062,0.295,0.135
6063,0.355,0.135
6064,0.385,0.145
6065,0.395,0.135
6066,0.405,0.135
6067,0.335,0.085
6068,0.265,0.065
6069,0.185,0.065
6070,0.085,0.015
6071,0.005,-0.015
6072,-0.065,-0.055
6073,-0.135,-0.055
6074,-0.165,-0.085
6075,-0.195,-0.065
6076,-0.195,-0.075
6077,-0.185,-0.065
6078,-0.195,-0.065
6079,-0.175,-0.065
6080,-0.185,-0.075
6081,-0.185,-0.065
6082,-0.165,-0.085
6083,-0.205,-0.085
6084,-0.205,-0.065
6085,-0.185,-0.045
6086,-0.195,-0.055
6087,-0.165,-0.065
6088,-0.175,-0.075
6089,-0.185,-0.055
6090,-0.185,-0.055
6091,-0.225,-0.095
6092,-0.225,-0.085
6093,-0.205,-0.075
6094,-0.205,-0.065
6095,-0.205,-0.085
6096,-0.215,-0.095
6097,-0.225,-0.105
6098,-0.225,-0.085
6099,-0.255,-0.105
6100,-0.245,-0.115
6101,-0.235,-0.105
6102,-0.235,-0.095
6103,-0.235,-0.115
6104,-0.235,-0.125
6105,-0.255,-0.115
6106,-0.255,-0.125
6107,-0.285,-0.125
6108,-0.255,-0.115
6109,-0.245,-0.125
6110,-0.225,-0.125
6111,-0.235,-0.125
6112,-0.245,-0.125
6113,-0.235,-0.125
6114,-0.245,-0.115
6115,-0.255,-0.145
6116,-0.245,-0.135
6117,-0.245,-0.135
6118,-0.225,-0.095
6119,-0.205,-0.115
6120,-0.205,-0.115
6121,-0.205,-0.125
6122,-0.215,-0.095
6123,-0.175,-0.075
6124,-0.145,-0.095
6125,-0.145,-0.105
6126,-0.025,-0.115
6127,-0.025,-0.155
6128,-0.125,-0.155
6129,-0.155,-0.135
6130,-0.155,-0.165
6131,-0.185,-0.155
6132,-0.235,-0.145
6133,-0.235,-0.165
6134,-0.225,-0.145
6135,-0.225,-0.145
6136,-0.235,-0.145
6137,-0.225,-0.145
6138,-0.225,-0.145
6139,-0.265,-0.155
6140,-0.255,-0.145
6141,-0.215,-0.125
6142,-0.225,0.105
6143,-0.575,0.145
6144,-0.755,-0.125
6145,0.125,-1.295
6146,1.615,-1.115
6147,2.515,-0.775
6148,2.755,-0.665
6149,1.245,-0.245
6150,-0.035,-0.045
6151,-0.165,-0.015
6152,-0.215,-0.015
6153,-0.275,-0.015
6154,-0.315,-0.035
6155,-0.335,-0.025
6156,-0.325,-0.025
6157,-0.325,-0.025
6158,-0.315,-0.005
6159,-0.295,-0.025
6160,-0.315,-0.025
6161,-0.295,-0.015
6162,-0.285,-0.025
6163,-0.315,-0.045
6164,-0.285,-0.015
6165,-0.265,-0.005
6166,-0.235,0.005
6167,-0.225,0.005
6168,-0.185,0.015
6169,-0.155,0.015
6170,-0.115,0.025
6171,-0.125,0.025
6172,-0.055,0.045
6173,0.015,0.045
6174,0.065,0.055
6175,0.155,0.045
6176,0.215,0.055
6177,0.275,0.055
6178,0.325,0.055
6179,0.335,0.055
6180,0.345,0.055
6181,0.345,0.065
6182,0.275,0.045
6183,0.205,0.015
6184,0.075,-0.015
6185,-0.035,-0.025
6186,-0.125,-0.055
6187,-0.205,-0.105
6188,-0.225,-0.115
6189,-0.235,-0.095
6190,-0.235,-0.075
6191,-0.235,-0.105
6192,-0.245,-0.105
6193,-0.235,-0.105
6194,-0.255,-0.085
6195,-0.275,-0.095
6196,-0.265,-0.085
6197,-0.255,-0.095
6198,-0.225,-0.065
6199,-0.215,-0.085
6200,-0.225,-0.105
6201,-0.225,-0.085
6202,-0.215,-0.115
6203,-0.255,-0.105
6204,-0.245,-0.105
6205,-0.235,-0.105
6206,-0.235,-0.085
6207,-0.225,-0.115
6208,-0.245,-0.115
6209,-0.255,-0.085
6210,-0.265,-0.135
6211,-0.255,-0.125
6212,-0.265,-0.135
6213,-0.255,-0.155
6214,-0.245,-0.135
6215,-0.225,-0.135
6216,-0.265,-0.135
6217,-0.255,-0.125
6218,-0.265,-0.125
6219,-0.265,-0.145
6220,-0.265,-0.135
6221,-0.245,-0.125
6222,-0.225,-0.115
6223,-0.235,-0.135
6224,-0.245,-0.135
6225,-0.245,-0.115
6226,-0.255,-0.115
6227,-0.255,-0.135
6228,-0.255,-0.135
6229,-0.245,-0.115
6230,-0.205,-0.095
6231,-0.195,-0.115
6232,-0.195,-0.065
6233,-0.145,-0.065
6234,-0.165,-0.105
6235,-0.125,-0.085
6236,-0.025,-0.145
6237,-0.085,-0.165
6238,-0.135,-0.135
6239,-0.135,-0.135
6240,-0.145,-0.175
6241,-0.205,-0.145
6242,-0.225,-0.145
6243,-0.265,-0.155
6244,-0.245,-0.155
6245,-0.235,-0.145
6246,-0.215,-0.125
6247,-0.215,-0.135
6248,-0.225,-0.145
6249,-0.215,-0.145
6250,-0.225,-0.135
6251,-0.195,-0.085
6252,-0.315,0.105
6253,-0.745,0.175
6254,-0.675,-0.415
6255,0.885,-1.405
6256,2.305,-0.875
6257,2.875,-0.725
6258,2.355,-0.515
6259,0.485,-0.145
6260,-0.185,-0.025
6261,-0.175,-0.005
6262,-0.195,-0.005
6263,-0.235,-0.025
6264,-0.255,-0.015
6265,-0.275,-0.015
6266,-0.275,-0.005
6267,-0.305,-0.015
6268,-0.295,-0.005
6269,-0.285,-0.005
6270,-0.255,0.005
6271,-0.235,-0.015
6272,-0.235,-0.025
6273,-0.215,0.005
6274,-0.215,-0.015
6275,-0.215,-0.015
6276,-0.195,-0.005
6277,-0.155,0.025
6278,-0.105,0.035
6279,-0.075,0.025
6280,-0.055,0.045
6281,-0.025,0.075
6282,0.025,0.065
6283,0.075,0.055
6284,0.165,0.065
6285,0.235,0.065
6286,0.315,0.085
6287,0.355,0.075
6288,0.395,0.085
6289,0.435,0.095
6290,0.405,0.095
6291,0.345,0.085
6292,0.285,0.095
6293,0.185,0.065
6294,0.105,0.015
6295,0.015,-0.005
6296,-0.055,-0.015
6297,-0.115,-0.035
6298,-0.155,-0.065
6299,-0.185,-0.065
6300,-0.165,-0.065
6301,-0.165,-0.055
6302,-0.145,-0.055
6303,-0.155,-0.075
6304,-0.155,-0.045
6305,-0.165,-0.025
6306,-0.175,-0.055
6307,-0.185,-0.055
6308,-0.165,-0.035
6309,-0.165,-0.045
6310,-0.145,-0.045
6311,-0.135,-0.045
6312,-0.135,-0.045
6313,-0.135,-0.035
6314,-0.135,-0.045
6315,-0.175,-0.055
6316,-0.145,-0.045
6317,-0.135,-0.045
6318,-0.135,-0.055
6319,-0.135,-0.075
6320,-0.145,-0.055
6321,-0.145,-0.055
6322,-0.155,-0.065
6323,-0.195,-0.085
6324,-0.165,-0.065
6325,-0.145,-0.065
6326,-0.145,-0.055
6327,-0.145,-0.075
6328,-0.145,-0.085
6329,-0.155,-0.075
6330,-0.155,-0.085
6331,-0.165,-0.095
6332,-0.155,-0.085
6333,-0.135,-0.085
6334,-0.135,-0.085
6335,-0.125,-0.075
6336,-0.135,-0.075
6337,-0.135,-0.055
6338,-0.155,-0.085
6339,-0.165,-0.075
6340,-0.145,-0.085
6341,-0.135,-0.085
6342,-0.105,-0.045
6343,-0.105,-0.075
6344,-0.105,-0.055
6345,-0.055,-0.005
6346,-0.055,-0.035
6347,-0.055,-0.045
6348,0.065,-0.065
6349,0.045,-0.085
6350,-0.035,-0.085
6351,-0.045,-0.075
6352,-0.065,-0.105
6353,-0.105,-0.085
6354,-0.145,-0.065
6355,-0.165,-0.095
6356,-0.155,-0.105
6357,-0.135,-0.075
6358,-0.115,-0.075
6359,-0.125,-0.075
6360,-0.135,-0.075
6361,-0.125,-0.085
6362,-0.115,-0.065
6363,-0.145,-0.085
6364,-0.115,0.085
6365,-0.415,0.215
6366,-0.675,0.105
6367,-0.005,-1.095
6368,1.655,-1.315
6369,2.695,-0.765
6370,2.895,-0.585
6371,1.145,-0.125
6372,-0.025,0.045
6373,-0.065,0.075
6374,-0.095,0.065
6375,-0.155,0.045
6376,-0.195,0.055
6377,-0.205,0.045
6378,-0.215,0.045
6379,-0.225,0.035
6380,-0.205,0.035
6381,-0.205,0.055
6382,-0.175,0.065
6383,-0.165,0.035
6384,-0.175,0.045
6385,-0.165,0.065
6386,-0.165,0.055
6387,-0.155,0.055
6388,-0.135,0.075
6389,-0.105,0.075
6390,-0.065,0.105
6391,-0.035,0.105
6392,-0.015,0.115
6393,0.025,0.125
6394,0.065,0.125
6395,0.125,0.105
6396,0.195,0.155
6397,0.275,0.145
6398,0.325,0.155
6399,0.385,0.155
6400,0.435,0.155
6401,0.455,0.155
6402,0.455,0.145
6403,0.405,0.115
6404,0.345,0.095
6405,0.245,0.075
6406,0.145,0.035
6407,0.055,-0.005
6408,-0.025,-0.015
6409,-0.075,-0.005
6410,-0.115,-0.045
6411,-0.135,-0.055
6412,-0.145,-0.055
6413,-0.135,-0.055
6414,-0.115,-0.055
6415,-0.115,-0.045
6416,-0.125,-0.045
6417,-0.125,-0.025
6418,-0.145,-0.035
6419,-0.135,-0.045
6420,-0.135,-0.035
6421,-0.125,-0.035
6422,-0.105,-0.035
6423,-0.115,-0.045
6424,-0.125,-0.025
6425,-0.115,-0.025
6426,-0.125,-0.035
6427,-0.145,-0.055
6428,-0.135,-0.055
6429,-0.125,-0.035
6430,-0.105,-0.075
6431,-0.125,-0.075
6432,-0.125,-0.065
6433,-0.135,-0.065
6434,-0.155,-0.065
6435,-0.135,-0.095
6436,-0.155,-0.105
6437,-0.145,-0.095
6438,-0.135,-0.085
6439,-0.135,-0.105
6440,-0.155,-0.115
6441,-0.155,-0.115
6442,-0.175,-0.115
6443,-0.185,-0.115
6444,-0.175,-0.095
6445,-0.155,-0.105
6446,-0.165,-0.095
6447,-0.155,-0.135
6448,-0.155,-0.125
6449,-0.165,-0.115
6450,-0.185,-0.105
6451,-0.195,-0.125
6452,-0.185,-0.115
6453,-0.165,-0.105
6454,-0.155,-0.105
6455,-0.145,-0.115
6456,-0.155,-0.115
6457,-0.135,-0.115
6458,-0.155,-0.115
6459,-0.185,-0.115
6460,-0.165,-0.095
6461,-0.145,-0.125
6462,-0.125,-0.095
6463,-0.095,-0.075
6464,-0.055,-0.075
6465,-0.065,-0.085
6466,0.005,-0.115
6467,0.015,-0.145
6468,-0.075,-0.155
6469,-0.115,-0.125
6470,-0.105,-0.125
6471,-0.095,-0.125
6472,-0.165,-0.105
6473,-0.165,-0.125
6474,-0.185,-0.135
6475,-0.185,-0.125
6476,-0.175,-0.135
6477,-0.175,-0.135
6478,-0.175,-0.115
6479,-0.135,-0.125
6480,-0.165,-0.125
6481,-0.135,-0.125
6482,-0.145,0.085
6483,-0.505,0.155
6484,-0.655,0.015
6485,0.125,-1.235
6486,1.605,-1.095
6487,2.415,-0.725
6488,2.475,-0.595
6489,1.005,-0.135
6490,0.075,0.015
6491,-0.055,0.025
6492,-0.115,-0.005
6493,-0.175,0.005
6494,-0.175,0.005
6495,-0.195,0.005
6496,-0.195,-0.005
6497,-0.205,0.025
6498,-0.205,0.005
6499,-0.215,0.015
6500,-0.195,0.015
6501,-0.185,-0.005
6502,-0.165,0.035
6503,-0.145,0.015
6504,-0.145,0.015
6505,-0.145,0.045
6506,-0.135,0.035
6507,-0.125,0.055
6508,-0.105,0.065
6509,-0.075,0.055
6510,-0.035,0.075
6511,0.005,0.065
6512,0.035,0.085
6513,0.095,0.095
6514,0.135,0.085
6515,0.185,0.075
6516,0.245,0.075
6517,0.295,0.095
6518,0.365,0.105
6519,0.385,0.105
6520,0.395,0.105
