'sample interval','ECG1','ECG2'
'0.0078125 sec','mV','mV'
0,-0.305,-0.165
1,-0.265,-0.145
2,-0.245,-0.155
3,-0.235,-0.155
4,-0.235,-0.135
5,-0.155,-0.115
6,-0.395,-0.105
7,-0.805,-0.005
8,-0.585,0.225
9,1.145,0.435
10,2.715,0.095
11,3.235,-0.745
12,1.885,-1.265
13,0.275,-0.945
14,-0.255,-0.475
15,-0.415,-0.125
16,-0.445,-0.065
17,-0.395,-0.075
18,-0.395,-0.075
19,-0.415,-0.105
20,-0.385,-0.095
21,-0.335,-0.075
22,-0.355,-0.075
23,-0.395,-0.085
24,-0.355,-0.065
25,-0.305,-0.055
26,-0.325,-0.055
27,-0.385,-0.075
28,-0.395,-0.085
29,-0.325,-0.085
30,-0.315,-0.075
31,-0.305,-0.085
32,-0.285,-0.095
33,-0.265,-0.095
34,-0.275,-0.115
35,-0.275,-0.095
36,-0.255,-0.115
37,-0.235,-0.125
38,-0.235,-0.115
39,-0.195,-0.105
40,-0.145,-0.105
41,-0.145,-0.085
42,-0.155,-0.075
43,-0.115,-0.045
44,-0.055,0.005
45,-0.035,0.045
46,-0.075,0.055
47,-0.125,0.065
48,-0.105,0.065
49,-0.105,0.065
50,-0.125,0.065
51,-0.095,0.065
52,-0.045,0.085
53,-0.065,0.095
54,-0.085,0.075
55,-0.055,0.065
56,-0.025,0.065
57,-0.015,0.075
58,-0.065,0.075
59,-0.095,0.055
60,-0.075,0.055
61,-0.015,0.095
62,-0.035,0.065
63,-0.055,0.055
64,-0.015,0.065
65,0.005,0.065
66,-0.055,0.045
67,-0.105,0.045
68,0.015,0.095
69,0.085,0.205
70,0.095,0.225
71,0.245,0.265
72,0.305,0.295
73,0.245,0.175
74,0.185,0.125
75,0.135,0.075
76,0.055,0.045
77,-0.055,0.025
78,-0.185,-0.045
79,-0.265,-0.075
80,-0.265,-0.075
81,-0.245,-0.045
82,-0.225,-0.075
83,-0.195,-0.065
84,-0.325,-0.055
85,-0.785,0.035
86,-0.575,0.285
87,0.945,0.365
88,2.695,-0.135
89,3.345,-1.095
90,2.295,-1.335
91,0.605,-0.905
92,-0.145,-0.295
93,-0.465,-0.015
94,-0.495,-0.025
95,-0.505,-0.065
96,-0.465,-0.055
97,-0.435,-0.045
98,-0.405,-0.055
99,-0.405,-0.065
100,-0.425,-0.055
101,-0.445,-0.025
102,-0.445,-0.025
103,-0.425,-0.035
104,-0.425,-0.025
105,-0.405,-0.025
106,-0.385,-0.045
107,-0.315,-0.025
108,-0.275,-0.025
109,-0.295,-0.015
110,-0.285,-0.035
111,-0.255,-0.045
112,-0.245,-0.035
113,-0.265,-0.025
114,-0.285,-0.035
115,-0.275,-0.065
116,-0.285,-0.035
117,-0.265,-0.035
118,-0.225,-0.035
119,-0.165,0.015
120,-0.095,0.035
121,-0.085,0.055
122,-0.065,0.045
123,-0.075,0.045
124,-0.085,0.025
125,-0.125,0.045
126,-0.155,0.025
127,-0.155,0.005
128,-0.155,-0.015
129,-0.155,-0.005
130,-0.145,-0.005
131,-0.145,-0.015
132,-0.125,-0.005
133,-0.105,0.005
134,-0.085,-0.005
135,-0.095,-0.025
136,-0.055,0.005
137,-0.055,0.015
138,-0.065,-0.005
139,-0.085,-0.005
140,-0.095,-0.005
141,-0.095,-0.005
142,-0.055,-0.015
143,-0.065,-0.005
144,-0.095,0.005
145,-0.015,0.065
146,-0.005,0.155
147,-0.005,0.175
148,0.125,0.185
149,0.245,0.245
150,0.235,0.105
151,0.155,0.075
152,0.095,0.025
153,0.025,-0.005
154,-0.115,-0.035
155,-0.235,-0.115
156,-0.205,-0.145
157,-0.205,-0.125
158,-0.195,-0.135
159,-0.235,-0.145
160,-0.215,-0.155
161,-0.155,-0.115
162,-0.685,-0.055
163,-0.835,0.095
164,0.145,0.385
165,2.255,0.155
166,3.165,-0.685
167,2.825,-1.225
168,0.885,-1.055
169,-0.065,-0.465
170,-0.375,-0.115
171,-0.415,-0.075
172,-0.415,-0.095
173,-0.405,-0.095
174,-0.385,-0.105
175,-0.385,-0.115
176,-0.385,-0.085
177,-0.355,-0.095
178,-0.335,-0.085
179,-0.335,-0.095
180,-0.355,-0.095
181,-0.365,-0.085
182,-0.355,-0.085
183,-0.335,-0.105
184,-0.305,-0.095
185,-0.325,-0.095
186,-0.325,-0.105
187,-0.305,-0.115
188,-0.275,-0.115
189,-0.265,-0.105
190,-0.265,-0.115
191,-0.255,-0.125
192,-0.225,-0.135
193,-0.215,-0.115
194,-0.215,-0.105
195,-0.185,-0.095
196,-0.155,-0.085
197,-0.095,-0.035
198,-0.015,-0.035
199,-0.015,-0.015
200,-0.075,0.005
201,-0.075,0.025
202,-0.115,-0.005
203,-0.125,-0.025
204,-0.105,-0.035
205,-0.095,-0.045
206,-0.055,-0.025
207,-0.065,-0.055
208,-0.045,-0.055
209,-0.075,-0.065
210,-0.095,-0.055
211,-0.055,-0.065
212,-0.015,-0.065
213,-0.025,-0.045
214,-0.025,-0.075
215,-0.015,-0.065
216,-0.015,-0.055
217,-0.055,-0.065
218,-0.055,-0.055
219,-0.025,-0.075
220,-0.055,-0.055
221,-0.115,-0.065
222,-0.015,-0.045
223,0.055,0.035
224,0.035,0.095
225,0.125,0.125
226,0.225,0.175
227,0.185,0.075
228,0.155,0.025
229,0.095,-0.035
230,0.005,-0.055
231,-0.145,-0.095
232,-0.195,-0.145
233,-0.175,-0.165
234,-0.185,-0.165
235,-0.225,-0.175
236,-0.225,-0.155
237,-0.215,-0.155
238,-0.135,-0.165
239,-0.595,-0.105
240,-0.855,0.065
241,0.215,0.355
242,2.335,0.165
243,3.195,-0.645
244,2.905,-1.275
245,1.045,-1.095
246,0.015,-0.585
247,-0.315,-0.205
248,-0.385,-0.105
249,-0.355,-0.125
250,-0.355,-0.115
251,-0.325,-0.125
252,-0.315,-0.115
253,-0.345,-0.105
254,-0.315,-0.115
255,-0.275,-0.095
256,-0.295,-0.075
257,-0.315,-0.105
258,-0.255,-0.145
259,-0.285,-0.085
260,-0.245,-0.095
261,-0.185,-0.115
262,-0.255,-0.135
263,-0.285,-0.125
264,-0.245,-0.125
265,-0.225,-0.105
266,-0.235,-0.115
267,-0.235,-0.155
268,-0.235,-0.145
269,-0.165,-0.145
270,-0.185,-0.135
271,-0.215,-0.145
272,-0.135,-0.105
273,-0.075,-0.085
274,-0.025,-0.095
275,-0.105,-0.055
276,-0.045,-0.015
277,-0.035,0.005
278,-0.055,-0.005
279,0.045,0.005
280,0.015,-0.005
281,-0.025,0.015
282,-0.065,-0.035
283,-0.045,-0.005
284,-0.055,-0.005
285,-0.025,-0.025
286,-0.015,-0.025
287,0.025,-0.035
288,0.045,-0.015
289,0.075,-0.035
290,0.075,-0.035
291,0.085,-0.045
292,0.045,-0.025
293,0.075,-0.015
294,0.015,-0.035
295,0.025,-0.055
296,0.025,-0.035
297,0.045,-0.035
298,0.005,-0.045
299,0.015,-0.015
300,0.145,0.065
301,0.185,0.145
302,0.125,0.185
303,0.245,0.175
304,0.305,0.125
305,0.275,0.085
306,0.145,0.045
307,0.085,-0.005
308,-0.045,-0.045
309,-0.155,-0.075
310,-0.195,-0.155
311,-0.175,-0.175
312,-0.185,-0.155
313,-0.155,-0.155
314,-0.085,-0.145
315,-0.135,-0.155
316,-0.395,-0.115
317,-0.825,0.075
318,-0.485,0.345
319,1.325,0.175
320,2.905,-0.535
321,3.365,-1.425
322,2.785,-1.535
323,0.925,-1.005
324,0.015,-0.375
325,-0.305,-0.065
326,-0.325,-0.035
327,-0.295,-0.065
328,-0.305,-0.105
329,-0.345,-0.075
330,-0.365,-0.065
331,-0.395,-0.065
332,-0.345,-0.065
333,-0.255,-0.055
334,-0.255,-0.075
335,-0.335,-0.075
336,-0.305,-0.055
337,-0.265,-0.055
338,-0.275,-0.045
339,-0.305,-0.045
340,-0.285,-0.085
341,-0.285,-0.075
342,-0.285,-0.035
343,-0.245,-0.075
344,-0.215,-0.075
345,-0.185,-0.045
346,-0.165,-0.065
347,-0.175,-0.075
348,-0.265,-0.065
349,-0.295,-0.055
350,-0.235,-0.035
351,-0.195,-0.015
352,-0.115,-0.015
353,-0.035,0.045
354,0.005,0.025
355,-0.025,0.025
356,-0.085,-0.005
357,-0.105,-0.025
358,-0.135,-0.005
359,-0.095,-0.035
360,-0.035,-0.005
361,-0.055,-0.015
362,-0.095,-0.045
363,-0.065,-0.025
364,-0.015,-0.025
365,0.005,-0.015
366,0.005,-0.035
367,0.015,-0.035
368,-0.015,-0.035
369,-0.005,-0.025
370,-0.015,-0.035
371,0.035,-0.045
372,0.065,-0.025
373,0.035,-0.035
374,-0.055,-0.055
375,-0.025,-0.055
376,0.015,-0.055
377,0.025,-0.025
378,0.135,0.055
379,0.175,0.105
380,0.205,0.125
381,0.295,0.155
382,0.355,0.145
383,0.295,0.035
384,0.245,-0.005
385,0.225,-0.005
386,0.145,-0.055
387,-0.115,-0.135
388,-0.175,-0.185
389,-0.155,-0.175
390,-0.125,-0.185
391,-0.105,-0.165
392,-0.085,-0.145
393,-0.025,-0.135
394,-0.335,-0.105
395,-0.805,0.055
396,-0.335,0.385
397,1.535,0.265
398,2.855,-0.485
399,3.235,-1.295
400,1.895,-1.255
401,0.485,-0.725
402,-0.085,-0.225
403,-0.235,-0.055
404,-0.335,-0.065
405,-0.335,-0.085
406,-0.265,-0.085
407,-0.225,-0.095
408,-0.225,-0.075
409,-0.245,-0.055
410,-0.255,-0.045
411,-0.255,-0.055
412,-0.285,-0.055
413,-0.245,-0.045
414,-0.255,-0.075
415,-0.265,-0.125
416,-0.275,-0.115
417,-0.255,-0.095
418,-0.245,-0.065
419,-0.275,-0.075
420,-0.275,-0.085
421,-0.275,-0.075
422,-0.275,-0.055
423,-0.275,-0.125
424,-0.255,-0.135
425,-0.285,-0.115
426,-0.305,-0.115
427,-0.325,-0.105
428,-0.295,-0.105
429,-0.215,-0.055
430,-0.135,-0.025
431,-0.135,-0.015
432,-0.165,-0.025
433,-0.145,-0.025
434,-0.165,-0.015
435,-0.185,-0.025
436,-0.185,-0.045
437,-0.155,-0.035
438,-0.115,-0.025
439,-0.145,-0.065
440,-0.155,-0.035
441,-0.135,-0.055
442,-0.125,-0.045
443,-0.095,0.015
444,-0.045,-0.015
445,-0.015,-0.035
446,-0.015,-0.025
447,0.005,-0.045
448,0.025,-0.035
449,0.045,-0.015
450,0.065,-0.055
451,0.045,-0.055
452,0.025,-0.025
453,0.015,-0.045
454,0.005,-0.065
455,-0.095,-0.065
456,-0.045,-0.065
457,0.095,0.055
458,0.125,0.065
459,0.155,0.085
460,0.295,0.155
461,0.305,0.085
462,0.275,0.015
463,0.235,0.005
464,0.155,-0.005
465,0.025,-0.085
466,-0.115,-0.165
467,-0.175,-0.205
468,-0.185,-0.195
469,-0.155,-0.105
470,-0.115,-0.215
471,-0.155,-0.215
472,-0.135,-0.175
473,-0.435,-0.115
474,-0.855,0.035
475,-0.425,0.365
476,1.225,0.155
477,2.825,-0.545
478,3.375,-1.415
479,2.435,-1.465
480,0.715,-0.925
481,-0.075,-0.325
482,-0.335,-0.075
483,-0.405,-0.085
484,-0.425,-0.105
485,-0.405,-0.075
486,-0.385,-0.085
487,-0.355,-0.085
488,-0.325,-0.085
489,-0.355,-0.095
490,-0.395,-0.095
491,-0.395,-0.095
492,-0.405,-0.075
493,-0.355,-0.065
494,-0.345,-0.075
495,-0.355,-0.075
496,-0.335,-0.065
497,-0.325,-0.075
498,-0.285,-0.075
499,-0.275,-0.085
500,-0.295,-0.045
501,-0.295,-0.025
502,-0.305,-0.025
503,-0.295,-0.045
504,-0.275,-0.065
505,-0.265,-0.065
506,-0.235,-0.065
507,-0.225,-0.055
508,-0.165,-0.045
509,-0.105,-0.025
510,-0.075,0.005
511,-0.065,0.005
512,-0.075,0.005
513,-0.075,0.005
514,-0.095,0.005
515,-0.105,-0.015
516,-0.125,-0.025
517,-0.115,-0.035
518,-0.085,-0.035
519,-0.055,-0.045
520,-0.075,-0.035
521,-0.095,-0.045
522,-0.085,-0.055
523,-0.065,-0.035
524,-0.065,-0.045
525,-0.055,-0.025
526,-0.035,-0.045
527,-0.015,-0.045
528,-0.015,-0.035
529,-0.015,-0.035
530,-0.065,-0.045
531,-0.075,-0.055
532,-0.095,-0.045
533,-0.095,-0.045
534,-0.115,-0.065
535,-0.105,-0.075
536,-0.115,-0.055
537,-0.125,-0.055
538,-0.085,-0.045
539,-0.015,0.025
540,0.025,0.085
541,0.005,0.125
542,0.145,0.145
543,0.165,0.065
544,0.155,0.025
545,0.085,-0.045
546,-0.025,-0.085
547,-0.115,-0.105
548,-0.265,-0.145
549,-0.315,-0.185
550,-0.285,-0.155
551,-0.245,-0.145
552,-0.195,-0.145
553,-0.245,-0.185
554,-0.225,-0.185
555,-0.655,-0.105
556,-0.855,0.115
557,0.055,0.365
558,2.065,0.085
559,3.115,-0.855
560,2.545,-1.325
561,0.905,-1.065
562,-0.045,-0.565
563,-0.375,-0.175
564,-0.445,-0.085
565,-0.435,-0.115
566,-0.425,-0.135
567,-0.405,-0.125
568,-0.405,-0.135
569,-0.375,-0.105
570,-0.375,-0.095
571,-0.355,-0.105
572,-0.385,-0.105
573,-0.365,-0.075
574,-0.345,-0.075
575,-0.355,-0.045
576,-0.355,-0.095
577,-0.325,-0.095
578,-0.305,-0.105
579,-0.275,-0.105
580,-0.295,-0.105
581,-0.295,-0.105
582,-0.275,-0.105
583,-0.265,-0.115
584,-0.245,-0.115
585,-0.245,-0.115
586,-0.225,-0.125
587,-0.225,-0.115
588,-0.205,-0.115
589,-0.155,-0.075
590,-0.135,-0.095
591,-0.075,-0.035
592,-0.035,-0.005
593,-0.005,0.045
594,-0.025,0.055
595,-0.045,0.045
596,-0.085,0.035
597,-0.095,0.045
598,-0.125,0.025
599,-0.135,0.015
600,-0.105,0.005
601,-0.085,0.025
602,-0.065,0.005
603,-0.055,0.005
604,-0.055,0.005
605,-0.025,0.005
606,-0.055,-0.005
607,-0.065,-0.035
608,-0.045,-0.015
609,-0.035,0.005
610,-0.035,-0.005
611,-0.045,-0.005
612,-0.065,-0.035
613,-0.055,-0.025
614,-0.075,-0.035
615,-0.095,-0.055
616,-0.125,-0.055
617,-0.115,-0.055
618,-0.135,-0.065
619,-0.135,-0.055
620,-0.125,-0.065
621,-0.095,-0.055
622,-0.015,-0.035
623,0.065,0.075
624,0.085,0.125
625,0.145,0.145
626,0.175,0.145
627,0.175,0.025
628,0.075,-0.035
629,0.025,-0.095
630,-0.015,-0.065
631,-0.155,-0.145
632,-0.235,-0.165
633,-0.215,-0.155
634,-0.155,-0.145
635,-0.165,-0.155
636,-0.165,-0.145
637,-0.115,-0.145
638,-0.455,-0.105
639,-0.695,0.075
640,-0.145,0.405
641,1.605,0.385
642,2.905,-0.255
643,3.045,-1.045
644,1.405,-1.035
645,0.265,-0.665
646,-0.175,-0.255
647,-0.315,-0.095
648,-0.385,-0.105
649,-0.335,-0.095
650,-0.335,-0.105
651,-0.345,-0.105
652,-0.335,-0.105
653,-0.295,-0.095
654,-0.295,-0.085
655,-0.285,-0.105
656,-0.285,-0.095
657,-0.305,-0.085
658,-0.285,-0.095
659,-0.265,-0.105
660,-0.275,-0.105
661,-0.255,-0.115
662,-0.265,-0.115
663,-0.235,-0.125
664,-0.235,-0.135
665,-0.215,-0.135
666,-0.205,-0.165
667,-0.205,-0.175
668,-0.205,-0.165
669,-0.175,-0.175
670,-0.165,-0.175
671,-0.205,-0.185
672,-0.165,-0.155
673,-0.085,-0.115
674,-0.015,-0.085
675,0.005,-0.065
676,-0.005,-0.045
677,-0.005,-0.005
678,-0.015,-0.005
679,-0.045,-0.005
680,-0.095,-0.025
681,-0.105,0.005
682,-0.075,0.005
683,-0.065,-0.015
684,-0.065,-0.015
685,-0.045,0.005
686,-0.025,-0.005
687,-0.045,-0.015
688,-0.025,-0.025
689,-0.015,-0.005
690,0.005,-0.015
691,-0.025,-0.035
692,-0.035,-0.045
693,-0.045,-0.025
694,-0.055,-0.025
695,-0.055,-0.045
696,-0.095,-0.045
697,-0.075,-0.025
698,-0.055,-0.035
699,-0.075,-0.045
700,-0.105,-0.035
701,-0.105,-0.035
702,-0.125,-0.055
703,-0.135,-0.055
704,-0.105,-0.045
705,-0.035,0.025
706,0.035,0.095
707,0.035,0.095
708,0.105,0.125
709,0.135,0.095
710,0.155,0.005
711,0.015,-0.075
712,0.005,-0.075
713,-0.055,-0.065
714,-0.165,-0.115
715,-0.225,-0.145
716,-0.205,-0.135
717,-0.185,-0.125
718,-0.165,-0.125
719,-0.175,-0.125
720,-0.115,-0.105
721,-0.555,0.015
722,-0.645,0.245
723,0.225,0.445
724,2.165,0.205
725,3.165,-0.585
726,2.835,-1.225
727,0.875,-1.015
728,0.005,-0.555
729,-0.285,-0.145
730,-0.335,-0.055
731,-0.345,-0.085
732,-0.375,-0.095
733,-0.355,-0.085
734,-0.325,-0.075
735,-0.305,-0.105
736,-0.265,-0.095
737,-0.245,-0.065
738,-0.255,-0.065
739,-0.305,-0.085
740,-0.335,-0.095
741,-0.315,-0.095
742,-0.285,-0.105
743,-0.245,-0.115
744,-0.215,-0.125
745,-0.215,-0.125
746,-0.205,-0.135
747,-0.215,-0.145
748,-0.185,-0.145
749,-0.195,-0.145
750,-0.165,-0.155
751,-0.155,-0.165
752,-0.135,-0.165
753,-0.105,-0.165
754,-0.095,-0.195
755,-0.065,-0.175
756,-0.035,-0.105
757,-0.025,-0.025
758,-0.015,-0.005
759,-0.005,-0.005
760,-0.005,-0.015
761,-0.005,-0.035
762,-0.025,-0.035
763,-0.035,-0.055
764,-0.055,-0.055
765,-0.005,-0.055
766,0.015,-0.035
767,-0.015,-0.105
768,-0.045,-0.185
769,-0.085,-0.155
770,-0.025,-0.115
771,0.025,-0.135
772,0.055,-0.145
773,0.045,-0.125
774,0.015,-0.125
775,0.025,-0.125
776,0.055,-0.095
777,0.045,-0.055
778,0.035,-0.095
779,0.025,-0.115
780,-0.015,-0.095
781,-0.005,-0.065
782,-0.015,-0.065
783,-0.045,-0.065
784,-0.055,-0.035
785,-0.065,-0.015
786,0.055,0.095
787,0.065,0.125
788,0.085,0.145
789,0.215,0.175
790,0.245,0.095
791,0.235,0.065
792,0.185,0.005
793,0.135,0.025
794,-0.005,-0.015
795,-0.125,-0.115
796,-0.205,-0.185
797,-0.205,-0.175
798,-0.245,-0.155
799,-0.235,-0.165
800,-0.235,-0.155
801,-0.145,-0.135
802,-0.445,-0.055
803,-0.845,0.145
804,-0.265,0.385
805,1.625,-0.055
806,2.975,-1.015
807,3.455,-1.575
808,1.855,-1.285
809,0.285,-0.525
810,-0.305,-0.085
811,-0.515,0.005
812,-0.515,0.005
813,-0.425,0.005
814,-0.355,0.005
815,-0.345,0.085
816,-0.305,0.145
817,-0.375,0.125
818,-0.375,0.105
819,-0.385,0.015
820,-0.375,-0.005
821,-0.365,0.005
822,-0.365,-0.005
823,-0.375,0.015
824,-0.355,0.025
825,-0.365,0.055
826,-0.335,0.085
827,-0.325,0.095
828,-0.315,0.105
829,-0.345,0.115
830,-0.335,0.105
831,-0.265,0.105
832,-0.175,0.115
833,-0.125,0.115
834,-0.115,0.105
835,-0.085,0.115
836,-0.135,0.145
837,-0.135,0.165
838,-0.125,0.165
839,-0.115,0.155
840,-0.145,0.135
841,-0.165,0.115
842,-0.175,0.085
843,-0.185,0.035
844,-0.105,0.015
845,-0.135,0.025
846,-0.175,0.045
847,-0.145,0.035
848,-0.125,0.005
849,-0.105,0.015
850,-0.075,0.005
851,-0.065,-0.005
852,-0.145,-0.025
853,-0.145,-0.035
854,-0.135,-0.035
855,-0.125,-0.045
856,-0.125,-0.045
857,-0.105,-0.055
858,-0.065,-0.065
859,-0.135,-0.095
860,-0.175,-0.095
861,-0.155,-0.085
862,-0.145,-0.095
863,-0.145,-0.095
864,-0.115,-0.095
865,-0.035,-0.055
866,0.045,0.055
867,0.005,0.105
868,0.095,0.145
869,0.245,0.195
870,0.265,0.055
871,0.245,-0.015
872,0.215,-0.055
873,0.135,-0.085
874,0.025,-0.135
875,-0.085,-0.185
876,-0.195,-0.215
877,-0.205,-0.185
878,-0.175,-0.165
879,-0.135,-0.175
880,-0.135,-0.185
881,-0.075,-0.175
882,-0.565,-0.075
883,-0.775,0.135
884,0.265,0.325
885,2.325,-0.065
886,3.215,-1.045
887,3.055,-1.335
888,1.125,-1.035
889,0.135,-0.425
890,-0.315,-0.075
891,-0.415,-0.065
892,-0.445,-0.095
893,-0.395,-0.095
894,-0.405,-0.115
895,-0.395,-0.105
896,-0.395,-0.085
897,-0.395,-0.065
898,-0.395,-0.065
899,-0.395,-0.045
900,-0.395,-0.025
901,-0.425,-0.035
902,-0.395,-0.055
903,-0.385,-0.045
904,-0.365,-0.045
905,-0.375,-0.025
906,-0.365,-0.015
907,-0.335,-0.005
908,-0.365,0.035
909,-0.375,0.065
910,-0.415,0.075
911,-0.425,0.085
912,-0.405,0.075
913,-0.375,0.045
914,-0.315,0.035
915,-0.275,0.005
916,-0.225,0.035
917,-0.155,0.055
918,-0.095,0.055
919,-0.105,0.035
920,-0.075,0.035
921,-0.075,0.055
922,-0.095,0.065
923,-0.125,0.075
924,-0.095,0.065
925,-0.085,0.055
926,-0.105,0.035
927,-0.105,0.035
928,-0.085,0.005
929,-0.015,0.025
930,-0.005,0.005
931,-0.025,-0.005
932,-0.025,-0.005
933,0.005,0.015
934,-0.005,0.015
935,-0.035,0.015
936,-0.035,0.035
937,-0.035,0.075
938,-0.055,0.075
939,-0.065,0.065
940,-0.055,0.075
941,-0.045,0.075
942,-0.065,0.065
943,-0.105,0.035
944,-0.185,0.025
945,-0.105,0.035
946,0.045,0.105
947,0.115,0.195
948,0.085,0.235
949,0.105,0.255
950,0.205,0.265
951,0.185,0.085
952,0.145,0.055
953,0.095,0.025
954,0.055,0.065
955,-0.035,0.005
956,-0.165,-0.055
957,-0.225,-0.095
958,-0.205,-0.105
959,-0.185,-0.115
960,-0.205,-0.125
961,-0.175,-0.105
962,-0.175,-0.085
963,-0.675,-0.005
964,-0.785,0.215
965,0.195,0.445
966,2.335,0.225
967,3.235,-0.735
968,2.655,-1.275
969,0.765,-0.955
970,-0.145,-0.475
971,-0.455,-0.125
972,-0.465,-0.085
973,-0.465,-0.095
974,-0.375,-0.095
975,-0.305,-0.095
976,-0.365,-0.105
977,-0.375,-0.105
978,-0.385,-0.085
979,-0.395,-0.095
980,-0.355,-0.085
981,-0.325,-0.075
982,-0.295,-0.075
983,-0.315,-0.095
984,-0.365,-0.105
985,-0.315,-0.095
986,-0.315,-0.125
987,-0.295,-0.135
988,-0.345,-0.135
989,-0.275,-0.135
990,-0.255,-0.155
991,-0.235,-0.145
992,-0.225,-0.145
993,-0.225,-0.145
994,-0.215,-0.185
995,-0.215,-0.195
996,-0.195,-0.165
997,-0.145,-0.135
998,-0.135,-0.115
999,-0.075,-0.045
1000,-0.025,-0.015
1001,-0.045,0.005
1002,-0.065,0.015
1003,-0.095,0.015
1004,-0.095,0.025
1005,-0.115,0.035
1006,-0.185,0.005
1007,-0.185,0.025
1008,-0.105,0.005
1009,-0.095,0.015
1010,-0.075,0.015
1011,-0.085,0.015
1012,-0.065,0.025
1013,-0.075,0.035
1014,-0.085,0.025
1015,-0.095,0.025
1016,-0.075,0.015
1017,-0.075,0.065
1018,-0.055,0.025
1019,-0.075,0.005
1020,-0.075,0.015
1021,-0.085,0.035
1022,-0.125,0.015
1023,-0.125,0.005
1024,-0.095,0.005
1025,-0.085,0.035
1026,-0.005,0.115
1027,0.035,0.155
1028,0.075,0.185
1029,0.185,0.225
1030,0.175,0.155
1031,0.145,0.105
1032,0.135,0.045
1033,0.025,0.025
1034,-0.085,-0.015
1035,-0.225,-0.075
1036,-0.265,-0.115
1037,-0.255,-0.125
1038,-0.275,-0.105
1039,-0.215,-0.115
1040,-0.185,-0.105
1041,-0.165,-0.085
1042,-0.535,-0.035
1043,-0.945,0.155
1044,-0.135,0.425
1045,1.935,0.035
1046,3.105,-0.935
1047,3.325,-1.475
1048,1.555,-1.225
1049,0.235,-0.525
1050,-0.315,-0.105
1051,-0.445,-0.035
1052,-0.465,-0.075
1053,-0.455,-0.065
1054,-0.445,-0.065
1055,-0.465,-0.085
1056,-0.495,-0.065
1057,-0.455,-0.045
1058,-0.475,-0.055
1059,-0.475,-0.075
1060,-0.445,-0.055
1061,-0.435,-0.055
1062,-0.455,-0.065
1063,-0.425,-0.045
1064,-0.435,-0.055
1065,-0.465,-0.065
1066,-0.425,-0.085
1067,-0.405,-0.085
1068,-0.415,-0.085
1069,-0.405,-0.085
1070,-0.395,-0.085
1071,-0.405,-0.075
1072,-0.405,-0.085
1073,-0.435,-0.065
1074,-0.385,-0.045
1075,-0.365,-0.035
1076,-0.315,-0.025
1077,-0.265,-0.015
1078,-0.235,0.005
1079,-0.255,-0.005
1080,-0.225,0.005
1081,-0.235,0.015
1082,-0.295,-0.005
1083,-0.315,-0.015
1084,-0.325,-0.025
1085,-0.295,-0.025
1086,-0.295,-0.035
1087,-0.275,-0.025
1088,-0.275,-0.025
1089,-0.285,-0.005
1090,-0.275,-0.025
1091,-0.295,-0.035
1092,-0.285,-0.035
1093,-0.245,-0.025
1094,-0.275,-0.025
1095,-0.265,-0.035
1096,-0.235,-0.035
1097,-0.215,-0.015
1098,-0.225,-0.035
1099,-0.275,-0.045
1100,-0.295,-0.045
1101,-0.305,-0.045
1102,-0.315,-0.065
1103,-0.315,-0.065
1104,-0.325,-0.035
1105,-0.215,0.045
1106,-0.205,0.105
1107,-0.205,0.115
1108,-0.055,0.155
1109,-0.015,0.165
1110,-0.045,0.055
1111,-0.065,0.015
1112,-0.105,-0.025
1113,-0.215,-0.055
1114,-0.365,-0.125
1115,-0.435,-0.185
1116,-0.475,-0.175
1117,-0.455,-0.175
1118,-0.425,-0.175
1119,-0.425,-0.175
1120,-0.385,-0.185
1121,-0.425,-0.165
1122,-0.955,-0.035
1123,-0.915,0.225
1124,0.395,0.295
1125,2.375,-0.155
1126,3.215,-1.075
1127,2.635,-1.325
1128,0.845,-1.005
1129,-0.145,-0.395
1130,-0.535,-0.115
1131,-0.615,-0.095
1132,-0.615,-0.115
1133,-0.615,-0.115
1134,-0.655,-0.125
1135,-0.595,-0.115
1136,-0.565,-0.105
1137,-0.555,-0.095
1138,-0.555,-0.095
1139,-0.545,-0.105
1140,-0.555,-0.095
1141,-0.505,-0.095
1142,-0.555,-0.085
1143,-0.535,-0.085
1144,-0.495,-0.095
1145,-0.495,-0.085
1146,-0.495,-0.085
1147,-0.465,-0.085
1148,-0.455,-0.095
1149,-0.455,-0.095
1150,-0.435,-0.105
1151,-0.415,-0.105
1152,-0.385,-0.115
1153,-0.375,-0.115
1154,-0.375,-0.095
1155,-0.345,-0.095
1156,-0.305,-0.065
1157,-0.275,-0.025
1158,-0.205,-0.015
1159,-0.235,-0.005
1160,-0.175,0.005
1161,-0.195,0.015
1162,-0.245,0.015
1163,-0.275,-0.015
1164,-0.295,-0.025
1165,-0.295,-0.005
1166,-0.285,-0.025
1167,-0.285,-0.025
1168,-0.295,-0.035
1169,-0.245,-0.035
1170,-0.235,-0.015
1171,-0.235,-0.035
1172,-0.265,-0.035
1173,-0.255,-0.035
1174,-0.225,-0.025
1175,-0.205,-0.035
1176,-0.205,-0.045
1177,-0.215,-0.045
1178,-0.235,-0.055
1179,-0.245,-0.055
1180,-0.175,-0.065
1181,-0.215,-0.065
1182,-0.305,-0.075
1183,-0.245,-0.065
1184,-0.125,-0.005
1185,-0.085,0.075
1186,-0.075,0.105
1187,0.035,0.125
1188,0.095,0.135
1189,0.125,0.055
1190,0.055,-0.005
1191,-0.025,-0.055
1192,-0.145,-0.075
1193,-0.305,-0.135
1194,-0.395,-0.205
1195,-0.365,-0.205
1196,-0.365,-0.195
1197,-0.315,-0.165
1198,-0.285,-0.165
1199,-0.265,-0.165
1200,-0.295,-0.155
1201,-0.835,-0.055
1202,-0.925,0.205
1203,0.285,0.335
1204,2.345,-0.045
1205,3.325,-0.995
1206,2.595,-1.265
1207,0.835,-0.955
1208,-0.055,-0.425
1209,-0.435,-0.095
1210,-0.515,-0.105
1211,-0.505,-0.125
1212,-0.515,-0.135
1213,-0.475,-0.125
1214,-0.465,-0.115
1215,-0.455,-0.105
1216,-0.435,-0.125
1217,-0.435,-0.115
1218,-0.415,-0.125
1219,-0.425,-0.115
1220,-0.415,-0.125
1221,-0.415,-0.105
1222,-0.375,-0.115
1223,-0.355,-0.105
1224,-0.335,-0.115
1225,-0.385,-0.125
1226,-0.315,-0.125
1227,-0.325,-0.135
1228,-0.315,-0.135
1229,-0.295,-0.145
1230,-0.295,-0.155
1231,-0.265,-0.155
1232,-0.265,-0.145
1233,-0.215,-0.145
1234,-0.195,-0.125
1235,-0.175,-0.125
1236,-0.125,-0.085
1237,-0.065,-0.035
1238,-0.075,-0.025
1239,-0.105,-0.015
1240,-0.095,0.005
1241,-0.105,-0.005
1242,-0.165,-0.015
1243,-0.165,-0.025
1244,-0.165,-0.025
1245,-0.125,-0.005
1246,-0.135,-0.025
1247,-0.105,-0.025
1248,-0.115,-0.035
1249,-0.095,-0.025
1250,-0.125,-0.025
1251,-0.115,-0.025
1252,-0.095,-0.025
1253,-0.085,0.005
1254,-0.095,-0.005
1255,-0.105,-0.015
1256,-0.105,-0.015
1257,-0.105,-0.015
1258,-0.125,-0.005
1259,-0.165,-0.035
1260,-0.165,-0.035
1261,-0.175,-0.015
1262,-0.125,-0.005
1263,-0.055,0.075
1264,-0.035,0.165
1265,0.045,0.185
1266,0.155,0.175
1267,0.145,0.065
1268,0.045,0.035
1269,0.025,-0.015
1270,0.015,-0.075
1271,-0.115,-0.095
1272,-0.275,-0.155
1273,-0.305,-0.175
1274,-0.305,-0.165
1275,-0.295,-0.175
1276,-0.275,-0.185
1277,-0.255,-0.155
1278,-0.215,-0.175
1279,-0.725,-0.105
1280,-0.845,0.115
1281,-0.015,0.385
1282,1.965,0.325
1283,3.095,-0.445
1284,2.555,-1.075
1285,0.745,-0.965
1286,-0.145,-0.575
1287,-0.455,-0.205
1288,-0.525,-0.115
1289,-0.515,-0.125
1290,-0.475,-0.155
1291,-0.455,-0.135
1292,-0.465,-0.125
1293,-0.475,-0.115
1294,-0.415,-0.135
1295,-0.445,-0.135
1296,-0.435,-0.115
1297,-0.405,-0.135
1298,-0.425,-0.095
1299,-0.425,-0.105
1300,-0.455,-0.095
1301,-0.405,-0.115
1302,-0.335,-0.115
1303,-0.355,-0.125
1304,-0.345,-0.135
1305,-0.345,-0.125
1306,-0.355,-0.135
1307,-0.315,-0.175
1308,-0.325,-0.165
1309,-0.315,-0.165
1310,-0.375,-0.155
1311,-0.295,-0.165
1312,-0.215,-0.165
1313,-0.185,-0.145
1314,-0.165,-0.125
1315,-0.145,-0.075
1316,-0.145,-0.035
1317,-0.115,-0.005
1318,-0.145,0.015
1319,-0.175,0.015
1320,-0.175,0.025
1321,-0.205,0.025
1322,-0.225,0.015
1323,-0.185,0.025
1324,-0.255,0.015
1325,-0.205,0.025
1326,-0.215,0.035
1327,-0.115,0.035
1328,-0.065,0.035
1329,-0.105,0.045
1330,-0.135,0.055
1331,-0.145,0.025
1332,-0.155,0.015
1333,-0.145,0.035
1334,-0.165,0.045
1335,-0.145,0.045
1336,-0.155,0.065
1337,-0.045,0.155
1338,-0.025,0.205
1339,-0.065,0.225
1340,0.065,0.235
1341,0.125,0.215
1342,0.115,0.115
1343,0.075,0.095
1344,0.015,0.065
1345,-0.055,0.055
1346,-0.195,0.015
1347,-0.265,-0.035
1348,-0.265,-0.035
1349,-0.235,-0.025
1350,-0.225,-0.035
1351,-0.225,-0.045
1352,-0.165,-0.035
1353,-0.455,0.015
1354,-0.855,0.135
1355,-0.485,0.395
1356,1.185,0.455
1357,2.865,0.065
1358,3.195,-0.745
1359,1.315,-0.935
1360,0.085,-0.645
1361,-0.245,-0.215
1362,-0.345,-0.055
1363,-0.345,-0.075
1364,-0.355,-0.075
1365,-0.355,-0.065
1366,-0.335,-0.075
1367,-0.355,-0.095
1368,-0.295,-0.065
1369,-0.295,-0.055
1370,-0.295,-0.055
1371,-0.295,-0.055
1372,-0.335,-0.055
1373,-0.265,-0.035
1374,-0.245,-0.045
1375,-0.255,-0.055
1376,-0.245,-0.055
1377,-0.225,-0.055
1378,-0.225,-0.065
1379,-0.205,-0.065
1380,-0.195,-0.065
1381,-0.215,-0.065
1382,-0.185,-0.065
1383,-0.225,-0.075
1384,-0.175,-0.065
1385,-0.145,-0.055
1386,-0.145,-0.055
1387,-0.115,-0.025
1388,-0.085,0.005
1389,-0.035,0.055
1390,-0.025,0.085
1391,-0.035,0.095
1392,-0.055,0.095
1393,-0.095,0.115
1394,-0.065,0.105
1395,-0.095,0.085
1396,-0.125,0.085
1397,-0.075,0.085
1398,-0.045,0.075
1399,-0.055,0.065
1400,-0.035,0.045
1401,-0.035,0.075
1402,-0.055,0.045
1403,-0.035,0.035
1404,-0.005,0.045
1405,0.005,0.025
1406,-0.025,0.005
1407,-0.035,-0.005
1408,-0.045,-0.005
1409,-0.025,-0.005
1410,-0.015,-0.005
1411,0.075,0.005
1412,0.115,0.105
1413,0.075,0.145
1414,0.175,0.165
1415,0.245,0.185
1416,0.265,0.085
1417,0.205,0.065
1418,0.125,-0.005
1419,0.055,-0.055
1420,-0.035,-0.055
1421,-0.185,-0.105
1422,-0.225,-0.165
1423,-0.235,-0.175
1424,-0.195,-0.145
1425,-0.195,-0.145
1426,-0.175,-0.165
1427,-0.155,-0.145
1428,-0.585,-0.085
1429,-0.845,0.095
1430,-0.135,0.375
1431,1.865,-0.015
1432,3.135,-0.915
1433,3.485,-1.475
1434,1.835,-1.295
1435,0.405,-0.615
1436,-0.215,-0.145
1437,-0.395,-0.045
1438,-0.415,-0.085
1439,-0.435,-0.125
1440,-0.395,-0.105
1441,-0.395,-0.095
1442,-0.365,-0.085
1443,-0.355,-0.095
1444,-0.365,-0.065
1445,-0.345,-0.045
1446,-0.325,-0.055
1447,-0.335,-0.055
1448,-0.335,-0.035
1449,-0.345,-0.025
1450,-0.305,-0.065
1451,-0.295,-0.075
1452,-0.295,-0.055
1453,-0.285,-0.035
1454,-0.265,-0.045
1455,-0.255,-0.055
1456,-0.245,-0.045
1457,-0.245,-0.025
1458,-0.245,-0.045
1459,-0.215,-0.035
1460,-0.195,-0.015
1461,-0.175,0.015
1462,-0.135,0.015
1463,-0.105,0.015
1464,-0.045,0.045
1465,-0.005,0.045
1466,-0.025,0.045
1467,-0.035,0.025
1468,-0.055,0.005
1469,-0.055,0.015
1470,-0.125,0.005
1471,-0.125,-0.015
1472,-0.135,-0.025
1473,-0.115,-0.025
1474,-0.115,-0.015
1475,-0.115,-0.035
1476,-0.075,-0.035
1477,-0.065,-0.015
1478,-0.055,-0.015
1479,-0.055,-0.015
1480,-0.025,-0.025
1481,-0.065,-0.015
1482,-0.045,-0.035
1483,-0.055,-0.015
1484,-0.055,-0.035
1485,-0.065,-0.025
1486,-0.095,-0.025
1487,-0.035,0.005
1488,0.085,0.115
1489,0.085,0.165
1490,0.135,0.185
1491,0.225,0.205
1492,0.235,0.075
1493,0.175,0.025
1494,0.095,-0.025
1495,0.055,-0.065
1496,-0.095,-0.095
1497,-0.195,-0.135
1498,-0.255,-0.165
1499,-0.275,-0.185
1500,-0.235,-0.165
1501,-0.185,-0.185
1502,-0.195,-0.175
1503,-0.185,-0.165
1504,-0.695,-0.075
1505,-0.825,0.135
1506,0.335,0.265
1507,2.425,-0.135
1508,3.345,-1.075
1509,2.745,-1.305
1510,0.925,-0.945
1511,0.035,-0.415
1512,-0.335,-0.115
1513,-0.445,-0.095
1514,-0.435,-0.115
1515,-0.425,-0.145
1516,-0.385,-0.115
1517,-0.375,-0.115
1518,-0.375,-0.115
1519,-0.395,-0.125
1520,-0.365,-0.105
1521,-0.355,-0.105
1522,-0.335,-0.105
1523,-0.335,-0.105
1524,-0.335,-0.105
1525,-0.305,-0.075
1526,-0.315,-0.105
1527,-0.295,-0.125
1528,-0.285,-0.115
1529,-0.295,-0.105
1530,-0.195,-0.115
1531,-0.215,-0.135
1532,-0.245,-0.145
1533,-0.185,-0.135
1534,-0.195,-0.145
1535,-0.175,-0.155
1536,-0.145,-0.125
1537,-0.125,-0.115
1538,-0.075,-0.085
1539,-0.055,-0.055
1540,0.005,-0.045
1541,-0.045,-0.015
1542,-0.035,-0.005
1543,-0.065,-0.035
1544,-0.095,-0.035
1545,-0.105,-0.035
1546,-0.115,-0.055
1547,-0.115,-0.065
1548,-0.115,-0.065
1549,-0.125,-0.045
1550,-0.145,-0.065
1551,-0.135,-0.065
1552,-0.115,-0.065
1553,-0.075,-0.055
1554,-0.065,-0.055
1555,-0.085,-0.065
1556,-0.085,-0.055
1557,-0.035,-0.045
1558,-0.055,-0.075
1559,-0.065,-0.055
1560,-0.075,-0.065
1561,-0.075,-0.055
1562,-0.125,-0.055
1563,-0.025,-0.005
1564,0.015,0.085
1565,-0.005,0.125
1566,0.125,0.155
1567,0.195,0.145
1568,0.145,0.015
1569,0.095,-0.005
1570,0.025,-0.075
1571,-0.045,-0.075
1572,-0.165,-0.125
1573,-0.225,-0.145
1574,-0.225,-0.175
1575,-0.255,-0.175
1576,-0.265,-0.185
1577,-0.245,-0.165
1578,-0.225,-0.155
1579,-0.195,-0.175
1580,-0.645,-0.105
1581,-0.885,0.065
1582,-0.205,0.355
1583,1.655,0.225
1584,2.925,-0.415
1585,2.895,-1.105
1586,1.175,-1.045
1587,0.105,-0.645
1588,-0.305,-0.215
1589,-0.455,-0.125
1590,-0.455,-0.135
1591,-0.475,-0.145
1592,-0.455,-0.145
1593,-0.445,-0.145
1594,-0.435,-0.125
1595,-0.405,-0.145
1596,-0.415,-0.145
1597,-0.395,-0.135
1598,-0.375,-0.135
1599,-0.395,-0.165
1600,-0.375,-0.155
1601,-0.385,-0.145
1602,-0.355,-0.175
1603,-0.335,-0.185
1604,-0.335,-0.195
1605,-0.325,-0.185
1606,-0.295,-0.205
1607,-0.285,-0.225
1608,-0.285,-0.235
1609,-0.285,-0.235
1610,-0.255,-0.245
1611,-0.265,-0.265
1612,-0.235,-0.225
1613,-0.205,-0.215
1614,-0.175,-0.205
1615,-0.115,-0.175
1616,-0.075,-0.135
1617,-0.085,-0.095
1618,-0.115,-0.085
1619,-0.125,-0.095
1620,-0.175,-0.095
1621,-0.185,-0.085
1622,-0.195,-0.105
1623,-0.195,-0.115
1624,-0.175,-0.115
1625,-0.175,-0.115
1626,-0.165,-0.115
1627,-0.165,-0.115
1628,-0.155,-0.105
1629,-0.155,-0.115
1630,-0.165,-0.105
1631,-0.145,-0.105
1632,-0.105,-0.105
1633,-0.135,-0.075
1634,-0.145,-0.095
1635,-0.165,-0.085
1636,-0.205,-0.105
1637,-0.175,-0.085
1638,-0.185,-0.085
1639,-0.195,-0.095
1640,-0.115,-0.055
1641,-0.115,0.045
1642,-0.095,0.075
1643,-0.015,0.075
1644,0.055,0.105
1645,0.085,-0.005
1646,0.035,-0.045
1647,-0.035,-0.095
1648,-0.095,-0.095
1649,-0.205,-0.125
1650,-0.315,-0.175
1651,-0.315,-0.195
1652,-0.315,-0.195
1653,-0.275,-0.185
1654,-0.285,-0.195
1655,-0.235,-0.185
1656,-0.295,-0.155
1657,-0.835,-0.055
1658,-0.685,0.195
1659,0.565,0.325
1660,2.455,0.145
1661,3.325,-0.625
1662,2.125,-1.145
1663,0.335,-0.895
1664,-0.235,-0.535
1665,-0.395,-0.215
1666,-0.445,-0.145
1667,-0.445,-0.175
1668,-0.435,-0.175
1669,-0.385,-0.165
1670,-0.395,-0.175
1671,-0.345,-0.185
1672,-0.345,-0.175
1673,-0.365,-0.175
1674,-0.335,-0.175
1675,-0.305,-0.185
1676,-0.265,-0.165
1677,-0.275,-0.145
1678,-0.255,-0.175
1679,-0.255,-0.175
1680,-0.235,-0.185
1681,-0.235,-0.185
1682,-0.235,-0.195
1683,-0.245,-0.215
1684,-0.245,-0.225
1685,-0.165,-0.235
1686,-0.165,-0.235
1687,-0.195,-0.255
1688,-0.185,-0.245
1689,-0.185,-0.235
1690,-0.145,-0.245
1691,-0.105,-0.225
1692,-0.055,-0.165
1693,-0.035,-0.125
1694,-0.055,-0.095
1695,-0.075,-0.075
1696,-0.065,-0.065
1697,-0.045,-0.035
1698,-0.095,-0.065
1699,-0.115,-0.065
1700,-0.095,-0.055
1701,-0.065,-0.055
1702,-0.065,-0.075
1703,-0.045,-0.065
1704,-0.035,-0.035
1705,-0.025,-0.005
1706,-0.015,-0.015
1707,-0.005,-0.045
1708,0.005,-0.055
1709,-0.035,-0.055
1710,0.015,-0.055
1711,0.005,-0.065
1712,0.015,-0.065
1713,0.045,-0.055
1714,0.085,0.015
1715,0.115,0.065
1716,0.135,0.105
1717,0.275,0.145
1718,0.295,0.085
1719,0.265,-0.035
1720,0.185,-0.045
1721,0.165,-0.075
1722,0.125,-0.085
1723,0.005,-0.135
1724,-0.115,-0.175
1725,-0.145,-0.175
1726,-0.135,-0.185
1727,-0.135,-0.195
1728,-0.095,-0.195
1729,-0.065,-0.185
1730,-0.165,-0.165
1731,-0.705,-0.025
1732,-0.695,0.205
1733,0.575,0.285
1734,2.565,-0.115
1735,3.425,-0.975
1736,2.865,-1.395
1737,0.855,-1.005
1738,0.015,-0.425
1739,-0.275,-0.105
1740,-0.335,-0.075
1741,-0.305,-0.085
1742,-0.275,-0.085
1743,-0.275,-0.105
1744,-0.285,-0.095
1745,-0.255,-0.085
1746,-0.255,-0.075
1747,-0.255,-0.085
1748,-0.245,-0.075
1749,-0.285,-0.065
1750,-0.245,-0.065
1751,-0.225,-0.085
1752,-0.205,-0.075
1753,-0.185,-0.055
1754,-0.185,-0.065
1755,-0.205,-0.085
1756,-0.185,-0.095
1757,-0.165,-0.075
1758,-0.175,-0.085
1759,-0.175,-0.105
1760,-0.165,-0.115
1761,-0.135,-0.085
1762,-0.105,-0.095
1763,-0.105,-0.085
1764,-0.085,-0.065
1765,-0.045,-0.025
1766,-0.005,-0.005
1767,0.015,0.015
1768,0.035,0.035
1769,0.015,0.055
1770,-0.035,0.045
1771,-0.045,0.035
1772,-0.045,0.025
1773,-0.035,0.025
1774,-0.045,0.005
1775,-0.035,0.005
1776,-0.005,0.005
1777,0.005,0.015
1778,0.005,0.025
1779,0.015,0.025
1780,0.025,0.025
1781,0.035,0.035
1782,0.025,0.025
1783,0.025,0.025
1784,0.045,0.015
1785,0.035,0.025
1786,0.025,0.025
1787,0.005,0.025
1788,0.025,0.045
1789,0.115,0.105
1790,0.155,0.165
1791,0.165,0.205
1792,0.315,0.235
1793,0.325,0.225
1794,0.275,0.105
1795,0.215,0.075
1796,0.155,0.035
1797,0.095,0.025
1798,-0.045,-0.035
1799,-0.155,-0.085
1800,-0.155,-0.105
1801,-0.135,-0.085
1802,-0.125,-0.085
1803,-0.115,-0.095
1804,-0.055,-0.085
1805,-0.295,-0.045
1806,-0.795,0.115
1807,-0.445,0.375
1808,1.155,0.165
1809,2.895,-0.515
1810,3.555,-1.285
1811,2.455,-1.285
1812,0.685,-0.705
1813,-0.035,-0.195
1814,-0.335,-0.005
1815,-0.375,-0.025
1816,-0.365,-0.045
1817,-0.345,-0.035
1818,-0.355,-0.055
1819,-0.325,-0.055
1820,-0.295,-0.045
1821,-0.285,-0.025
1822,-0.275,-0.035
1823,-0.295,-0.035
1824,-0.265,-0.025
1825,-0.225,-0.025
1826,-0.245,-0.035
1827,-0.245,-0.035
1828,-0.245,-0.035
1829,-0.225,-0.035
1830,-0.215,-0.025
1831,-0.205,-0.035
1832,-0.175,-0.025
1833,-0.145,-0.035
1834,-0.115,-0.025
1835,-0.125,-0.045
1836,-0.115,-0.025
1837,-0.105,-0.005
1838,-0.075,-0.005
1839,-0.045,0.005
1840,-0.005,0.025
1841,0.025,0.105
1842,0.025,0.095
1843,0.025,0.085
1844,0.005,0.075
1845,-0.015,0.085
1846,-0.025,0.065
1847,-0.035,0.055
1848,-0.035,0.045
1849,-0.005,0.055
1850,-0.005,0.045
1851,-0.035,0.035
1852,-0.025,0.025
1853,-0.005,0.045
1854,0.005,0.045
1855,0.005,0.025
1856,0.045,0.045
1857,0.025,0.055
1858,0.015,0.025
1859,0.025,0.035
1860,0.045,0.055
1861,0.025,0.035
1862,0.005,0.045
1863,-0.005,0.005
1864,-0.005,0.005
1865,-0.005,0.035
1866,-0.005,0.025
1867,0.055,0.025
1868,0.115,0.125
1869,0.135,0.185
1870,0.245,0.215
1871,0.315,0.275
1872,0.325,0.155
1873,0.255,0.105
1874,0.195,0.055
1875,0.105,0.025
1876,-0.035,-0.025
1877,-0.115,-0.065
1878,-0.115,-0.085
1879,-0.125,-0.085
1880,-0.105,-0.095
1881,-0.085,-0.095
1882,-0.075,-0.105
1883,-0.105,-0.115
1884,-0.585,-0.005
1885,-0.685,0.195
1886,0.405,0.385
1887,2.385,-0.025
1888,3.245,-0.925
1889,3.055,-1.335
1890,1.195,-1.125
1891,0.215,-0.505
1892,-0.195,-0.095
1893,-0.305,-0.005
1894,-0.315,-0.045
1895,-0.285,-0.065
1896,-0.285,-0.065
1897,-0.285,-0.045
1898,-0.305,-0.045
1899,-0.285,-0.045
1900,-0.255,-0.035
1901,-0.265,-0.015
1902,-0.235,-0.025
1903,-0.205,-0.025
1904,-0.215,-0.025
1905,-0.245,-0.005
1906,-0.235,-0.015
1907,-0.255,-0.005
1908,-0.215,-0.015
1909,-0.195,-0.015
1910,-0.165,0.005
1911,-0.155,-0.025
1912,-0.165,-0.005
1913,-0.105,0.005
1914,-0.085,0.005
1915,-0.095,0.015
1916,-0.075,0.035
1917,-0.045,0.025
1918,-0.015,0.065
1919,-0.005,0.085
1920,0.015,0.105
1921,0.035,0.105
1922,0.025,0.105
1923,-0.015,0.085
1924,-0.055,0.065
1925,-0.065,0.085
1926,-0.055,0.045
1927,-0.075,0.045
1928,-0.065,0.035
1929,-0.055,0.055
1930,-0.055,0.025
1931,-0.055,0.015
1932,-0.065,0.025
1933,-0.045,0.035
1934,-0.025,0.025
1935,0.015,0.025
1936,-0.005,0.045
1937,-0.025,0.035
1938,-0.025,0.035
1939,-0.045,0.025
1940,-0.045,0.025
1941,-0.025,0.025
1942,-0.025,0.035
1943,-0.015,0.005
1944,-0.035,0.015
1945,-0.045,0.015
1946,-0.035,0.015
1947,-0.065,-0.005
1948,-0.045,0.015
1949,0.055,0.075
1950,0.085,0.145
1951,0.145,0.185
1952,0.255,0.205
1953,0.275,0.215
1954,0.255,0.125
1955,0.205,0.075
1956,0.155,0.035
1957,0.045,0.015
1958,-0.085,-0.055
1959,-0.125,-0.095
1960,-0.145,-0.085
1961,-0.135,-0.085
1962,-0.145,-0.095
1963,-0.145,-0.085
1964,-0.105,-0.095
1965,-0.165,-0.065
1966,-0.665,0.035
1967,-0.585,0.235
1968,0.595,0.385
1969,2.465,-0.025
1970,3.235,-0.895
1971,2.605,-1.225
1972,0.905,-0.945
1973,0.065,-0.355
1974,-0.275,-0.045
1975,-0.355,-0.015
1976,-0.355,-0.025
1977,-0.315,0.005
1978,-0.305,-0.005
1979,-0.315,-0.055
1980,-0.315,-0.025
1981,-0.295,-0.015
1982,-0.285,0.005
1983,-0.295,0.005
1984,-0.275,-0.005
1985,-0.255,0.025
1986,-0.265,0.005
1987,-0.265,0.005
1988,-0.255,0.005
1989,-0.245,0.005
1990,-0.255,0.005
1991,-0.245,-0.005
1992,-0.215,0.005
1993,-0.205,0.035
1994,-0.195,0.015
1995,-0.215,-0.005
1996,-0.195,0.015
1997,-0.165,0.015
1998,-0.175,0.025
1999,-0.135,0.025
2000,-0.095,0.025
2001,-0.075,0.065
2002,-0.055,0.095
2003,-0.035,0.105
2004,-0.055,0.105
2005,-0.105,0.105
2006,-0.115,0.085
2007,-0.115,0.045
2008,-0.105,0.055
2009,-0.105,0.065
2010,-0.115,0.065
2011,-0.135,0.035
2012,-0.125,0.035
2013,-0.105,0.065
2014,-0.105,0.045
2015,-0.135,0.035
2016,-0.115,0.035
2017,-0.085,0.045
2018,-0.085,0.035
2019,-0.095,0.035
2020,-0.085,0.035
2021,-0.095,0.045
2022,-0.135,0.015
2023,-0.165,0.005
2024,-0.145,-0.005
2025,-0.115,0.005
2026,-0.115,0.005
2027,-0.145,-0.015
2028,-0.155,-0.025
2029,-0.165,-0.005
2030,-0.175,-0.025
2031,-0.175,-0.015
2032,-0.135,-0.015
2033,-0.045,0.055
2034,-0.005,0.115
2035,0.015,0.165
2036,0.145,0.185
2037,0.145,0.145
2038,0.085,0.095
2039,0.015,0.015
2040,-0.035,-0.005
2041,-0.155,-0.015
2042,-0.275,-0.085
2043,-0.305,-0.115
2044,-0.285,-0.095
2045,-0.295,-0.085
2046,-0.305,-0.095
2047,-0.265,-0.095
2048,-0.235,-0.105
2049,-0.485,-0.065
2050,-0.855,0.095
2051,-0.425,0.375
2052,1.345,0.235
2053,2.825,-0.445
2054,3.035,-1.235
2055,1.405,-1.205
2056,0.205,-0.685
2057,-0.255,-0.185
2058,-0.445,-0.025
2059,-0.485,-0.045
2060,-0.475,-0.065
2061,-0.465,-0.055
2062,-0.475,-0.075
2063,-0.465,-0.075
2064,-0.435,-0.075
2065,-0.455,-0.075
2066,-0.435,-0.065
2067,-0.465,-0.075
2068,-0.455,-0.085
2069,-0.435,-0.065
2070,-0.435,-0.075
2071,-0.405,-0.085
2072,-0.385,-0.095
2073,-0.385,-0.075
2074,-0.415,-0.085
2075,-0.385,-0.105
2076,-0.345,-0.115
2077,-0.325,-0.105
2078,-0.315,-0.105
2079,-0.275,-0.125
2080,-0.255,-0.115
2081,-0.265,-0.105
2082,-0.215,-0.105
2083,-0.215,-0.105
2084,-0.175,-0.105
2085,-0.125,-0.055
2086,-0.105,-0.025
2087,-0.095,-0.015
2088,-0.085,-0.035
2089,-0.125,-0.025
2090,-0.125,0.005
2091,-0.155,0.015
2092,-0.175,-0.005
2093,-0.175,0.005
2094,-0.185,-0.005
2095,-0.155,-0.015
2096,-0.125,-0.005
2097,-0.115,-0.005
2098,-0.135,-0.005
2099,-0.155,-0.025
2100,-0.135,-0.025
2101,-0.135,-0.005
2102,-0.135,-0.025
2103,-0.135,0.015
2104,-0.105,0.065
2105,-0.115,0.055
2106,-0.115,0.035
2107,-0.115,0.025
2108,-0.135,0.015
2109,-0.145,0.005
2110,-0.145,-0.015
2111,-0.145,-0.025
2112,-0.145,-0.035
2113,-0.155,-0.035
2114,-0.145,-0.025
2115,-0.155,-0.035
2116,-0.075,-0.025
2117,0.015,0.095
2118,0.035,0.145
2119,0.125,0.155
2120,0.195,0.195
2121,0.175,0.115
2122,0.105,0.045
2123,0.035,-0.015
2124,-0.005,-0.025
2125,-0.125,-0.045
2126,-0.205,-0.115
2127,-0.195,-0.135
2128,-0.185,-0.115
2129,-0.175,-0.105
2130,-0.145,-0.085
2131,-0.105,-0.125
2132,-0.155,-0.105
2133,-0.585,-0.025
2134,-0.475,0.225
2135,0.605,0.395
2136,2.415,0.185
2137,3.185,-0.675
2138,1.985,-1.135
2139,0.495,-0.875
2140,-0.055,-0.375
2141,-0.255,-0.065
2142,-0.305,-0.045
2143,-0.295,-0.065
2144,-0.265,-0.085
2145,-0.275,-0.085
2146,-0.265,-0.085
2147,-0.255,-0.085
2148,-0.255,-0.075
2149,-0.245,-0.065
2150,-0.225,-0.055
2151,-0.225,-0.055
2152,-0.245,-0.055
2153,-0.225,-0.065
2154,-0.235,-0.065
2155,-0.215,-0.065
2156,-0.195,-0.065
2157,-0.185,-0.065
2158,-0.165,-0.065
2159,-0.135,-0.075
2160,-0.125,-0.095
2161,-0.105,-0.095
2162,-0.115,-0.125
2163,-0.095,-0.115
2164,-0.065,-0.115
2165,-0.065,-0.105
2166,-0.075,-0.105
2167,-0.035,-0.105
2168,0.015,-0.065
2169,0.065,-0.035
2170,0.075,0.005
2171,0.055,0.015
2172,0.035,0.025
2173,0.015,0.035
2174,-0.015,0.045
2175,-0.035,0.015
2176,-0.015,0.015
2177,-0.015,0.035
2178,-0.025,0.005
2179,-0.005,-0.005
2180,0.005,0.005
2181,0.015,0.005
2182,0.015,0.005
2183,0.045,0.005
2184,0.025,-0.005
2185,0.005,-0.005
2186,-0.005,-0.015
2187,-0.015,-0.015
2188,-0.035,-0.025
2189,-0.045,-0.025
2190,-0.025,-0.025
2191,-0.035,-0.045
2192,-0.045,-0.035
2193,-0.075,-0.025
2194,-0.095,-0.035
2195,-0.095,-0.035
2196,-0.015,0.025
2197,0.025,0.105
2198,0.025,0.135
2199,0.145,0.145
2200,0.145,0.145
2201,0.145,0.045
2202,0.065,0.015
2203,0.015,-0.025
2204,-0.055,-0.005
2205,-0.165,-0.045
2206,-0.255,-0.075
2207,-0.255,-0.095
2208,-0.245,-0.065
2209,-0.225,-0.065
2210,-0.265,-0.075
2211,-0.215,-0.065
2212,-0.265,-0.055
2213,-0.735,0.045
2214,-0.715,0.245
2215,0.195,0.485
2216,2.195,0.325
2217,3.225,-0.455
2218,2.405,-1.145
2219,0.655,-0.955
2220,-0.085,-0.535
2221,-0.385,-0.115
2222,-0.465,-0.005
2223,-0.445,-0.035
2224,-0.425,-0.045
2225,-0.465,-0.025
2226,-0.475,-0.035
2227,-0.455,-0.045
2228,-0.445,-0.035
2229,-0.425,-0.005
2230,-0.435,-0.005
2231,-0.435,-0.015
2232,-0.425,-0.025
2233,-0.395,0.005
2234,-0.385,-0.005
2235,-0.385,-0.015
2236,-0.375,-0.025
2237,-0.385,-0.025
2238,-0.365,-0.045
2239,-0.365,-0.055
2240,-0.365,-0.105
2241,-0.345,-0.105
2242,-0.345,-0.125
2243,-0.355,-0.135
2244,-0.315,-0.145
2245,-0.295,-0.105
2246,-0.285,-0.115
2247,-0.285,-0.125
2248,-0.275,-0.075
2249,-0.205,-0.025
2250,-0.215,0.015
2251,-0.245,0.025
2252,-0.255,0.055
2253,-0.295,0.055
2254,-0.305,0.055
2255,-0.285,0.025
2256,-0.285,0.035
2257,-0.295,0.035
2258,-0.305,0.025
2259,-0.275,0.025
2260,-0.265,0.035
2261,-0.255,0.045
2262,-0.265,0.035
2263,-0.255,0.015
2264,-0.245,0.025
2265,-0.245,0.025
2266,-0.235,0.005
2267,-0.245,-0.005
2268,-0.285,-0.005
2269,-0.255,0.005
2270,-0.295,-0.005
2271,-0.305,-0.025
2272,-0.295,-0.005
2273,-0.315,0.015
2274,-0.315,0.005
2275,-0.195,0.055
2276,-0.185,0.135
2277,-0.185,0.185
2278,-0.085,0.195
2279,-0.005,0.215
2280,-0.005,0.105
2281,-0.065,0.075
2282,-0.105,0.025
2283,-0.225,-0.015
2284,-0.395,-0.075
2285,-0.475,-0.115
2286,-0.465,-0.125
2287,-0.455,-0.125
2288,-0.435,-0.115
2289,-0.425,-0.115
2290,-0.385,-0.125
2291,-0.485,-0.115
2292,-0.945,0.035
2293,-0.875,0.255
2294,0.175,0.335
2295,2.105,-0.055
2296,3.115,-0.965
2297,2.625,-1.335
2298,0.875,-1.145
2299,-0.065,-0.605
2300,-0.435,-0.195
2301,-0.585,-0.065
2302,-0.585,-0.105
2303,-0.585,-0.115
2304,-0.575,-0.125
2305,-0.595,-0.115
2306,-0.595,-0.125
2307,-0.565,-0.105
2308,-0.565,-0.125
2309,-0.545,-0.115
2310,-0.525,-0.105
2311,-0.525,-0.105
2312,-0.515,-0.115
2313,-0.475,-0.115
2314,-0.465,-0.105
2315,-0.465,-0.115
2316,-0.455,-0.115
2317,-0.445,-0.135
2318,-0.435,-0.145
2319,-0.415,-0.145
2320,-0.415,-0.155
2321,-0.375,-0.165
2322,-0.345,-0.185
2323,-0.325,-0.215
2324,-0.295,-0.215
2325,-0.275,-0.205
2326,-0.255,-0.185
2327,-0.225,-0.165
2328,-0.165,-0.175
2329,-0.175,-0.135
2330,-0.185,-0.105
2331,-0.185,-0.105
2332,-0.255,-0.125
2333,-0.265,-0.115
2334,-0.275,-0.135
2335,-0.275,-0.145
2336,-0.265,-0.135
2337,-0.245,-0.135
2338,-0.255,-0.145
2339,-0.225,-0.145
2340,-0.235,-0.145
2341,-0.225,-0.135
2342,-0.245,-0.155
2343,-0.205,-0.165
2344,-0.195,-0.155
2345,-0.195,-0.155
2346,-0.225,-0.175
2347,-0.245,-0.185
2348,-0.235,-0.175
2349,-0.235,-0.165
2350,-0.225,-0.185
2351,-0.265,-0.195
2352,-0.275,-0.195
2353,-0.235,-0.155
2354,-0.145,-0.085
2355,-0.165,-0.035
2356,-0.115,0.005
2357,0.045,0.055
2358,0.045,-0.065
2359,-0.035,-0.115
2360,-0.065,-0.165
2361,-0.095,-0.165
2362,-0.205,-0.205
2363,-0.365,-0.285
2364,-0.415,-0.325
2365,-0.385,-0.325
2366,-0.385,-0.325
2367,-0.385,-0.325
2368,-0.355,-0.325
2369,-0.285,-0.295
2370,-0.635,-0.255
2371,-0.935,-0.095
2372,-0.375,0.185
2373,1.325,0.025
2374,2.765,-0.575
2375,3.115,-1.335
2376,1.575,-1.295
2377,0.215,-0.895
2378,-0.305,-0.425
2379,-0.475,-0.245
2380,-0.525,-0.235
2381,-0.505,-0.235
2382,-0.505,-0.245
2383,-0.465,-0.245
2384,-0.485,-0.235
2385,-0.455,-0.215
2386,-0.455,-0.225
2387,-0.465,-0.225
2388,-0.455,-0.215
2389,-0.435,-0.195
2390,-0.425,-0.195
2391,-0.425,-0.205
2392,-0.395,-0.205
2393,-0.345,-0.185
2394,-0.335,-0.195
2395,-0.335,-0.205
2396,-0.305,-0.205
2397,-0.275,-0.205
2398,-0.285,-0.205
2399,-0.295,-0.225
2400,-0.275,-0.215
2401,-0.235,-0.205
2402,-0.215,-0.205
2403,-0.225,-0.195
2404,-0.175,-0.155
2405,-0.135,-0.125
2406,-0.125,-0.105
2407,-0.075,-0.075
2408,-0.085,-0.055
2409,-0.115,-0.035
2410,-0.175,-0.055
2411,-0.185,-0.065
2412,-0.165,-0.065
2413,-0.185,-0.065
2414,-0.185,-0.095
2415,-0.175,-0.095
2416,-0.145,-0.085
2417,-0.135,-0.075
2418,-0.145,-0.085
2419,-0.155,-0.095
2420,-0.155,-0.095
2421,-0.135,-0.095
2422,-0.115,-0.095
2423,-0.125,-0.115
2424,-0.105,-0.105
2425,-0.125,-0.115
2426,-0.145,-0.105
2427,-0.145,-0.105
2428,-0.165,-0.105
2429,-0.155,-0.085
2430,-0.165,-0.105
2431,-0.095,-0.095
2432,-0.045,-0.005
2433,-0.065,0.045
2434,-0.055,0.075
2435,0.115,0.105
2436,0.145,-0.005
2437,0.095,-0.025
2438,0.025,-0.075
2439,-0.035,-0.115
2440,-0.125,-0.135
2441,-0.265,-0.185
2442,-0.295,-0.215
2443,-0.295,-0.225
2444,-0.305,-0.215
2445,-0.275,-0.205
2446,-0.275,-0.195
2447,-0.225,-0.215
2448,-0.495,-0.175
2449,-0.915,-0.015
2450,-0.565,0.265
2451,1.005,0.245
2452,2.705,-0.145
2453,3.285,-1.045
2454,1.805,-1.215
2455,0.315,-0.875
2456,-0.235,-0.435
2457,-0.435,-0.165
2458,-0.435,-0.165
2459,-0.435,-0.185
2460,-0.445,-0.175
2461,-0.375,-0.165
2462,-0.365,-0.175
2463,-0.375,-0.185
2464,-0.365,-0.165
2465,-0.335,-0.145
2466,-0.315,-0.145
2467,-0.335,-0.165
2468,-0.335,-0.155
2469,-0.305,-0.155
2470,-0.295,-0.165
2471,-0.265,-0.185
2472,-0.265,-0.175
2473,-0.225,-0.175
2474,-0.215,-0.195
2475,-0.215,-0.195
2476,-0.225,-0.205
2477,-0.185,-0.195
2478,-0.145,-0.215
2479,-0.165,-0.225
2480,-0.135,-0.205
2481,-0.115,-0.175
2482,-0.115,-0.165
2483,-0.055,-0.145
2484,-0.055,-0.085
2485,-0.025,-0.045
2486,-0.035,-0.035
2487,-0.065,-0.035
2488,-0.075,-0.035
2489,-0.085,-0.025
2490,-0.105,-0.035
2491,-0.135,-0.045
2492,-0.155,-0.055
2493,-0.145,-0.045
2494,-0.115,-0.045
2495,-0.095,-0.045
2496,-0.105,-0.045
2497,-0.095,-0.055
2498,-0.085,-0.065
2499,-0.085,-0.075
2500,-0.075,-0.055
2501,-0.095,-0.055
2502,-0.065,-0.075
2503,-0.065,-0.075
2504,-0.065,-0.065
2505,-0.095,-0.065
2506,-0.085,-0.085
2507,-0.125,-0.055
2508,-0.095,-0.045
2509,0.005,0.025
2510,0.015,0.085
2511,0.035,0.105
2512,0.125,0.135
2513,0.175,0.105
2514,0.145,0.005
2515,0.065,-0.025
2516,0.035,-0.075
2517,-0.055,-0.085
2518,-0.195,-0.155
2519,-0.285,-0.195
2520,-0.265,-0.205
2521,-0.265,-0.195
2522,-0.245,-0.185
2523,-0.245,-0.195
2524,-0.235,-0.195
2525,-0.265,-0.175
2526,-0.765,-0.055
2527,-0.695,0.205
2528,0.395,0.205
2529,2.275,-0.165
2530,3.225,-1.085
2531,2.475,-1.315
2532,0.785,-0.985
2533,-0.035,-0.415
2534,-0.345,-0.135
2535,-0.435,-0.125
2536,-0.465,-0.135
2537,-0.475,-0.145
2538,-0.465,-0.145
2539,-0.435,-0.125
2540,-0.435,-0.125
2541,-0.415,-0.115
2542,-0.415,-0.115
2543,-0.395,-0.105
2544,-0.415,-0.115
2545,-0.395,-0.095
2546,-0.395,-0.095
2547,-0.365,-0.105
2548,-0.365,-0.105
2549,-0.345,-0.105
2550,-0.335,-0.095
2551,-0.305,-0.115
2552,-0.275,-0.115
2553,-0.285,-0.125
2554,-0.475,-0.145
2555,-0.395,-0.115
2556,-0.295,-0.105
2557,-0.175,-0.095
2558,-0.125,-0.115
2559,-0.145,-0.115
2560,-0.145,-0.095
2561,-0.125,-0.045
2562,-0.115,-0.035
2563,-0.135,-0.025
2564,-0.165,-0.005
2565,-0.205,-0.005
2566,-0.205,-0.035
2567,-0.265,-0.035
2568,-0.225,-0.055
2569,-0.245,-0.045
2570,-0.215,-0.055
2571,-0.245,-0.075
2572,-0.225,-0.065
2573,-0.185,-0.035
2574,-0.175,-0.055
2575,-0.175,-0.065
2576,-0.165,-0.065
2577,-0.175,-0.065
2578,-0.215,-0.075
2579,-0.465,-0.095
2580,-0.565,-0.075
2581,-0.665,-0.085
2582,-0.055,-0.065
2583,0.075,-0.095
2584,-0.145,-0.085
2585,-0.065,-0.075
2586,-0.145,-0.105
2587,-0.135,-0.095
2588,-0.065,0.015
2589,-0.095,0.065
2590,-0.075,0.075
2591,0.085,0.115
2592,0.105,0.005
2593,0.065,-0.035
2594,-0.005,-0.075
2595,-0.055,-0.115
2596,-0.145,-0.135
2597,-0.275,-0.185
2598,-0.335,-0.225
2599,-0.325,-0.235
2600,-0.345,-0.245
2601,-0.315,-0.235
2602,-0.375,-0.225
2603,-0.375,-0.245
2604,-0.435,-0.205
2605,-1.345,-0.045
2606,-0.545,0.245
2607,1.245,0.155
2608,2.855,-0.335
2609,3.245,-1.145
2610,1.665,-1.165
2611,0.255,-0.785
2612,-0.315,-0.325
2613,-0.475,-0.155
2614,-0.525,-0.165
2615,-0.505,-0.185
2616,-0.485,-0.185
2617,-0.485,-0.165
2618,-0.485,-0.185
2619,-0.495,-0.185
2620,-0.445,-0.155
2621,-0.475,-0.135
2622,-0.435,-0.145
2623,-0.395,-0.155
2624,-0.335,-0.155
2625,-0.405,-0.145
2626,-0.385,-0.165
2627,-0.365,-0.165
2628,-0.325,-0.185
2629,-0.405,-0.165
2630,-0.305,-0.175
2631,-0.315,-0.205
2632,-0.255,-0.215
2633,-0.205,-0.215
2634,-0.205,-0.215
2635,-0.205,-0.215
2636,-0.175,-0.205
2637,-0.165,-0.205
2638,-0.115,-0.185
2639,-0.095,-0.175
2640,-0.065,-0.145
2641,-0.095,-0.075
2642,-0.115,-0.055
2643,-0.115,-0.045
2644,-0.145,-0.035
2645,-0.135,-0.025
2646,-0.155,-0.015
2647,-0.195,-0.035
2648,-0.215,-0.045
2649,-0.215,-0.045
2650,-0.195,-0.035
2651,-0.165,-0.035
2652,-0.185,-0.045
2653,-0.135,-0.035
2654,-0.165,-0.035
2655,-0.165,-0.045
2656,-0.175,-0.055
2657,-0.165,-0.035
2658,-0.145,-0.055
2659,-0.135,-0.055
2660,-0.165,-0.055
2661,-0.175,-0.035
2662,-0.155,-0.045
2663,-0.205,-0.055
2664,-0.195,-0.065
2665,-0.135,-0.005
2666,-0.075,0.065
2667,-0.055,0.125
2668,-0.025,0.145
2669,0.115,0.205
2670,0.105,0.025
2671,0.035,0.005
2672,-0.075,-0.065
2673,-0.075,-0.055
2674,-0.215,-0.105
2675,-0.305,-0.155
2676,-0.335,-0.165
2677,-0.335,-0.165
2678,-0.315,-0.145
2679,-0.305,-0.145
2680,-0.295,-0.125
2681,-0.305,-0.125
2682,-0.805,-0.055
2683,-0.875,0.155
2684,0.145,0.365
2685,2.105,0.275
2686,3.165,-0.555
2687,2.295,-0.975
2688,0.635,-0.835
2689,-0.115,-0.415
2690,-0.425,-0.135
2691,-0.515,-0.095
2692,-0.565,-0.095
2693,-0.505,-0.095
2694,-0.475,-0.105
2695,-0.495,-0.105
2696,-0.455,-0.105
2697,-0.465,-0.095
2698,-0.465,-0.095
2699,-0.475,-0.085
2700,-0.425,-0.085
2701,-0.415,-0.085
2702,-0.405,-0.085
2703,-0.415,-0.095
2704,-0.405,-0.075
2705,-0.375,-0.095
2706,-0.375,-0.095
2707,-0.365,-0.115
2708,-0.355,-0.125
2709,-0.325,-0.135
2710,-0.315,-0.155
2711,-0.255,-0.155
2712,-0.255,-0.155
2713,-0.235,-0.145
2714,-0.195,-0.145
2715,-0.185,-0.145
2716,-0.145,-0.115
2717,-0.125,-0.065
2718,-0.115,-0.025
2719,-0.145,-0.005
2720,-0.175,0.015
2721,-0.165,0.035
2722,-0.225,0.025
2723,-0.225,-0.005
2724,-0.215,0.015
2725,-0.245,0.005
2726,-0.235,-0.005
2727,-0.235,-0.015
2728,-0.185,0.005
2729,-0.205,-0.005
2730,-0.195,-0.005
2731,-0.185,-0.005
2732,-0.185,-0.015
2733,-0.165,-0.005
2734,-0.215,-0.005
2735,-0.235,-0.015
2736,-0.185,-0.015
2737,-0.155,-0.005
2738,-0.175,-0.025
2739,-0.185,-0.025
2740,-0.205,-0.025
2741,-0.225,-0.015
2742,-0.165,0.015
2743,-0.115,0.105
2744,-0.095,0.145
2745,-0.045,0.185
2746,0.105,0.215
2747,0.075,0.065
2748,-0.015,0.025
2749,-0.085,-0.015
2750,-0.095,-0.035
2751,-0.195,-0.075
2752,-0.335,-0.125
2753,-0.365,-0.135
2754,-0.355,-0.125
2755,-0.325,-0.135
2756,-0.355,-0.135
2757,-0.305,-0.115
2758,-0.235,-0.115
2759,-0.675,-0.075
2760,-0.905,0.115
2761,-0.335,0.405
2762,1.445,0.285
2763,2.815,-0.345
2764,2.965,-1.035
2765,1.285,-0.965
2766,0.095,-0.565
2767,-0.335,-0.185
2768,-0.475,-0.085
2769,-0.475,-0.085
2770,-0.475,-0.095
2771,-0.525,-0.105
2772,-0.475,-0.095
2773,-0.485,-0.085
2774,-0.465,-0.085
2775,-0.435,-0.075
2776,-0.425,-0.065
2777,-0.415,-0.055
2778,-0.395,-0.075
2779,-0.405,-0.085
2780,-0.425,-0.085
2781,-0.405,-0.075
2782,-0.425,-0.095
2783,-0.395,-0.105
2784,-0.405,-0.105
2785,-0.365,-0.115
2786,-0.345,-0.125
2787,-0.315,-0.135
2788,-0.285,-0.135
2789,-0.285,-0.145
2790,-0.265,-0.145
2791,-0.235,-0.145
2792,-0.195,-0.135
2793,-0.155,-0.115
2794,-0.135,-0.085
2795,-0.105,-0.045
2796,-0.115,-0.015
2797,-0.145,0.025
2798,-0.165,0.035
2799,-0.185,0.025
2800,-0.215,0.025
2801,-0.215,0.025
2802,-0.225,0.015
2803,-0.235,0.005
2804,-0.205,0.015
2805,-0.175,0.025
2806,-0.185,0.005
2807,-0.185,-0.005
2808,-0.175,-0.015
2809,-0.145,0.025
2810,-0.175,0.015
2811,-0.135,0.005
2812,-0.135,-0.005
2813,-0.125,0.005
2814,-0.135,-0.005
2815,-0.155,-0.005
2816,-0.125,-0.005
2817,-0.135,0.005
2818,-0.145,-0.005
2819,-0.165,0.005
2820,-0.175,-0.015
2821,-0.175,0.005
2822,-0.065,0.065
2823,-0.045,0.135
2824,-0.035,0.175
2825,0.125,0.225
2826,0.175,0.165
2827,0.125,0.075
2828,0.045,0.045
2829,-0.005,-0.005
2830,-0.065,-0.015
2831,-0.215,-0.075
2832,-0.275,-0.105
2833,-0.265,-0.105
2834,-0.265,-0.105
2835,-0.235,-0.105
2836,-0.245,-0.105
2837,-0.205,-0.085
2838,-0.305,-0.055
2839,-0.715,0.055
2840,-0.525,0.345
2841,0.675,0.355
2842,2.495,-0.005
2843,3.265,-0.895
2844,1.925,-1.015
2845,0.395,-0.685
2846,-0.165,-0.255
2847,-0.335,-0.045
2848,-0.365,-0.035
2849,-0.365,-0.025
2850,-0.325,-0.045
2851,-0.335,-0.055
2852,-0.325,-0.045
2853,-0.315,-0.015
2854,-0.305,-0.035
2855,-0.295,-0.035
2856,-0.265,-0.025
2857,-0.275,-0.025
2858,-0.275,-0.025
2859,-0.225,-0.025
2860,-0.215,-0.025
2861,-0.225,-0.015
2862,-0.225,-0.035
2863,-0.185,-0.045
2864,-0.205,-0.045
2865,-0.135,-0.055
2866,-0.135,-0.065
2867,-0.075,-0.065
2868,-0.055,-0.065
2869,-0.055,-0.075
2870,-0.005,-0.075
2871,0.055,-0.065
2872,0.055,-0.035
2873,0.105,-0.005
2874,0.095,0.015
2875,0.085,0.025
2876,0.085,0.065
2877,0.055,0.075
2878,0.015,0.065
2879,-0.025,0.055
2880,-0.025,0.045
2881,-0.025,0.055
2882,0.005,0.045
2883,-0.025,0.045
2884,-0.015,0.035
2885,-0.005,0.045
2886,-0.005,0.025
2887,0.055,0.035
2888,-0.065,0.045
2889,-0.195,0.045
2890,-0.215,0.045
2891,-0.185,0.025
2892,-0.195,0.045
2893,-0.175,0.035
2894,-0.175,0.035
2895,-0.195,0.025
2896,-0.175,0.005
2897,-0.155,0.025
2898,-0.195,0.015
2899,-0.205,0.005
2900,-0.195,0.015
2901,-0.195,0.025
2902,-0.125,0.045
2903,-0.055,0.135
2904,-0.025,0.185
2905,0.035,0.215
2906,0.135,0.235
2907,0.135,0.125
2908,0.115,0.105
2909,0.035,0.055
2910,-0.015,0.025
2911,-0.135,-0.005
2912,-0.215,-0.065
2913,-0.245,-0.065
2914,-0.245,-0.065
2915,-0.255,-0.075
2916,-0.245,-0.065
2917,-0.245,-0.055
2918,-0.165,-0.055
2919,-0.525,0.015
2920,-0.785,0.205
2921,-0.175,0.455
2922,1.635,0.245
2923,2.905,-0.465
2924,3.205,-1.125
2925,1.605,-1.025
2926,0.305,-0.575
2927,-0.195,-0.145
2928,-0.375,0.015
2929,-0.365,0.005
2930,-0.375,-0.005
2931,-0.365,-0.025
2932,-0.355,-0.005
2933,-0.355,0.015
2934,-0.315,0.025
2935,-0.285,0.025
2936,-0.295,0.025
2937,-0.295,0.025
2938,-0.315,0.025
2939,-0.275,0.025
2940,-0.265,0.005
2941,-0.265,0.025
2942,-0.245,0.005
2943,-0.225,-0.005
2944,-0.225,0.015
2945,-0.205,0.005
2946,-0.175,-0.005
2947,-0.175,-0.015
2948,-0.145,-0.015
2949,-0.105,0.005
2950,-0.085,-0.005
2951,-0.095,-0.015
2952,-0.065,0.015
2953,-0.045,0.045
2954,-0.015,0.065
2955,-0.015,0.095
2956,-0.025,0.115
2957,-0.025,0.125
2958,-0.035,0.125
2959,-0.035,0.105
2960,-0.055,0.105
2961,-0.075,0.105
2962,-0.125,0.095
2963,-0.075,0.065
2964,-0.065,0.075
2965,-0.055,0.085
2966,-0.055,0.085
2967,-0.065,0.065
2968,-0.055,0.085
2969,-0.035,0.065
2970,-0.055,0.065
2971,-0.025,0.065
2972,-0.025,0.065
2973,-0.015,0.065
2974,0.005,0.055
2975,-0.035,0.045
2976,-0.015,0.045
2977,-0.035,0.045
2978,-0.055,0.035
2979,-0.075,0.025
2980,-0.065,0.025
2981,-0.075,0.045
2982,-0.065,0.035
2983,-0.055,0.035
2984,-0.055,0.025
2985,-0.055,0.055
2986,0.045,0.105
2987,0.055,0.165
2988,0.075,0.195
2989,0.225,0.245
2990,0.265,0.185
2991,0.255,0.115
2992,0.135,0.055
2993,0.095,0.015
2994,-0.035,0.005
2995,-0.145,-0.055
2996,-0.175,-0.085
2997,-0.165,-0.095
2998,-0.165,-0.085
2999,-0.175,-0.105
3000,-0.185,-0.085
3001,-0.125,-0.075
3002,-0.215,-0.065
3003,-0.625,0.075
3004,-0.455,0.345
3005,0.825,0.275
3006,2.485,-0.255
3007,3.275,-1.085
3008,2.265,-1.145
3009,0.695,-0.765
3010,0.005,-0.265
3011,-0.255,-0.035
3012,-0.305,-0.035
3013,-0.325,-0.035
3014,-0.315,-0.045
3015,-0.315,-0.045
3016,-0.315,-0.045
3017,-0.305,-0.035
3018,-0.295,-0.035
3019,-0.285,-0.035
3020,-0.265,-0.025
3021,-0.275,-0.005
3022,-0.255,-0.025
3023,-0.245,-0.015
3024,-0.255,-0.035
3025,-0.235,-0.015
3026,-0.235,-0.025
3027,-0.245,-0.045
3028,-0.195,-0.055
3029,-0.175,-0.035
3030,-0.165,-0.055
3031,-0.135,-0.065
3032,-0.115,-0.065
3033,-0.085,-0.065
3034,-0.055,-0.065
3035,-0.045,-0.055
3036,-0.025,-0.025
3037,0.025,-0.005
3038,0.025,0.015
3039,0.035,0.035
3040,0.015,0.045
3041,-0.015,0.095
3042,-0.055,0.055
3043,-0.095,0.055
3044,-0.065,0.045
3045,-0.095,0.045
3046,-0.095,0.015
3047,-0.095,0.025
3048,-0.075,0.025
3049,-0.125,0.035
3050,-0.085,0.025
3051,-0.025,0.005
3052,-0.055,0.015
3053,-0.045,0.025
3054,-0.055,0.015
3055,-0.055,0.005
3056,-0.055,0.005
3057,-0.025,0.025
3058,-0.035,-0.005
3059,-0.045,0.005
3060,-0.085,-0.005
3061,-0.075,0.005
3062,-0.075,-0.005
3063,-0.085,-0.025
3064,-0.135,-0.025
3065,-0.095,-0.015
3066,-0.075,-0.025
3067,-0.105,-0.035
3068,-0.115,-0.035
3069,-0.105,-0.015
3070,-0.105,-0.025
3071,-0.085,-0.005
3072,0.025,0.065
3073,0.065,0.145
3074,0.035,0.165
3075,0.175,0.175
3076,0.155,0.105
3077,0.125,0.055
3078,0.045,-0.035
3079,0.005,-0.035
3080,-0.075,-0.055
3081,-0.185,-0.085
3082,-0.205,-0.115
3083,-0.195,-0.115
3084,-0.195,-0.105
3085,-0.175,-0.095
3086,-0.135,-0.085
3087,-0.145,-0.075
3088,-0.595,0.045
3089,-0.575,0.285
3090,0.285,0.335
3091,2.075,0.105
3092,3.085,-0.735
3093,2.525,-1.135
3094,0.905,-0.935
3095,0.075,-0.435
3096,-0.225,-0.085
3097,-0.335,-0.045
3098,-0.355,-0.065
3099,-0.315,-0.065
3100,-0.315,-0.065
3101,-0.295,-0.055
3102,-0.305,-0.055
3103,-0.285,-0.055
3104,-0.255,-0.055
3105,-0.265,-0.045
3106,-0.245,-0.045
3107,-0.275,-0.055
3108,-0.255,-0.055
3109,-0.245,-0.045
3110,-0.215,-0.055
3111,-0.215,-0.065
3112,-0.215,-0.065
3113,-0.195,-0.065
3114,-0.195,-0.065
3115,-0.165,-0.075
3116,-0.155,-0.085
3117,-0.105,-0.095
3118,-0.065,-0.095
3119,-0.065,-0.095
3120,-0.035,-0.095
3121,-0.015,-0.075
3122,-0.005,-0.075
3123,0.025,-0.055
3124,0.055,-0.015
3125,0.045,0.025
3126,0.005,0.035
3127,-0.055,0.015
3128,-0.065,0.035
3129,-0.055,0.035
3130,-0.075,0.025
3131,-0.095,0.005
3132,-0.105,-0.005
3133,-0.085,0.015
3134,-0.085,0.015
3135,-0.075,-0.005
3136,-0.065,-0.005
3137,-0.045,0.005
3138,-0.015,-0.005
3139,-0.035,-0.015
3140,-0.065,-0.005
3141,-0.035,-0.005
3142,-0.065,-0.005
3143,-0.045,-0.015
3144,-0.045,-0.025
3145,-0.065,-0.015
3146,-0.075,-0.025
3147,-0.075,-0.045
3148,-0.085,-0.025
3149,-0.075,-0.025
3150,-0.095,-0.025
3151,-0.095,-0.045
3152,-0.095,-0.045
3153,-0.075,-0.035
3154,-0.085,-0.045
3155,-0.065,-0.055
3156,-0.085,-0.035
3157,-0.095,-0.025
3158,-0.105,-0.035
3159,-0.085,-0.045
3160,0.045,0.035
3161,0.105,0.135
3162,0.055,0.145
3163,0.155,0.145
3164,0.175,0.085
3165,0.175,0.045
3166,0.055,-0.045
3167,0.045,-0.075
3168,-0.005,-0.045
3169,-0.135,-0.095
3170,-0.175,-0.115
3171,-0.175,-0.125
3172,-0.165,-0.125
3173,-0.135,-0.115
3174,-0.105,-0.115
3175,-0.075,-0.115
3176,-0.425,-0.035
3177,-0.605,0.145
3178,-0.015,0.385
3179,1.565,0.195
3180,2.805,-0.465
3181,2.915,-1.145
3182,1.335,-1.045
3183,0.245,-0.565
3184,-0.165,-0.135
3185,-0.285,-0.045
3186,-0.275,-0.065
3187,-0.285,-0.075
3188,-0.285,-0.085
3189,-0.275,-0.055
3190,-0.265,-0.055
3191,-0.245,-0.075
3192,-0.235,-0.055
3193,-0.225,-0.045
3194,-0.205,-0.055
3195,-0.205,-0.065
3196,-0.205,-0.035
3197,-0.195,-0.035
3198,-0.175,-0.045
3199,-0.155,-0.055
3200,-0.155,-0.065
3201,-0.135,-0.055
3202,-0.145,-0.065
3203,-0.095,-0.075
3204,-0.065,-0.085
3205,-0.035,-0.075
3206,-0.015,-0.095
3207,-0.015,-0.115
3208,0.025,-0.095
3209,0.045,-0.075
3210,0.055,-0.065
3211,0.085,-0.065
3212,0.105,-0.035
3213,0.095,0.015
3214,0.085,0.015
3215,0.045,0.025
3216,0.035,0.025
3217,0.025,0.035
3218,-0.015,0.015
3219,-0.015,-0.005
3220,-0.015,-0.005
3221,0.015,-0.005
3222,-0.005,-0.025
3223,0.015,-0.025
3224,0.025,-0.025
3225,0.045,-0.005
3226,0.025,-0.005
3227,0.025,-0.015
3228,0.055,-0.005
3229,0.075,0.005
3230,0.045,-0.025
3231,0.045,-0.015
3232,0.035,-0.015
3233,0.045,-0.005
3234,0.015,-0.015
3235,0.005,-0.035
3236,0.005,-0.025
3237,0.015,-0.015
3238,0.005,-0.025
3239,-0.015,-0.035
3240,-0.005,-0.035
3241,-0.015,-0.025
3242,-0.015,-0.035
3243,-0.005,-0.035
3244,-0.015,-0.045
3245,-0.005,-0.035
3246,-0.015,-0.035
3247,-0.005,-0.025
3248,0.105,0.015
3249,0.165,0.115
3250,0.135,0.135
3251,0.245,0.145
3252,0.295,0.135
3253,0.305,0.075
3254,0.125,-0.005
3255,0.125,-0.055
3256,0.065,-0.035
3257,-0.055,-0.095
3258,-0.095,-0.125
3259,-0.085,-0.135
3260,-0.075,-0.125
3261,-0.065,-0.115
3262,-0.045,-0.115
3263,0.005,-0.105
3264,-0.435,0.005
3265,-0.555,0.225
3266,0.185,0.395
3267,2.085,0.125
3268,3.085,-0.785
3269,2.685,-1.275
3270,1.015,-0.985
3271,0.195,-0.425
3272,-0.125,-0.075
3273,-0.215,-0.025
3274,-0.185,-0.055
3275,-0.205,-0.055
3276,-0.205,-0.055
3277,-0.215,-0.045
3278,-0.205,-0.055
3279,-0.165,-0.055
3280,-0.155,-0.045
3281,-0.145,-0.035
3282,-0.135,-0.055
3283,-0.135,-0.035
3284,-0.145,-0.035
3285,-0.125,-0.025
3286,-0.155,-0.045
3287,-0.125,-0.045
3288,-0.095,-0.035
3289,-0.065,-0.045
3290,-0.085,-0.055
3291,-0.065,-0.075
3292,-0.045,-0.085
3293,-0.025,-0.075
3294,-0.015,-0.095
3295,-0.005,-0.095
3296,0.055,-0.085
3297,0.055,-0.075
3298,0.055,-0.065
3299,0.115,-0.055
3300,0.115,-0.015
3301,0.155,0.025
3302,0.145,0.045
3303,0.095,0.045
3304,0.065,0.045
3305,0.035,0.055
3306,0.015,0.035
3307,0.035,0.025
3308,0.015,0.045
3309,0.025,0.035
3310,0.035,0.035
3311,0.045,0.025
3312,0.035,0.025
3313,0.035,0.045
3314,0.045,0.045
3315,0.055,0.035
3316,0.095,0.035
3317,0.085,0.045
3318,0.065,0.045
3319,0.035,0.045
3320,0.055,0.035
3321,0.075,0.035
3322,0.055,0.045
3323,0.065,0.035
3324,0.015,0.035
3325,0.045,0.045
3326,0.015,0.035
3327,0.015,0.035
3328,0.035,0.045
3329,0.025,0.035
3330,-0.005,0.035
3331,-0.045,0.035
3332,0.035,0.055
3333,0.155,0.155
3334,0.155,0.205
3335,0.165,0.215
3336,0.315,0.245
3337,0.305,0.185
3338,0.275,0.135
3339,0.185,0.055
3340,0.125,0.025
3341,0.045,0.015
3342,-0.085,-0.045
3343,-0.165,-0.065
3344,-0.105,-0.065
3345,-0.065,-0.065
3346,-0.085,-0.055
3347,-0.105,-0.055
3348,-0.005,-0.055
3349,-0.305,0.015
3350,-0.625,0.195
3351,-0.105,0.445
3352,1.665,0.175
3353,2.975,-0.695
3354,2.955,-1.255
3355,1.215,-1.015
3356,0.255,-0.405
3357,-0.105,-0.025
3358,-0.245,0.025
3359,-0.285,-0.005
3360,-0.245,-0.025
3361,-0.205,-0.005
3362,-0.245,-0.015
3363,-0.255,-0.005
3364,-0.265,0.005
3365,-0.185,0.015
3366,-0.175,0.015
3367,-0.185,0.015
3368,-0.195,0.015
3369,-0.185,0.025
3370,-0.195,0.025
3371,-0.195,0.005
3372,-0.175,0.005
3373,-0.145,0.005
3374,-0.095,0.005
3375,-0.115,-0.005
3376,-0.075,-0.005
3377,-0.065,0.005
3378,-0.065,-0.005
3379,-0.025,-0.015
3380,0.005,-0.005
3381,0.015,0.005
3382,0.035,-0.005
3383,0.045,0.015
3384,0.095,0.025
3385,0.095,0.065
3386,0.105,0.085
3387,0.055,0.095
3388,0.015,0.095
3389,-0.005,0.105
3390,-0.045,0.085
3391,-0.055,0.055
3392,-0.095,0.065
3393,-0.055,0.065
3394,-0.025,0.065
3395,-0.035,0.055
3396,-0.035,0.065
3397,-0.045,0.055
3398,-0.045,0.045
3399,0.005,0.045
3400,0.015,0.045
3401,0.005,0.055
3402,-0.025,0.035
3403,-0.035,0.025
3404,-0.035,0.035
3405,-0.015,0.035
3406,-0.025,0.025
3407,-0.035,0.025
3408,-0.045,0.025
3409,-0.045,0.025
3410,-0.025,0.025
3411,-0.045,0.005
3412,-0.065,0.015
3413,-0.055,0.025
3414,-0.045,-0.005
3415,-0.065,0.005
3416,-0.075,0.005
3417,-0.055,0.025
3418,0.055,0.095
3419,0.105,0.165
3420,0.095,0.205
3421,0.235,0.235
3422,0.235,0.155
3423,0.205,0.095
3424,0.105,0.045
3425,0.085,-0.005
3426,0.005,-0.015
3427,-0.125,-0.085
3428,-0.195,-0.105
3429,-0.175,-0.105
3430,-0.165,-0.095
3431,-0.155,-0.105
3432,-0.125,-0.095
3433,-0.145,-0.075
3434,-0.165,-0.065
3435,-0.635,0.065
3436,-0.575,0.335
3437,0.685,0.295
3438,2.485,-0.225
3439,3.255,-1.135
3440,2.085,-1.145
3441,0.575,-0.675
3442,-0.045,-0.195
3443,-0.275,0.005
3444,-0.305,-0.005
3445,-0.305,-0.025
3446,-0.315,-0.025
3447,-0.285,-0.025
3448,-0.265,-0.035
3449,-0.285,-0.015
3450,-0.285,-0.015
3451,-0.285,-0.025
3452,-0.275,-0.015
3453,-0.275,0.015
3454,-0.235,-0.005
3455,-0.245,-0.015
3456,-0.235,-0.015
3457,-0.225,-0.005
3458,-0.205,-0.015
3459,-0.185,-0.025
3460,-0.175,-0.015
3461,-0.175,-0.025
3462,-0.135,-0.035
3463,-0.105,-0.055
3464,-0.085,-0.055
3465,-0.085,-0.035
3466,-0.065,-0.035
3467,-0.015,-0.025
3468,0.025,-0.025
3469,0.045,0.015
3470,0.065,0.035
3471,0.055,0.055
3472,0.005,0.075
3473,-0.025,0.085
3474,-0.055,0.075
3475,-0.065,0.065
3476,-0.095,0.065
3477,-0.105,0.055
3478,-0.095,0.045
3479,-0.095,0.035
3480,-0.115,0.045
3481,-0.115,0.045
3482,-0.095,0.025
3483,-0.075,0.015
3484,-0.075,0.035
3485,-0.065,0.035
3486,-0.045,0.025
3487,-0.035,0.015
3488,-0.055,0.005
3489,-0.085,0.015
3490,-0.065,0.015
3491,-0.065,0.015
3492,-0.085,0.005
3493,-0.065,0.005
3494,-0.075,0.005
3495,-0.085,-0.005
3496,-0.095,-0.015
3497,-0.115,-0.005
3498,-0.105,-0.015
3499,-0.105,-0.015
3500,-0.115,-0.015
3501,-0.125,-0.005
3502,-0.055,0.015
3503,0.015,0.125
3504,0.045,0.165
3505,0.025,0.205
3506,0.185,0.225
3507,0.215,0.115
3508,0.125,0.105
3509,0.105,0.035
3510,0.065,-0.015
3511,-0.055,-0.035
3512,-0.175,-0.085
3513,-0.205,-0.125
3514,-0.225,-0.115
3515,-0.205,-0.115
3516,-0.195,-0.105
3517,-0.175,-0.095
3518,-0.135,-0.095
3519,-0.285,-0.085
3520,-0.695,0.065
3521,-0.445,0.345
3522,0.825,0.265
3523,2.405,-0.225
3524,3.015,-1.035
3525,1.935,-1.065
3526,0.575,-0.705
3527,-0.015,-0.275
3528,-0.275,-0.055
3529,-0.335,-0.045
3530,-0.335,-0.055
3531,-0.335,-0.075
3532,-0.355,-0.065
3533,-0.325,-0.065
3534,-0.305,-0.065
3535,-0.295,-0.065
3536,-0.275,-0.045
3537,-0.295,-0.045
3538,-0.265,-0.045
3539,-0.255,-0.045
3540,-0.285,-0.035
3541,-0.235,-0.035
3542,-0.215,-0.035
3543,-0.215,-0.055
3544,-0.215,-0.055
3545,-0.185,-0.045
3546,-0.175,-0.055
3547,-0.165,-0.065
3548,-0.165,-0.075
3549,-0.115,-0.065
3550,-0.075,-0.075
3551,-0.055,-0.075
3552,-0.035,-0.075
3553,-0.015,-0.045
3554,-0.005,-0.035
3555,0.035,-0.025
3556,0.025,0.015
3557,0.015,0.045
3558,-0.025,0.055
3559,-0.045,0.045
3560,-0.075,0.045
3561,-0.105,0.055
3562,-0.105,0.025
3563,-0.125,0.025
3564,-0.125,0.005
3565,-0.095,0.025
3566,-0.065,0.015
3567,-0.095,0.005
3568,-0.065,0.015
3569,-0.055,0.005
3570,-0.075,0.015
3571,-0.055,0.005
3572,-0.065,-0.005
3573,-0.055,0.005
3574,-0.045,0.005
3575,-0.045,-0.015
3576,-0.045,-0.015
3577,-0.065,-0.005
3578,-0.075,-0.025
3579,-0.085,-0.025
3580,-0.115,-0.025
3581,-0.095,-0.015
3582,-0.075,-0.035
3583,-0.095,-0.035
3584,-0.075,-0.045
3585,-0.085,-0.025
3586,-0.095,-0.045
3587,-0.105,-0.055
3588,-0.095,-0.045
3589,-0.075,-0.025
3590,-0.005,0.055
3591,0.055,0.125
3592,0.075,0.145
3593,0.195,0.175
3594,0.185,0.085
3595,0.205,0.045
3596,0.125,-0.015
3597,0.085,-0.045
3598,-0.085,-0.075
3599,-0.155,-0.125
3600,-0.175,-0.145
3601,-0.165,-0.125
3602,-0.165,-0.145
3603,-0.175,-0.145
3604,-0.155,-0.125
3605,-0.075,-0.105
3606,-0.405,-0.075
3607,-0.635,0.115
3608,-0.015,0.385
3609,1.645,0.165
3610,2.825,-0.665
3611,2.845,-1.305
3612,1.335,-1.095
3613,0.295,-0.575
3614,-0.145,-0.165
3615,-0.295,-0.045
3616,-0.295,-0.075
3617,-0.295,-0.085
3618,-0.295,-0.085
3619,-0.315,-0.095
3620,-0.315,-0.085
3621,-0.285,-0.065
3622,-0.285,-0.075
3623,-0.265,-0.075
3624,-0.255,-0.065
3625,-0.255,-0.045
3626,-0.245,-0.065
3627,-0.245,-0.065
3628,-0.235,-0.065
3629,-0.195,-0.055
3630,-0.205,-0.075
3631,-0.225,-0.075
3632,-0.175,-0.075
3633,-0.145,-0.075
3634,-0.155,-0.085
3635,-0.115,-0.115
3636,-0.085,-0.105
3637,-0.065,-0.095
3638,-0.075,-0.085
3639,-0.065,-0.075
3640,-0.015,-0.075
3641,0.035,-0.035
3642,0.045,-0.015
3643,0.065,0.015
3644,0.025,0.025
3645,0.005,0.045
3646,-0.035,0.035
3647,-0.045,0.025
3648,-0.065,0.025
3649,-0.085,0.025
3650,-0.085,0.015
3651,-0.045,0.005
3652,-0.055,0.005
3653,-0.055,0.015
3654,-0.035,0.005
3655,-0.045,0.005
3656,-0.005,0.005
3657,0.005,0.025
3658,0.005,0.005
3659,-0.025,-0.015
3660,-0.025,-0.005
3661,-0.055,0.005
3662,-0.015,-0.005
3663,0.005,-0.025
3664,-0.005,-0.015
3665,-0.015,-0.005
3666,-0.035,-0.005
3667,-0.085,-0.025
3668,-0.065,-0.015
3669,-0.025,-0.015
3670,-0.045,-0.025
3671,-0.075,-0.035
3672,-0.055,-0.025
3673,-0.085,-0.015
3674,-0.105,-0.025
3675,-0.025,-0.005
3676,0.075,0.075
3677,0.105,0.145
3678,0.095,0.145
3679,0.215,0.175
3680,0.255,0.085
3681,0.185,0.055
3682,0.105,-0.025
3683,0.065,-0.025
3684,-0.035,-0.045
3685,-0.145,-0.085
3686,-0.155,-0.115
3687,-0.145,-0.115
3688,-0.135,-0.105
3689,-0.115,-0.105
3690,-0.115,-0.085
3691,-0.095,-0.085
3692,-0.505,0.035
3693,-0.625,0.275
3694,0.375,0.365
3695,2.295,-0.055
3696,3.175,-0.945
3697,2.475,-1.225
3698,0.765,-0.855
3699,0.025,-0.345
3700,-0.255,-0.035
3701,-0.305,-0.005
3702,-0.275,-0.035
3703,-0.295,-0.055
3704,-0.285,-0.035
3705,-0.255,-0.035
3706,-0.315,-0.035
3707,-0.275,-0.045
3708,-0.255,-0.025
3709,-0.235,-0.015
3710,-0.245,-0.025
3711,-0.235,-0.035
3712,-0.235,-0.025
3713,-0.235,-0.005
3714,-0.235,-0.015
3715,-0.195,-0.025
3716,-0.195,-0.025
3717,-0.185,-0.035
3718,-0.145,-0.045
3719,-0.155,-0.055
3720,-0.135,-0.055
3721,-0.105,-0.045
3722,-0.085,-0.055
3723,-0.075,-0.065
3724,-0.055,-0.055
3725,-0.035,-0.025
3726,-0.015,-0.025
3727,-0.005,-0.015
3728,0.015,0.015
3729,-0.005,0.055
3730,-0.025,0.075
3731,-0.065,0.065
3732,-0.095,0.065
3733,-0.105,0.065
3734,-0.125,0.045
3735,-0.135,0.035
3736,-0.135,0.035
3737,-0.125,0.045
3738,-0.115,0.025
3739,-0.095,0.005
3740,-0.075,0.025
3741,-0.055,0.035
3742,-0.065,0.025
3743,-0.055,0.025
3744,-0.055,0.025
3745,-0.045,0.025
3746,-0.055,0.015
3747,-0.055,0.015
3748,-0.075,0.015
3749,-0.065,0.025
3750,-0.045,0.005
3751,-0.085,0.005
3752,-0.085,-0.005
3753,-0.085,0.005
3754,-0.075,0.005
3755,-0.115,0.005
3756,-0.115,0.005
3757,-0.095,0.005
3758,-0.105,-0.005
3759,-0.105,-0.015
3760,-0.105,-0.015
3761,-0.145,0.005
3762,-0.135,-0.005
3763,-0.125,-0.005
3764,-0.045,0.035
3765,0.035,0.125
3766,0.055,0.165
3767,0.085,0.175
3768,0.205,0.185
3769,0.205,0.105
3770,0.115,0.075
3771,0.025,-0.025
3772,-0.055,-0.015
3773,-0.125,-0.055
3774,-0.185,-0.085
3775,-0.225,-0.105
3776,-0.205,-0.105
3777,-0.195,-0.095
3778,-0.195,-0.095
3779,-0.185,-0.095
3780,-0.175,-0.075
3781,-0.665,0.065
3782,-0.655,0.325
3783,0.365,0.265
3784,2.195,-0.195
3785,3.125,-1.095
3786,2.585,-1.315
3787,0.835,-0.875
3788,-0.005,-0.275
3789,-0.305,-0.005
3790,-0.375,-0.015
3791,-0.395,-0.045
3792,-0.365,-0.055
3793,-0.365,-0.045
3794,-0.365,-0.045
3795,-0.365,-0.045
3796,-0.345,-0.035
3797,-0.335,-0.015
3798,-0.345,-0.025
3799,-0.345,-0.025
3800,-0.335,-0.025
3801,-0.325,-0.015
3802,-0.285,-0.025
3803,-0.295,-0.025
3804,-0.285,-0.025
3805,-0.255,-0.015
3806,-0.265,-0.045
3807,-0.225,-0.045
3808,-0.215,-0.035
3809,-0.185,-0.025
3810,-0.185,-0.035
3811,-0.135,-0.045
3812,-0.115,-0.025
3813,-0.095,-0.005
3814,-0.085,-0.015
3815,-0.095,-0.005
3816,-0.035,0.015
3817,-0.015,0.055
3818,-0.045,0.065
3819,-0.055,0.065
3820,-0.105,0.065
3821,-0.135,0.075
3822,-0.145,0.055
3823,-0.185,0.035
3824,-0.175,0.025
3825,-0.175,0.035
3826,-0.185,0.015
3827,-0.165,0.015
3828,-0.175,0.005
3829,-0.145,0.015
3830,-0.155,0.015
3831,-0.155,0.005
3832,-0.125,0.015
3833,-0.145,0.025
3834,-0.155,0.005
3835,-0.125,0.005
3836,-0.145,0.005
3837,-0.125,0.005
3838,-0.135,0.005
3839,-0.125,-0.005
3840,-0.115,-0.015
3841,-0.125,0.005
3842,-0.145,-0.015
3843,-0.175,-0.035
3844,-0.185,-0.035
3845,-0.155,-0.025
3846,-0.185,-0.025
3847,-0.205,-0.045
3848,-0.175,-0.045
3849,-0.195,-0.035
3850,-0.195,-0.025
3851,-0.195,-0.045
3852,-0.205,-0.035
3853,-0.175,-0.045
3854,-0.205,-0.035
3855,-0.165,-0.045
3856,-0.175,-0.055
3857,-0.175,-0.035
3858,-0.065,0.035
3859,-0.045,0.125
3860,-0.045,0.135
3861,0.075,0.155
3862,0.095,0.105
3863,0.105,0.045
3864,-0.055,-0.045
3865,-0.065,-0.065
3866,-0.135,-0.045
3867,-0.255,-0.105
3868,-0.285,-0.125
3869,-0.255,-0.115
3870,-0.235,-0.105
3871,-0.255,-0.105
3872,-0.225,-0.095
3873,-0.205,-0.065
3874,-0.675,0.035
3875,-0.695,0.245
3876,0.305,0.305
3877,2.215,-0.035
3878,3.155,-0.835
3879,2.175,-1.025
3880,0.505,-0.655
3881,-0.155,-0.165
3882,-0.385,0.015
3883,-0.425,0.005
3884,-0.425,0.005
3885,-0.425,0.005
3886,-0.385,0.015
3887,-0.405,0.005
3888,-0.395,0.005
3889,-0.375,0.025
3890,-0.345,0.025
3891,-0.365,0.015
3892,-0.365,0.005
3893,-0.345,0.025
3894,-0.345,0.005
3895,-0.345,-0.005
3896,-0.325,-0.005
3897,-0.295,-0.005
3898,-0.315,-0.015
3899,-0.275,-0.035
3900,-0.275,-0.045
3901,-0.265,-0.045
3902,-0.235,-0.045
3903,-0.205,-0.065
3904,-0.175,-0.065
3905,-0.135,-0.055
3906,-0.145,-0.055
3907,-0.105,-0.045
3908,-0.075,-0.025
3909,-0.035,0.005
3910,-0.055,0.015
3911,-0.105,0.045
3912,-0.125,0.055
3913,-0.165,0.055
3914,-0.225,0.025
3915,-0.225,0.015
3916,-0.255,0.025
3917,-0.235,0.025
3918,-0.215,-0.005
3919,-0.205,-0.005
3920,-0.215,-0.015
3921,-0.205,-0.015
3922,-0.225,-0.015
3923,-0.215,-0.025
3924,-0.235,-0.015
3925,-0.175,-0.025
3926,-0.165,-0.025
3927,-0.175,-0.025
3928,-0.165,-0.025
3929,-0.175,-0.015
3930,-0.195,-0.025
3931,-0.195,-0.035
3932,-0.195,-0.035
3933,-0.205,-0.025
3934,-0.205,-0.035
3935,-0.215,-0.045
3936,-0.185,-0.045
3937,-0.195,-0.045
3938,-0.205,-0.045
3939,-0.225,-0.055
3940,-0.235,-0.055
3941,-0.225,-0.035
3942,-0.245,-0.065
3943,-0.245,-0.065
3944,-0.225,-0.065
3945,-0.225,-0.045
3946,-0.225,-0.065
3947,-0.215,-0.075
3948,-0.215,-0.065
3949,-0.195,-0.065
3950,-0.205,-0.065
3951,-0.225,-0.075
3952,-0.175,-0.065
3953,-0.145,-0.015
3954,-0.035,0.075
3955,-0.025,0.095
3956,0.015,0.115
3957,0.075,0.115
3958,0.045,0.025
3959,-0.035,-0.025
3960,-0.045,-0.105
3961,-0.095,-0.055
3962,-0.205,-0.105
3963,-0.275,-0.145
3964,-0.285,-0.155
3965,-0.245,-0.145
3966,-0.235,-0.155
3967,-0.235,-0.145
3968,-0.175,-0.135
3969,-0.535,-0.065
3970,-0.735,0.125
3971,-0.135,0.365
3972,1.585,0.125
3973,2.785,-0.645
3974,2.615,-1.265
3975,0.955,-1.085
3976,0.075,-0.505
3977,-0.265,-0.115
3978,-0.405,-0.075
3979,-0.395,-0.115
3980,-0.385,-0.125
3981,-0.395,-0.095
3982,-0.395,-0.105
3983,-0.405,-0.105
3984,-0.395,-0.095
3985,-0.365,-0.085
3986,-0.355,-0.095
3987,-0.365,-0.095
3988,-0.355,-0.095
3989,-0.345,-0.085
3990,-0.345,-0.095
3991,-0.325,-0.095
3992,-0.325,-0.105
3993,-0.305,-0.105
3994,-0.295,-0.105
3995,-0.295,-0.125
3996,-0.265,-0.115
3997,-0.225,-0.105
3998,-0.195,-0.125
3999,-0.185,-0.145
4000,-0.125,-0.125
4001,-0.105,-0.125
4002,-0.165,-0.125
4003,-0.075,-0.105
4004,-0.015,-0.075
4005,-0.025,-0.045
4006,-0.055,-0.025
4007,-0.125,-0.015
4008,-0.155,-0.005
4009,-0.205,0.005
4010,-0.215,-0.025
4011,-0.265,-0.035
4012,-0.235,-0.045
4013,-0.225,-0.035
4014,-0.215,-0.055
4015,-0.225,-0.075
4016,-0.225,-0.085
4017,-0.215,-0.075
4018,-0.245,-0.075
4019,-0.205,-0.095
4020,-0.165,-0.085
4021,-0.165,-0.075
4022,-0.165,-0.085
4023,-0.145,-0.095
4024,-0.175,-0.095
4025,-0.175,-0.095
4026,-0.175,-0.105
4027,-0.195,-0.105
4028,-0.185,-0.145
4029,-0.195,-0.125
4030,-0.205,-0.105
4031,-0.245,-0.125
4032,-0.235,-0.125
4033,-0.215,-0.115
4034,-0.225,-0.135
4035,-0.205,-0.145
4036,-0.255,-0.125
4037,-0.245,-0.115
4038,-0.235,-0.145
4039,-0.245,-0.155
4040,-0.235,-0.135
4041,-0.225,-0.115
4042,-0.215,-0.145
4043,-0.255,-0.145
4044,-0.215,-0.135
4045,-0.225,-0.135
4046,-0.205,-0.135
4047,-0.205,-0.145
4048,-0.135,-0.115
4049,-0.035,0.005
4050,-0.055,0.025
4051,-0.025,0.025
4052,0.055,0.045
4053,0.085,-0.035
4054,-0.015,-0.075
4055,-0.105,-0.175
4056,-0.105,-0.125
4057,-0.215,-0.165
4058,-0.285,-0.215
4059,-0.315,-0.225
4060,-0.245,-0.205
4061,-0.195,-0.195
4062,-0.215,-0.195
4063,-0.175,-0.195
4064,-0.415,-0.175
4065,-0.715,0.005
4066,-0.315,0.295
4067,1.165,0.205
4068,2.585,-0.305
4069,3.105,-1.185
4070,1.625,-1.275
4071,0.265,-0.815
4072,-0.235,-0.325
4073,-0.405,-0.115
4074,-0.395,-0.155
4075,-0.365,-0.175
4076,-0.395,-0.175
4077,-0.385,-0.145
4078,-0.375,-0.145
4079,-0.375,-0.165
4080,-0.335,-0.175
4081,-0.325,-0.155
4082,-0.335,-0.155
4083,-0.325,-0.165
4084,-0.315,-0.155
4085,-0.295,-0.145
4086,-0.305,-0.155
4087,-0.305,-0.165
4088,-0.275,-0.165
4089,-0.275,-0.165
4090,-0.245,-0.165
4091,-0.255,-0.185
4092,-0.205,-0.195
4093,-0.205,-0.195
4094,-0.175,-0.195
4095,-0.145,-0.195
4096,-0.085,-0.185
4097,-0.065,-0.175
4098,-0.065,-0.175
4099,-0.015,-0.165
4100,-0.025,-0.135
4101,-0.045,-0.095
4102,-0.035,-0.085
4103,-0.095,-0.085
4104,-0.145,-0.085
4105,-0.145,-0.075
4106,-0.175,-0.095
4107,-0.185,-0.095
4108,-0.185,-0.105
4109,-0.175,-0.115
4110,-0.215,-0.145
4111,-0.165,-0.155
4112,-0.135,-0.195
4113,-0.125,-0.255
4114,-0.135,-0.255
4115,-0.115,-0.245
4116,-0.105,-0.235
4117,-0.095,-0.245
4118,-0.125,-0.255
4119,-0.115,-0.265
4120,-0.115,-0.255
4121,-0.125,-0.245
4122,-0.125,-0.255
4123,-0.125,-0.255
4124,-0.115,-0.255
4125,-0.115,-0.235
4126,-0.115,-0.245
4127,-0.135,-0.255
4128,-0.145,-0.255
4129,-0.155,-0.255
4130,-0.175,-0.255
4131,-0.145,-0.255
4132,-0.165,-0.245
4133,-0.145,-0.235
4134,-0.175,-0.245
4135,-0.175,-0.245
4136,-0.145,-0.235
4137,-0.165,-0.215
4138,-0.105,-0.205
4139,-0.005,-0.125
4140,-0.015,-0.065
4141,0.005,-0.055
4142,0.065,-0.045
4143,0.125,-0.135
4144,-0.005,-0.155
4145,-0.025,-0.215
4146,-0.055,-0.195
4147,-0.185,-0.235
4148,-0.255,-0.265
4149,-0.255,-0.255
4150,-0.225,-0.245
4151,-0.185,-0.255
4152,-0.185,-0.235
4153,-0.145,-0.215
4154,-0.385,-0.185
4155,-0.715,-0.025
4156,-0.255,0.245
4157,1.515,0.155
4158,2.775,-0.455
4159,3.005,-1.235
4160,1.295,-1.245
4161,0.155,-0.785
4162,-0.225,-0.355
4163,-0.335,-0.145
4164,-0.325,-0.135
4165,-0.355,-0.145
4166,-0.365,-0.155
4167,-0.355,-0.155
4168,-0.345,-0.145
4169,-0.345,-0.125
4170,-0.345,-0.135
4171,-0.325,-0.135
4172,-0.305,-0.125
4173,-0.315,-0.115
4174,-0.305,-0.125
4175,-0.285,-0.125
4176,-0.275,-0.135
4177,-0.275,-0.125
4178,-0.245,-0.135
4179,-0.245,-0.135
4180,-0.235,-0.145
4181,-0.205,-0.125
4182,-0.195,-0.135
4183,-0.145,-0.145
4184,-0.125,-0.155
4185,-0.115,-0.155
4186,-0.095,-0.145
4187,-0.065,-0.145
4188,-0.045,-0.135
4189,-0.025,-0.115
4190,-0.065,-0.095
4191,-0.025,-0.065
4192,-0.045,-0.045
4193,-0.095,-0.005
4194,-0.125,-0.015
4195,-0.165,-0.025
4196,-0.185,-0.035
4197,-0.185,-0.025
4198,-0.175,-0.035
4199,-0.185,-0.045
4200,-0.175,-0.045
4201,-0.155,-0.035
4202,-0.165,-0.035
4203,-0.175,-0.045
4204,-0.125,-0.045
4205,-0.085,-0.015
4206,-0.085,-0.045
4207,-0.115,-0.045
4208,-0.135,-0.035
4209,-0.105,-0.025
4210,-0.095,-0.045
4211,-0.115,-0.055
4212,-0.115,-0.055
4213,-0.125,-0.045
4214,-0.125,-0.045
4215,-0.125,-0.055
4216,-0.125,-0.055
4217,-0.145,-0.055
4218,-0.155,-0.055
4219,-0.145,-0.055
4220,-0.145,-0.055
4221,-0.175,-0.055
4222,-0.175,-0.055
4223,-0.145,-0.065
4224,-0.165,-0.065
4225,-0.155,-0.055
4226,-0.165,-0.065
4227,-0.165,-0.065
4228,-0.175,-0.055
4229,-0.095,-0.015
4230,0.005,0.085
4231,0.005,0.125
4232,0.045,0.135
4233,0.135,0.145
4234,0.125,0.055
4235,0.025,0.005
4236,-0.025,-0.075
4237,-0.045,-0.045
4238,-0.165,-0.085
4239,-0.265,-0.135
4240,-0.245,-0.145
4241,-0.225,-0.125
4242,-0.215,-0.135
4243,-0.195,-0.125
4244,-0.155,-0.115
4245,-0.275,-0.105
4246,-0.725,0.045
4247,-0.555,0.305
4248,0.685,0.235
4249,2.335,-0.285
4250,3.115,-1.175
4251,2.445,-1.345
4252,0.765,-0.935
4253,0.005,-0.325
4254,-0.295,-0.045
4255,-0.385,-0.045
4256,-0.405,-0.075
4257,-0.385,-0.065
4258,-0.365,-0.065
4259,-0.375,-0.075
4260,-0.365,-0.065
4261,-0.365,-0.045
4262,-0.345,-0.055
4263,-0.335,-0.055
4264,-0.315,-0.055
4265,-0.345,-0.035
4266,-0.315,-0.045
4267,-0.285,-0.045
4268,-0.315,-0.055
4269,-0.285,-0.045
4270,-0.275,-0.025
4271,-0.265,-0.055
4272,-0.245,-0.045
4273,-0.215,-0.035
4274,-0.195,-0.035
4275,-0.165,-0.045
4276,-0.185,-0.035
4277,-0.105,-0.035
4278,-0.055,-0.025
4279,-0.035,-0.025
4280,-0.025,-0.005
4281,-0.015,0.025
4282,0.005,0.025
4283,0.005,0.045
4284,-0.035,0.055
4285,-0.075,0.055
4286,-0.135,0.035
4287,-0.195,0.005
4288,-0.215,0.005
4289,-0.165,0.005
4290,-0.145,-0.005
4291,-0.175,-0.025
4292,-0.155,-0.015
4293,-0.145,-0.005
4294,-0.165,-0.035
4295,-0.185,-0.045
4296,-0.115,-0.035
4297,-0.115,-0.025
4298,-0.105,-0.035
4299,-0.095,-0.035
4300,-0.105,-0.035
4301,-0.125,-0.025
4302,-0.125,-0.045
4303,-0.115,-0.045
4304,-0.095,-0.035
4305,-0.135,-0.035
4306,-0.115,-0.035
4307,-0.125,-0.055
4308,-0.135,-0.045
4309,-0.125,-0.045
4310,-0.145,-0.055
4311,-0.155,-0.065
4312,-0.165,-0.065
4313,-0.185,-0.055
4314,-0.155,-0.055
4315,-0.155,-0.075
4316,-0.165,-0.065
4317,-0.155,-0.055
4318,-0.165,-0.065
4319,-0.165,-0.075
4320,-0.135,-0.065
4321,-0.125,-0.045
4322,0.025,0.045
4323,0.035,0.105
4324,0.035,0.125
4325,0.155,0.145
4326,0.125,0.065
4327,0.085,0.015
4328,-0.005,-0.075
4329,-0.015,-0.065
4330,-0.115,-0.105
4331,-0.235,-0.155
4332,-0.285,-0.165
4333,-0.265,-0.145
4334,-0.275,-0.145
4335,-0.245,-0.165
4336,-0.195,-0.145
4337,-0.195,-0.125
4338,-0.615,-0.045
4339,-0.685,0.165
4340,0.295,0.315
4341,2.045,-0.005
4342,2.975,-0.895
4343,2.465,-1.265
4344,0.805,-1.015
4345,0.015,-0.425
4346,-0.305,-0.095
4347,-0.395,-0.065
4348,-0.375,-0.085
4349,-0.355,-0.085
4350,-0.345,-0.085
4351,-0.345,-0.085
4352,-0.395,-0.075
4353,-0.345,-0.065
4354,-0.315,-0.075
4355,-0.315,-0.075
4356,-0.305,-0.065
4357,-0.305,-0.065
4358,-0.295,-0.065
4359,-0.275,-0.065
4360,-0.275,-0.085
4361,-0.275,-0.075
4362,-0.255,-0.075
4363,-0.225,-0.095
4364,-0.205,-0.095
4365,-0.185,-0.085
4366,-0.155,-0.105
4367,-0.125,-0.115
4368,-0.105,-0.115
4369,-0.095,-0.115
4370,-0.065,-0.105
4371,-0.035,-0.105
4372,-0.015,-0.085
4373,0.035,-0.065
4374,0.045,-0.045
4375,0.025,-0.005
4376,-0.005,0.005
4377,-0.035,0.025
4378,-0.085,0.025
4379,-0.125,-0.005
4380,-0.145,-0.005
4381,-0.145,-0.015
4382,-0.145,-0.025
4383,-0.155,-0.035
4384,-0.145,-0.035
4385,-0.135,-0.025
4386,-0.135,-0.045
4387,-0.135,-0.045
4388,-0.115,-0.045
4389,-0.105,-0.035
4390,-0.095,-0.045
4391,-0.095,-0.045
4392,-0.085,-0.045
4393,-0.085,-0.045
4394,-0.095,-0.045
4395,-0.095,-0.065
4396,-0.105,-0.055
4397,-0.065,-0.055
4398,-0.085,-0.055
4399,-0.105,-0.075
4400,-0.105,-0.075
4401,-0.125,-0.065
4402,-0.145,-0.075
4403,-0.145,-0.085
4404,-0.145,-0.085
4405,-0.135,-0.065
4406,-0.135,-0.075
4407,-0.125,-0.085
4408,-0.105,-0.085
4409,-0.095,-0.065
4410,-0.105,-0.085
4411,-0.125,-0.095
4412,-0.105,-0.095
4413,-0.055,-0.055
4414,0.015,0.015
4415,0.025,0.085
4416,0.015,0.095
4417,0.115,0.115
4418,0.105,0.025
4419,0.075,-0.015
4420,0.015,-0.115
4421,-0.005,-0.075
4422,-0.055,-0.115
4423,-0.105,-0.155
4424,-0.105,-0.175
4425,-0.085,-0.155
4426,-0.085,-0.175
4427,-0.075,-0.175
4428,-0.055,-0.155
4429,-0.045,-0.145
4430,-0.195,-0.015
4431,-0.215,0.215
4432,0.085,0.275
4433,0.675,-0.095
4434,1.005,-1.025
4435,0.785,-1.285
4436,0.285,-0.885
4437,0.045,-0.335
4438,-0.045,-0.085
4439,-0.065,-0.105
4440,-0.065,-0.115
4441,-0.055,-0.105
4442,-0.045,-0.105
4443,-0.055,-0.115
4444,-0.045,-0.105
4445,-0.045,-0.095
4446,-0.045,-0.095
4447,-0.035,-0.105
4448,-0.035,-0.085
4449,-0.035,-0.085
4450,-0.035,-0.095
4451,-0.035,-0.105
4452,-0.035,-0.105
4453,-0.025,-0.095
4454,-0.015,-0.105
4455,-0.015,-0.115
4456,-0.015,-0.115
4457,-0.015,-0.105
4458,-0.015,-0.115
4459,-0.005,-0.135
4460,0.005,-0.115
4461,0.015,-0.095
4462,0.015,-0.105
4463,0.015,-0.105
4464,0.025,-0.085
4465,0.035,-0.045
4466,0.035,-0.025
4467,0.035,-0.005
4468,0.025,0.015
4469,0.025,0.005
4470,-0.005,0.005
4471,-0.025,-0.015
4472,-0.025,-0.005
4473,-0.025,-0.015
4474,-0.025,-0.025
4475,-0.035,-0.025
4476,-0.025,-0.015
4477,-0.015,-0.015
4478,-0.005,-0.005
4479,-0.025,-0.025
4480,-0.005,-0.005
4481,0.005,0.005
4482,-0.015,0.005
4483,-0.015,-0.005
4484,-0.025,-0.005
4485,-0.015,0.005
4486,-0.005,0.005
4487,-0.025,-0.005
4488,-0.025,-0.005
4489,-0.005,0.005
4490,-0.035,0.005
4491,-0.035,-0.005
4492,-0.035,-0.005
4493,-0.025,-0.005
4494,-0.055,-0.015
4495,-0.075,-0.035
4496,-0.095,-0.045
4497,-0.075,-0.025
4498,-0.085,-0.035
4499,-0.065,-0.035
4500,-0.065,-0.025
4501,-0.085,-0.025
4502,-0.045,-0.015
4503,0.005,0.055
4504,0.055,0.105
4505,0.075,0.115
4506,0.135,0.135
4507,0.185,0.035
4508,0.095,0.015
4509,0.035,-0.045
4510,0.015,-0.015
4511,-0.085,-0.075
4512,-0.145,-0.115
4513,-0.155,-0.105
4514,-0.175,-0.115
4515,-0.165,-0.115
4516,-0.135,-0.115
4517,-0.075,-0.095
4518,-0.295,-0.055
4519,-0.685,0.115
4520,-0.215,0.405
4521,1.515,0.295
4522,2.775,-0.395
4523,3.045,-1.225
4524,1.455,-1.155
4525,0.265,-0.635
4526,-0.175,-0.195
4527,-0.315,-0.045
4528,-0.325,-0.045
4529,-0.285,-0.055
4530,-0.275,-0.055
4531,-0.295,-0.065
4532,-0.295,-0.055
4533,-0.315,-0.045
4534,-0.255,-0.045
4535,-0.245,-0.045
4536,-0.255,-0.035
4537,-0.235,-0.025
4538,-0.235,-0.035
4539,-0.215,-0.035
4540,-0.195,-0.035
4541,-0.255,-0.035
4542,-0.195,-0.055
4543,-0.195,-0.055
4544,-0.165,-0.065
4545,-0.135,-0.045
4546,-0.125,-0.065
4547,-0.095,-0.075
4548,-0.065,-0.075
4549,-0.045,-0.065
4550,-0.025,-0.065
4551,-0.015,-0.055
4552,0.015,-0.055
4553,0.005,-0.035
4554,0.055,-0.005
4555,0.045,0.015
4556,-0.025,0.045
4557,-0.035,0.055
4558,-0.065,0.065
4559,-0.075,0.045
4560,-0.095,0.035
4561,-0.135,0.045
4562,-0.135,0.025
4563,-0.115,0.025
4564,-0.095,0.035
4565,-0.085,0.045
4566,-0.085,0.035
4567,-0.095,0.025
4568,-0.055,0.025
4569,-0.035,0.035
4570,-0.075,0.025
4571,-0.045,0.015
4572,-0.065,0.025
4573,-0.055,0.025
4574,-0.035,0.015
4575,-0.055,0.005
4576,-0.035,0.005
4577,-0.045,0.015
4578,-0.075,0.005
4579,-0.065,0.005
4580,-0.075,0.005
4581,-0.105,0.005
4582,-0.115,-0.015
4583,-0.095,-0.015
4584,-0.095,-0.015
4585,-0.105,-0.005
4586,-0.095,-0.015
4587,-0.085,-0.015
4588,-0.095,-0.015
4589,-0.105,-0.015
4590,-0.105,-0.015
4591,-0.085,-0.025
4592,-0.105,-0.025
4593,-0.075,0.025
4594,0.045,0.115
4595,0.085,0.155
4596,0.105,0.175
4597,0.185,0.195
4598,0.195,0.095
4599,0.115,0.055
4600,0.035,-0.035
4601,0.005,-0.005
4602,-0.095,-0.055
4603,-0.185,-0.115
4604,-0.175,-0.105
4605,-0.155,-0.095
4606,-0.145,-0.095
4607,-0.135,-0.105
4608,-0.095,-0.085
4609,-0.215,-0.055
4610,-0.625,0.095
4611,-0.425,0.365
4612,0.775,0.255
4613,2.335,-0.315
4614,2.965,-1.155
4615,2.365,-1.285
4616,0.815,-0.845
4617,0.065,-0.235
4618,-0.225,-0.005
4619,-0.325,-0.025
4620,-0.305,-0.035
4621,-0.305,-0.035
4622,-0.295,-0.035
4623,-0.285,-0.045
4624,-0.295,-0.025
4625,-0.275,-0.015
4626,-0.245,-0.015
4627,-0.275,-0.015
4628,-0.275,-0.025
4629,-0.265,-0.005
4630,-0.245,-0.005
4631,-0.255,-0.015
4632,-0.225,-0.015
4633,-0.215,-0.005
4634,-0.205,-0.015
4635,-0.195,-0.015
4636,-0.185,-0.025
4637,-0.165,-0.005
4638,-0.145,-0.005
4639,-0.115,-0.015
4640,-0.075,-0.015
4641,-0.055,-0.005
4642,-0.015,-0.005
4643,-0.015,0.005
4644,0.025,0.025
4645,0.005,0.055
4646,0.055,0.065
4647,0.035,0.065
4648,-0.005,0.075
4649,-0.035,0.075
4650,-0.075,0.075
4651,-0.105,0.055
4652,-0.115,0.045
4653,-0.135,0.055
4654,-0.155,0.025
4655,-0.125,0.025
4656,-0.115,0.025
4657,-0.115,0.025
4658,-0.085,0.025
4659,-0.095,0.005
4660,-0.105,0.005
4661,-0.065,0.015
4662,-0.085,0.015
4663,-0.065,0.005
4664,-0.035,0.005
4665,-0.075,0.015
4666,-0.095,0.005
4667,-0.105,0.005
4668,-0.085,0.015
4669,-0.085,0.005
4670,-0.085,0.005
4671,-0.095,-0.005
4672,-0.105,0.005
4673,-0.115,0.005
4674,-0.125,0.015
4675,-0.125,-0.005
4676,-0.145,0.005
4677,-0.135,0.005
4678,-0.125,-0.005
4679,-0.145,-0.005
4680,-0.135,-0.025
4681,-0.145,-0.015
4682,-0.115,-0.005
4683,-0.135,-0.015
4684,-0.135,0.005
4685,-0.095,0.025
4686,0.015,0.085
4687,0.035,0.145
4688,0.025,0.175
4689,0.135,0.185
4690,0.145,0.125
4691,0.125,0.065
4692,0.005,-0.025
4693,-0.015,-0.035
4694,-0.075,-0.035
4695,-0.155,-0.095
4696,-0.185,-0.105
4697,-0.185,-0.095
4698,-0.195,-0.105
4699,-0.185,-0.115
4700,-0.155,-0.095
4701,-0.135,-0.075
4702,-0.545,0.005
4703,-0.565,0.245
4704,0.475,0.315
4705,2.265,-0.105
4706,3.055,-1.055
4707,2.275,-1.225
4708,0.745,-0.815
4709,0.045,-0.225
4710,-0.235,-0.015
4711,-0.295,-0.035
4712,-0.305,-0.035
4713,-0.335,-0.045
4714,-0.305,-0.055
4715,-0.305,-0.055
4716,-0.315,-0.065
4717,-0.335,-0.035
4718,-0.315,-0.035
4719,-0.285,-0.045
4720,-0.265,-0.045
4721,-0.275,-0.045
4722,-0.245,-0.045
4723,-0.225,-0.045
4724,-0.225,-0.045
4725,-0.215,-0.035
4726,-0.195,-0.065
4727,-0.195,-0.065
4728,-0.205,-0.045
4729,-0.165,-0.045
4730,-0.125,-0.075
4731,-0.075,-0.085
4732,-0.055,-0.065
4733,-0.025,-0.055
4734,-0.055,-0.065
4735,-0.025,-0.065
4736,0.035,-0.035
4737,0.055,-0.005
4738,0.055,0.005
4739,0.025,0.015
4740,0.005,0.035
4741,-0.025,0.035
4742,-0.055,0.025
4743,-0.125,0.015
4744,-0.145,0.005
4745,-0.155,-0.005
4746,-0.145,-0.015
4747,-0.145,-0.025
4748,-0.135,-0.025
4749,-0.095,-0.025
4750,-0.115,-0.025
4751,-0.145,-0.035
4752,-0.075,-0.035
4753,-0.045,-0.025
4754,-0.055,-0.025
4755,-0.055,-0.035
4756,-0.075,-0.025
4757,-0.065,-0.025
4758,-0.075,-0.035
4759,-0.085,-0.055
4760,-0.055,-0.055
4761,-0.095,-0.045
4762,-0.095,-0.055
4763,-0.115,-0.055
4764,-0.125,-0.055
4765,-0.125,-0.045
4766,-0.125,-0.065
4767,-0.115,-0.065
4768,-0.135,-0.075
4769,-0.135,-0.065
4770,-0.125,-0.075
4771,-0.115,-0.085
4772,-0.135,-0.085
4773,-0.135,-0.075
4774,-0.145,-0.085
4775,-0.135,-0.095
4776,-0.115,-0.095
4777,-0.125,-0.075
4778,-0.105,-0.065
4779,0.005,-0.005
4780,0.035,0.075
4781,0.025,0.085
4782,0.145,0.075
4783,0.155,0.025
4784,0.105,-0.015
4785,0.005,-0.095
4786,0.015,-0.095
4787,-0.105,-0.115
4788,-0.185,-0.155
4789,-0.185,-0.165
4790,-0.195,-0.175
4791,-0.195,-0.175
4792,-0.155,-0.175
4793,-0.165,-0.165
4794,-0.155,-0.155
4795,-0.585,-0.075
4796,-0.645,0.145
4797,0.245,0.255
4798,2.055,-0.065
4799,3.045,-0.885
4800,2.545,-1.235
4801,0.955,-0.995
4802,0.085,-0.485
4803,-0.275,-0.175
4804,-0.345,-0.125
4805,-0.345,-0.145
4806,-0.355,-0.155
4807,-0.345,-0.165
4808,-0.335,-0.155
4809,-0.335,-0.145
4810,-0.325,-0.145
4811,-0.315,-0.155
4812,-0.305,-0.135
4813,-0.285,-0.135
4814,-0.335,-0.145
4815,-0.315,-0.145
4816,-0.255,-0.135
4817,-0.255,-0.135
4818,-0.265,-0.145
4819,-0.265,-0.155
4820,-0.255,-0.155
4821,-0.235,-0.145
4822,-0.225,-0.155
4823,-0.155,-0.165
4824,-0.145,-0.175
4825,-0.115,-0.165
4826,-0.085,-0.165
4827,-0.065,-0.175
4828,-0.045,-0.145
4829,-0.015,-0.125
4830,0.005,-0.125
4831,0.025,-0.105
4832,0.045,-0.065
4833,-0.015,-0.045
4834,-0.025,-0.055
4835,-0.065,-0.045
4836,-0.095,-0.065
4837,-0.125,-0.065
4838,-0.145,-0.075
4839,-0.155,-0.075
4840,-0.175,-0.095
4841,-0.145,-0.085
4842,-0.095,-0.085
4843,-0.115,-0.105
4844,-0.135,-0.095
4845,-0.075,-0.075
4846,-0.075,-0.075
4847,-0.075,-0.085
4848,-0.075,-0.095
4849,-0.075,-0.085
4850,-0.085,-0.075
4851,-0.075,-0.095
4852,-0.095,-0.085
4853,-0.075,-0.065
4854,-0.105,-0.065
4855,-0.125,-0.085
4856,-0.135,-0.085
4857,-0.115,-0.085
4858,-0.145,-0.085
4859,-0.145,-0.085
4860,-0.125,-0.085
4861,-0.115,-0.075
4862,-0.115,-0.095
4863,-0.125,-0.095
4864,-0.175,-0.095
4865,-0.185,-0.075
4866,-0.195,-0.085
4867,-0.175,-0.095
4868,-0.185,-0.105
4869,-0.155,-0.065
4870,-0.015,-0.015
4871,-0.085,0.055
4872,-0.045,0.065
4873,0.115,0.085
4874,0.125,0.035
4875,0.095,-0.015
4876,-0.035,-0.095
4877,-0.055,-0.075
4878,-0.145,-0.095
4879,-0.255,-0.145
4880,-0.245,-0.165
4881,-0.215,-0.155
4882,-0.225,-0.155
4883,-0.225,-0.155
4884,-0.205,-0.155
4885,-0.165,-0.125
4886,-0.585,-0.055
4887,-0.725,0.145
4888,0.145,0.385
4889,2.095,0.125
4890,3.035,-0.705
4891,2.625,-1.275
4892,0.825,-1.065
4893,-0.045,-0.495
4894,-0.315,-0.125
4895,-0.375,-0.065
4896,-0.355,-0.095
4897,-0.375,-0.085
4898,-0.375,-0.095
4899,-0.355,-0.105
4900,-0.345,-0.085
4901,-0.355,-0.065
4902,-0.335,-0.065
4903,-0.315,-0.065
4904,-0.295,-0.015
4905,-0.295,0.035
4906,-0.285,-0.015
4907,-0.325,-0.075
4908,-0.295,-0.065
4909,-0.255,-0.045
4910,-0.235,-0.055
4911,-0.225,-0.095
4912,-0.205,-0.115
4913,-0.175,-0.095
4914,-0.165,-0.125
4915,-0.175,-0.155
4916,-0.145,-0.125
4917,-0.125,-0.105
4918,-0.125,-0.135
4919,-0.065,-0.115
4920,-0.015,-0.105
4921,0.035,-0.055
4922,0.035,-0.035
4923,0.015,-0.045
4924,-0.065,-0.025
4925,-0.125,-0.015
4926,-0.135,-0.015
4927,-0.155,-0.045
4928,-0.165,-0.045
4929,-0.165,-0.045
4930,-0.155,-0.055
4931,-0.155,-0.045
4932,-0.105,-0.055
4933,-0.115,-0.075
4934,-0.155,-0.075
4935,-0.115,-0.065
4936,-0.065,-0.065
4937,-0.075,-0.065
4938,-0.105,-0.055
4939,-0.095,-0.075
4940,-0.045,-0.085
4941,-0.065,-0.055
4942,-0.095,-0.015
4943,-0.115,-0.065
4944,-0.105,-0.105
4945,-0.095,-0.105
4946,-0.125,-0.085
4947,-0.125,-0.085
4948,-0.125,-0.065
4949,-0.135,-0.045
4950,-0.135,-0.055
4951,-0.135,-0.065
4952,-0.145,-0.045
4953,-0.155,-0.005
4954,-0.165,0.015
4955,-0.155,0.035
4956,-0.165,0.045
4957,-0.185,0.085
4958,-0.165,0.085
4959,-0.085,0.105
4960,-0.025,0.155
4961,0.015,0.195
4962,0.075,0.185
4963,0.115,0.195
4964,0.125,0.175
4965,0.075,0.185
4966,0.015,0.165
4967,-0.045,0.155
4968,-0.185,0.165
4969,-0.265,0.175
4970,-0.255,0.155
4971,-0.265,0.155
4972,-0.265,0.185
4973,-0.225,0.185
4974,-0.215,0.195
4975,-0.255,0.195
4976,-0.655,0.215
4977,-0.675,0.265
4978,0.305,0.305
4979,2.015,0.255
4980,2.885,0.125
4981,2.515,0.045
4982,0.915,0.065
4983,0.065,0.155
4984,-0.295,0.225
4985,-0.395,0.245
4986,-0.445,0.245
4987,-0.455,0.235
4988,-0.475,0.245
4989,-0.455,0.245
4990,-0.465,0.255
4991,-0.435,0.245
4992,-0.375,0.245
4993,-0.385,0.245
4994,-0.375,0.255
4995,-0.385,0.245
4996,-0.385,0.235
4997,-0.365,0.245
4998,-0.365,0.235
4999,-0.385,0.225
5000,-0.355,0.225
5001,-0.365,0.225
5002,-0.325,0.225
5003,-0.305,0.215
5004,-0.285,0.215
5005,-0.275,0.215
5006,-0.275,0.205
5007,-0.265,0.185
5008,-0.225,0.175
5009,-0.205,0.175
5010,-0.225,0.155
5011,-0.215,0.145
5012,-0.175,0.145
5013,-0.175,0.145
5014,-0.195,0.125
5015,-0.165,0.105
5016,-0.165,0.085
5017,-0.245,0.105
5018,-0.305,0.115
5019,-0.325,0.085
5020,-0.325,0.065
5021,-0.245,0.065
5022,-0.275,0.045
5023,-0.295,0.045
5024,-0.315,0.025
5025,-0.295,0.035
5026,-0.305,0.025
5027,-0.345,0.015
5028,-0.335,0.015
5029,-0.325,0.005
5030,-0.315,-0.015
5031,-0.295,-0.045
5032,-0.315,-0.085
5033,-0.225,-0.095
5034,-0.265,-0.085
5035,-0.285,-0.095
5036,-0.285,-0.125
5037,-0.335,-0.145
5038,-0.275,-0.115
5039,-0.255,-0.115
5040,-0.245,-0.115
5041,-0.265,-0.115
5042,-0.275,-0.135
5043,-0.255,-0.145
5044,-0.255,-0.115
5045,-0.255,-0.095
5046,-0.275,-0.065
5047,-0.335,-0.065
5048,-0.355,-0.075
5049,-0.205,-0.075
5050,-0.065,0.015
5051,-0.015,0.045
5052,0.075,0.105
5053,0.195,0.135
5054,0.165,0.065
5055,0.085,0.045
5056,0.015,0.005
5057,-0.145,-0.035
5058,-0.285,-0.105
5059,-0.365,-0.165
5060,-0.365,-0.185
5061,-0.335,-0.175
5062,-0.375,-0.175
5063,-0.415,-0.165
5064,-0.425,-0.155
5065,-0.395,-0.145
5066,-0.855,-0.075
5067,-0.925,0.135
5068,0.105,0.275
5069,1.965,-0.045
5070,2.915,-0.915
5071,2.175,-1.225
5072,0.505,-0.975
5073,-0.275,-0.415
5074,-0.545,-0.125
5075,-0.615,-0.105
5076,-0.625,-0.115
5077,-0.615,-0.105
5078,-0.615,-0.105
5079,-0.595,-0.105
5080,-0.575,-0.105
5081,-0.555,-0.095
5082,-0.535,-0.105
5083,-0.535,-0.105
5084,-0.565,-0.105
5085,-0.555,-0.095
5086,-0.535,-0.105
5087,-0.515,-0.115
5088,-0.515,-0.105
5089,-0.485,-0.105
5090,-0.495,-0.105
5091,-0.485,-0.125
5092,-0.455,-0.135
5093,-0.445,-0.115
5094,-0.395,-0.125
5095,-0.395,-0.135
5096,-0.335,-0.135
5097,-0.295,-0.115
5098,-0.285,-0.125
5099,-0.255,-0.115
5100,-0.235,-0.095
5101,-0.215,-0.075
5102,-0.225,-0.055
5103,-0.255,-0.035
5104,-0.275,-0.015
5105,-0.275,0.005
5106,-0.315,0.005
5107,-0.355,-0.015
5108,-0.375,-0.015
5109,-0.375,-0.015
5110,-0.385,-0.035
5111,-0.405,-0.035
5112,-0.385,-0.025
5113,-0.365,-0.025
5114,-0.345,-0.025
5115,-0.355,-0.035
5116,-0.365,-0.025
5117,-0.335,-0.015
5118,-0.325,-0.025
5119,-0.295,-0.035
5120,-0.295,-0.025
5121,-0.305,-0.025
5122,-0.325,-0.035
5123,-0.325,-0.045
5124,-0.305,-0.045
5125,-0.305,-0.045
5126,-0.295,-0.065
5127,-0.305,-0.065
5128,-0.295,-0.085
5129,-0.285,-0.065
5130,-0.315,-0.085
5131,-0.345,-0.095
5132,-0.365,-0.105
5133,-0.345,-0.105
5134,-0.355,-0.115
5135,-0.345,-0.125
5136,-0.345,-0.115
5137,-0.345,-0.095
5138,-0.295,-0.115
5139,-0.205,-0.025
5140,-0.195,0.045
5141,-0.145,0.075
5142,-0.025,0.075
5143,0.015,0.005
5144,-0.015,-0.015
5145,-0.075,-0.075
5146,-0.145,-0.135
5147,-0.285,-0.155
5148,-0.395,-0.195
5149,-0.415,-0.225
5150,-0.405,-0.225
5151,-0.365,-0.225
5152,-0.355,-0.225
5153,-0.335,-0.205
5154,-0.295,-0.215
5155,-0.545,-0.185
5156,-0.855,-0.025
5157,-0.415,0.285
5158,1.225,0.145
5159,2.575,-0.435
5160,3.015,-1.225
5161,1.585,-1.245
5162,0.195,-0.825
5163,-0.355,-0.345
5164,-0.515,-0.145
5165,-0.525,-0.155
5166,-0.525,-0.175
5167,-0.525,-0.175
5168,-0.495,-0.165
5169,-0.475,-0.155
5170,-0.505,-0.165
5171,-0.515,-0.185
5172,-0.485,-0.165
5173,-0.465,-0.155
5174,-0.455,-0.155
5175,-0.445,-0.175
5176,-0.435,-0.175
5177,-0.405,-0.165
5178,-0.395,-0.175
5179,-0.405,-0.165
5180,-0.395,-0.175
5181,-0.385,-0.165
5182,-0.335,-0.185
5183,-0.315,-0.195
5184,-0.255,-0.195
5185,-0.205,-0.205
5186,-0.185,-0.215
5187,-0.195,-0.225
5188,-0.155,-0.215
5189,-0.125,-0.195
5190,-0.125,-0.165
5191,-0.095,-0.155
5192,-0.065,-0.125
5193,-0.095,-0.085
5194,-0.175,-0.085
5195,-0.245,-0.095
5196,-0.285,-0.085
5197,-0.315,-0.075
5198,-0.295,-0.085
5199,-0.285,-0.105
5200,-0.265,-0.115
5201,-0.255,-0.095
5202,-0.245,-0.105
5203,-0.205,-0.095
5204,-0.215,-0.105
5205,-0.205,-0.085
5206,-0.155,-0.095
5207,-0.145,-0.105
5208,-0.115,-0.105
5209,-0.135,-0.085
5210,-0.155,-0.105
5211,-0.165,-0.105
5212,-0.145,-0.095
5213,-0.095,-0.095
5214,-0.105,-0.105
5215,-0.135,-0.105
5216,-0.145,-0.105
5217,-0.145,-0.095
5218,-0.125,-0.105
5219,-0.145,-0.115
5220,-0.155,-0.115
5221,-0.155,-0.095
5222,-0.165,-0.105
5223,-0.155,-0.105
5224,-0.135,-0.115
5225,-0.135,-0.095
5226,-0.065,-0.055
5227,-0.045,0.025
5228,-0.045,0.055
5229,0.055,0.075
5230,0.085,0.065
5231,0.075,-0.025
5232,-0.025,-0.115
5233,-0.025,-0.145
5234,-0.115,-0.085
5235,-0.255,-0.125
5236,-0.225,-0.165
5237,-0.195,-0.165
5238,-0.215,-0.165
5239,-0.215,-0.175
5240,-0.165,-0.155
5241,-0.135,-0.135
5242,-0.535,-0.065
5243,-0.605,0.135
5244,0.355,0.345
5245,2.165,0.145
5246,2.985,-0.635
5247,2.675,-1.255
5248,1.005,-1.085
5249,0.095,-0.585
5250,-0.215,-0.205
5251,-0.315,-0.095
5252,-0.285,-0.125
5253,-0.285,-0.115
5254,-0.305,-0.135
5255,-0.275,-0.125
5256,-0.235,-0.115
5257,-0.235,-0.105
5258,-0.215,-0.115
5259,-0.225,-0.115
5260,-0.205,-0.115
5261,-0.215,-0.105
5262,-0.215,-0.105
5263,-0.205,-0.115
5264,-0.195,-0.125
5265,-0.175,-0.105
5266,-0.175,-0.115
5267,-0.175,-0.135
5268,-0.165,-0.125
5269,-0.125,-0.115
5270,-0.105,-0.135
5271,-0.085,-0.155
5272,-0.055,-0.165
5273,-0.025,-0.155
5274,0.005,-0.155
5275,0.025,-0.155
5276,0.025,-0.135
5277,0.035,-0.115
5278,0.045,-0.095
5279,0.055,-0.065
5280,0.055,-0.045
5281,0.005,-0.015
5282,-0.025,-0.015
5283,-0.025,-0.025
5284,-0.065,-0.035
5285,-0.045,-0.025
5286,-0.035,-0.025
5287,-0.065,-0.045
5288,-0.055,-0.045
5289,-0.025,-0.025
5290,-0.035,-0.005
5291,-0.015,-0.015
5292,-0.005,-0.005
5293,-0.005,-0.005
5294,0.025,-0.005
5295,0.025,-0.015
5296,0.025,-0.005
5297,0.035,0.005
5298,-0.005,-0.015
5299,-0.025,-0.015
5300,-0.035,-0.005
5301,-0.035,-0.015
5302,-0.015,-0.025
5303,-0.015,-0.035
5304,-0.015,-0.025
5305,-0.015,-0.025
5306,-0.025,-0.035
5307,-0.035,-0.045
5308,-0.015,-0.025
5309,-0.025,-0.025
5310,-0.055,-0.045
5311,-0.045,-0.045
5312,-0.035,-0.025
5313,0.075,0.035
5314,0.105,0.115
5315,0.125,0.145
5316,0.195,0.165
5317,0.255,0.185
5318,0.235,0.085
5319,0.205,0.045
5320,0.125,-0.035
5321,0.055,-0.025
5322,-0.035,-0.055
5323,-0.115,-0.105
5324,-0.115,-0.125
5325,-0.095,-0.115
5326,-0.105,-0.115
5327,-0.115,-0.115
5328,-0.095,-0.095
5329,-0.125,-0.085
5330,-0.505,0.055
5331,-0.365,0.295
5332,0.775,0.335
5333,2.415,-0.175
5334,3.035,-1.075
5335,2.055,-1.225
5336,0.655,-0.725
5337,0.065,-0.195
5338,-0.175,-0.015
5339,-0.225,-0.025
5340,-0.235,-0.035
5341,-0.235,-0.025
5342,-0.275,-0.035
5343,-0.255,-0.045
5344,-0.205,-0.035
5345,-0.185,-0.025
5346,-0.185,-0.025
5347,-0.205,-0.045
5348,-0.205,-0.045
5349,-0.195,-0.015
5350,-0.185,-0.025
5351,-0.185,-0.035
5352,-0.155,-0.045
5353,-0.135,-0.025
5354,-0.115,-0.055
5355,-0.105,-0.055
5356,-0.085,-0.065
5357,-0.055,-0.065
5358,-0.035,-0.075
5359,-0.005,-0.085
5360,0.025,-0.085
5361,0.035,-0.065
5362,0.055,-0.075
5363,0.095,-0.075
5364,0.075,-0.055
5365,0.125,-0.025
5366,0.125,-0.005
5367,0.095,-0.015
5368,0.065,-0.015
5369,0.015,-0.015
5370,-0.025,-0.035
5371,-0.045,-0.045
5372,-0.045,-0.055
5373,-0.035,-0.055
5374,-0.025,-0.055
5375,-0.025,-0.085
5376,-0.025,-0.085
5377,0.005,-0.075
5378,-0.005,-0.075
5379,0.035,-0.075
5380,0.045,-0.075
5381,0.005,-0.065
5382,-0.005,-0.075
5383,0.025,-0.075
5384,0.015,-0.055
5385,0.005,-0.045
5386,-0.005,-0.055
5387,-0.005,-0.045
5388,0.015,-0.045
5389,0.015,-0.035
5390,-0.005,-0.055
5391,-0.055,-0.055
5392,-0.035,-0.055
5393,-0.035,-0.055
5394,-0.015,-0.065
5395,-0.045,-0.065
5396,-0.025,-0.055
5397,-0.015,-0.045
5398,-0.015,-0.065
5399,-0.015,-0.055
5400,0.045,-0.025
5401,0.075,0.065
5402,0.135,0.105
5403,0.195,0.125
5404,0.215,0.135
5405,0.255,0.075
5406,0.255,0.025
5407,0.185,-0.015
5408,0.115,-0.095
5409,0.075,-0.085
5410,-0.035,-0.135
5411,-0.155,-0.175
5412,-0.135,-0.175
5413,-0.075,-0.115
5414,-0.025,-0.095
5415,-0.075,-0.135
5416,-0.035,-0.135
5417,0.005,-0.155
5418,-0.175,-0.115
5419,-0.415,0.015
5420,-0.025,0.305
5421,1.545,0.135
5422,2.755,-0.495
5423,3.045,-1.165
5424,1.745,-1.105
5425,0.435,-0.565
5426,0.005,-0.105
5427,-0.185,0.005
5428,-0.265,-0.035
5429,-0.255,-0.035
5430,-0.295,-0.045
5431,-0.285,-0.045
5432,-0.275,-0.055
5433,-0.245,-0.065
5434,-0.275,-0.055
5435,-0.325,-0.075
5436,-0.335,-0.085
5437,-0.325,-0.065
5438,-0.315,-0.075
5439,-0.245,-0.075
5440,-0.275,-0.085
5441,-0.265,-0.085
5442,-0.265,-0.095
5443,-0.215,-0.125
5444,-0.175,-0.135
5445,-0.145,-0.115
5446,-0.125,-0.115
5447,-0.135,-0.115
5448,-0.075,-0.095
5449,0.035,-0.065
5450,0.085,-0.005
5451,0.145,0.035
5452,0.265,0.045
5453,0.265,0.045
5454,0.305,0.025
5455,0.265,0.025
5456,0.255,-0.005
5457,0.275,0.005
5458,0.215,-0.025
5459,0.145,-0.035
5460,0.085,-0.045
5461,0.055,-0.035
5462,0.015,-0.055
5463,-0.025,-0.045
5464,-0.045,-0.055
5465,-0.065,-0.035
5466,-0.085,-0.055
5467,-0.035,-0.035
5468,-0.025,-0.015
5469,-0.035,-0.015
5470,-0.055,-0.015
5471,-0.085,-0.025
5472,-0.125,-0.035
5473,-0.135,-0.045
5474,-0.125,-0.055
5475,-0.105,-0.075
5476,-0.105,-0.055
5477,-0.155,-0.085
5478,-0.155,-0.095
5479,-0.135,-0.105
5480,-0.135,-0.095
5481,-0.125,-0.085
5482,-0.085,-0.095
5483,-0.095,-0.085
5484,-0.105,-0.085
5485,-0.125,-0.085
5486,-0.155,-0.095
5487,-0.175,-0.085
5488,-0.165,-0.075
5489,-0.065,-0.015
5490,-0.045,0.055
5491,-0.055,0.065
5492,0.005,0.075
5493,0.025,0.045
5494,-0.025,-0.005
5495,-0.125,-0.075
5496,-0.215,-0.115
5497,-0.225,-0.115
5498,-0.285,-0.155
5499,-0.325,-0.185
5500,-0.315,-0.185
5501,-0.295,-0.145
5502,-0.265,-0.135
5503,-0.245,-0.095
5504,-0.165,-0.035
5505,-0.385,0.065
5506,-0.775,0.245
5507,-0.295,0.515
5508,1.325,0.455
5509,2.695,-0.105
5510,2.965,-0.985
5511,1.525,-1.075
5512,0.325,-0.655
5513,-0.125,-0.215
5514,-0.265,-0.075
5515,-0.295,-0.085
5516,-0.285,-0.135
5517,-0.285,-0.115
5518,-0.285,-0.115
5519,-0.285,-0.115
5520,-0.245,-0.105
5521,-0.225,-0.105
5522,-0.225,-0.105
5523,-0.255,-0.125
5524,-0.265,-0.125
5525,-0.245,-0.115
5526,-0.235,-0.125
5527,-0.225,-0.125
5528,-0.215,-0.125
5529,-0.195,-0.125
5530,-0.155,-0.125
5531,-0.155,-0.145
5532,-0.135,-0.135
5533,-0.095,-0.145
5534,-0.065,-0.155
5535,-0.045,-0.155
5536,-0.035,-0.165
5537,-0.015,-0.155
5538,0.005,-0.145
5539,0.025,-0.155
5540,0.065,-0.115
5541,0.105,-0.085
5542,0.075,-0.075
5543,0.045,-0.065
5544,-0.025,-0.055
5545,-0.025,-0.045
5546,-0.005,-0.065
5547,-0.035,-0.055
5548,-0.095,-0.065
5549,-0.095,-0.055
5550,-0.095,-0.075
5551,-0.085,-0.075
5552,-0.065,-0.085
5553,-0.065,-0.075
5554,-0.065,-0.065
5555,-0.055,-0.065
5556,-0.035,-0.065
5557,-0.015,-0.055
5558,-0.005,-0.055
5559,-0.015,-0.075
5560,-0.005,-0.055
5561,-0.005,-0.045
5562,-0.045,-0.075
5563,-0.025,-0.075
5564,-0.045,-0.045
5565,-0.005,-0.055
5566,-0.025,-0.075
5567,-0.025,-0.095
5568,-0.045,-0.105
5569,-0.025,-0.115
5570,-0.065,-0.105
5571,-0.075,-0.125
5572,-0.055,-0.105
5573,-0.095,-0.105
5574,-0.115,-0.105
5575,-0.125,-0.105
5576,-0.045,-0.075
5577,0.025,0.035
5578,0.055,0.065
5579,0.125,0.065
5580,0.175,0.105
5581,0.155,-0.015
5582,0.035,-0.045
5583,-0.015,-0.115
5584,-0.045,-0.075
5585,-0.145,-0.115
5586,-0.215,-0.155
5587,-0.165,-0.165
5588,-0.165,-0.155
5589,-0.165,-0.155
5590,-0.125,-0.135
5591,-0.065,-0.145
5592,-0.365,-0.075
5593,-0.645,0.125
5594,-0.125,0.385
5595,1.595,0.285
5596,2.865,-0.255
5597,3.085,-1.035
5598,1.395,-1.085
5599,0.235,-0.685
5600,-0.145,-0.265
5601,-0.285,-0.035
5602,-0.315,-0.035
5603,-0.305,-0.045
5604,-0.295,-0.055
5605,-0.295,-0.045
5606,-0.305,-0.055
5607,-0.305,-0.095
5608,-0.275,-0.115
5609,-0.245,-0.115
5610,-0.245,-0.115
5611,-0.255,-0.105
5612,-0.215,-0.075
5613,-0.215,-0.065
5614,-0.215,-0.085
5615,-0.205,-0.095
5616,-0.195,-0.095
5617,-0.155,-0.075
5618,-0.145,-0.085
5619,-0.145,-0.095
5620,-0.135,-0.095
5621,-0.065,-0.115
5622,-0.055,-0.135
5623,-0.075,-0.135
5624,-0.015,-0.145
5625,-0.005,-0.115
5626,0.025,-0.095
5627,0.065,-0.075
5628,0.095,-0.065
5629,0.105,-0.035
5630,0.085,0.015
5631,0.055,-0.005
5632,0.085,0.015
5633,0.055,0.035
5634,0.045,0.045
5635,0.005,0.035
5636,-0.015,0.035
5637,-0.045,0.065
5638,-0.035,0.055
5639,-0.035,0.055
5640,-0.015,0.035
5641,0.005,0.055
5642,0.005,0.045
5643,-0.005,0.055
5644,0.055,0.075
5645,0.075,0.105
5646,0.045,0.105
5647,0.005,0.105
5648,0.035,0.105
5649,0.085,0.095
5650,0.065,0.055
5651,0.045,0.035
5652,0.075,0.045
5653,0.055,0.025
5654,0.015,0.015
5655,-0.025,0.025
5656,-0.015,0.025
5657,0.015,0.025
5658,-0.005,0.015
5659,-0.005,-0.005
5660,-0.005,0.025
5661,-0.085,0.045
5662,-0.015,0.065
5663,0.035,0.155
5664,0.025,0.215
5665,0.165,0.215
5666,0.285,0.205
5667,0.305,0.135
5668,0.245,0.125
5669,0.165,0.035
5670,0.065,-0.035
5671,-0.055,-0.085
5672,-0.135,-0.095
5673,-0.115,-0.045
5674,-0.115,-0.005
5675,-0.125,-0.015
5676,-0.125,-0.055
5677,-0.095,-0.085
5678,-0.075,-0.095
5679,-0.535,0.015
5680,-0.595,0.255
5681,0.295,0.355
5682,2.145,-0.015
5683,3.105,-0.885
5684,2.855,-1.245
5685,1.165,-1.015
5686,0.225,-0.425
5687,-0.195,-0.085
5688,-0.305,-0.035
5689,-0.275,-0.045
5690,-0.245,-0.045
5691,-0.275,-0.055
5692,-0.265,-0.065
5693,-0.275,-0.045
5694,-0.255,-0.045
5695,-0.255,-0.055
5696,-0.255,-0.055
5697,-0.225,-0.035
5698,-0.165,-0.045
5699,-0.245,-0.055
5700,-0.255,-0.045
5701,-0.225,-0.045
5702,-0.225,-0.065
5703,-0.235,-0.095
5704,-0.225,-0.115
5705,-0.215,-0.135
5706,-0.185,-0.155
5707,-0.115,-0.135
5708,-0.035,-0.095
5709,0.025,-0.145
5710,0.045,-0.205
5711,0.055,-0.195
5712,0.085,-0.175
5713,0.105,-0.135
5714,0.185,-0.085
5715,0.205,-0.035
5716,0.165,0.025
5717,0.105,0.045
5718,0.075,0.035
5719,0.025,0.085
5720,-0.005,0.125
5721,-0.065,0.155
5722,-0.115,0.135
5723,-0.125,0.075
5724,-0.045,0.045
5725,-0.025,0.045
5726,0.015,0.065
5727,-0.015,0.055
5728,0.025,0.065
5729,0.005,0.095
5730,0.035,0.095
5731,0.005,0.095
5732,0.025,0.045
5733,0.075,0.005
5734,0.055,0.005
5735,-0.005,-0.005
5736,0.005,-0.005
5737,0.035,0.015
5738,0.045,0.025
5739,0.005,0.005
5740,0.015,-0.025
5741,0.015,-0.015
5742,-0.015,-0.025
5743,-0.015,-0.015
5744,-0.015,-0.025
5745,0.005,-0.045
5746,-0.005,-0.035
5747,-0.025,-0.065
5748,-0.085,-0.055
5749,-0.045,-0.055
5750,-0.025,-0.035
5751,0.105,0.035
5752,0.145,0.105
5753,0.145,0.135
5754,0.265,0.135
5755,0.275,0.065
5756,0.225,0.025
5757,0.175,-0.025
5758,0.105,-0.085
5759,0.055,-0.095
5760,-0.065,-0.175
5761,-0.125,-0.175
5762,-0.165,-0.175
5763,-0.125,-0.175
5764,-0.135,-0.165
5765,-0.125,-0.155
5766,-0.085,-0.165
5767,-0.295,-0.135
5768,-0.565,0.015
5769,-0.125,0.325
5770,1.555,0.205
5771,2.855,-0.445
5772,2.995,-1.115
5773,1.205,-1.035
5774,0.185,-0.535
5775,-0.165,-0.155
5776,-0.265,-0.095
5777,-0.235,-0.105
5778,-0.255,-0.135
5779,-0.275,-0.125
5780,-0.245,-0.115
5781,-0.205,-0.105
5782,-0.205,-0.105
5783,-0.225,-0.125
5784,-0.235,-0.125
5785,-0.235,-0.105
5786,-0.245,-0.095
5787,-0.185,-0.115
5788,-0.175,-0.105
5789,-0.175,-0.115
5790,-0.175,-0.125
5791,-0.155,-0.145
5792,-0.195,-0.135
5793,-0.145,-0.135
5794,-0.105,-0.165
5795,-0.065,-0.175
5796,-0.055,-0.155
5797,-0.065,-0.155
5798,-0.035,-0.185
5799,0.035,-0.165
5800,0.055,-0.145
5801,0.065,-0.135
5802,0.065,-0.125
5803,0.065,-0.095
5804,0.115,-0.065
5805,0.115,-0.045
5806,0.045,-0.055
5807,-0.015,-0.065
5808,-0.045,-0.065
5809,-0.025,-0.065
5810,-0.025,-0.065
5811,-0.075,-0.075
5812,-0.075,-0.075
5813,-0.025,-0.075
5814,-0.045,-0.085
5815,-0.015,-0.095
5816,-0.005,-0.075
5817,-0.015,-0.065
5818,0.015,-0.075
5819,0.015,-0.075
5820,0.015,-0.085
5821,0.025,-0.075
5822,0.045,-0.075
5823,0.025,-0.085
5824,0.025,-0.075
5825,0.025,-0.055
5826,-0.005,-0.065
5827,-0.005,-0.085
5828,0.015,-0.085
5829,-0.005,-0.075
5830,0.015,-0.075
5831,-0.035,-0.075
5832,-0.005,-0.065
5833,-0.045,-0.055
5834,0.045,-0.045
5835,0.145,0.065
5836,0.035,0.105
5837,-0.055,0.105
5838,-0.515,0.145
5839,0.315,0.035
5840,0.535,0.025
5841,0.395,-0.065
5842,0.215,-0.085
5843,0.035,-0.135
5844,-0.095,-0.165
5845,-0.115,-0.185
5846,-0.115,-0.175
5847,-0.105,-0.195
5848,-0.085,-0.175
5849,-0.085,-0.155
5850,-0.055,-0.165
5851,-0.425,-0.105
5852,-0.685,0.065
5853,-0.085,0.355
5854,1.725,0.265
5855,2.965,-0.345
5856,3.145,-1.045
5857,1.295,-1.025
5858,0.165,-0.655
5859,-0.195,-0.255
5860,-0.295,-0.115
5861,-0.265,-0.125
5862,-0.385,-0.135
5863,-0.365,-0.145
5864,-0.495,-0.135
5865,-0.355,-0.125
5866,-0.195,-0.115
5867,-0.235,-0.135
5868,-0.245,-0.115
5869,-0.225,-0.095
5870,-0.225,-0.115
5871,-0.235,-0.125
5872,-0.225,-0.125
5873,-0.225,-0.105
5874,-0.195,-0.135
5875,-0.205,-0.155
5876,-0.215,-0.155
5877,-0.175,-0.155
5878,-0.195,-0.135
5879,-0.165,-0.175
5880,-0.105,-0.185
5881,-0.075,-0.175
5882,-0.025,-0.195
5883,0.025,-0.205
5884,0.015,-0.195
5885,0.005,-0.175
5886,0.005,-0.175
5887,-0.265,-0.125
5888,-0.605,-0.075
5889,-0.015,-0.045
5890,0.275,-0.015
5891,0.095,0.005
5892,0.005,0.005
5893,-0.065,-0.005
5894,-0.105,-0.025
5895,-0.125,-0.035
5896,-0.115,-0.035
5897,-0.105,-0.025
5898,-0.125,-0.055
5899,-0.115,-0.035
5900,-0.085,-0.035
5901,-0.115,-0.045
5902,-0.105,-0.045
5903,-0.105,-0.065
5904,-0.105,-0.045
5905,-0.105,-0.045
5906,-0.115,-0.055
5907,-0.115,-0.055
5908,-0.155,-0.065
5909,-0.155,-0.055
5910,-0.145,-0.065
5911,-0.155,-0.085
5912,-0.205,-0.075
5913,-0.265,-0.065
5914,-0.205,-0.055
5915,-0.185,-0.075
5916,-0.115,-0.045
5917,-0.155,-0.015
5918,-0.345,0.075
5919,-0.035,0.135
5920,0.135,0.145
5921,0.185,0.185
5922,0.135,0.045
5923,0.055,0.005
5924,-0.035,-0.075
5925,-0.065,-0.075
5926,-0.175,-0.095
5927,-0.285,-0.135
5928,-0.305,-0.155
5929,-0.295,-0.145
5930,-0.275,-0.135
5931,-0.285,-0.165
5932,-0.285,-0.155
5933,-0.225,-0.135
5934,-0.515,-0.085
5935,-0.725,0.015
5936,-0.235,0.325
5937,1.245,0.355
5938,2.585,-0.055
5939,2.855,-0.775
5940,1.435,-0.885
5941,0.205,-0.685
5942,-0.265,-0.285
5943,-0.425,-0.095
5944,-0.815,-0.095
5945,-0.725,-0.085
5946,-0.375,-0.065
5947,-0.425,-0.085
5948,-0.305,-0.095
5949,-0.305,-0.075
5950,-0.375,-0.075
5951,-0.375,-0.085
5952,-0.385,-0.085
5953,-0.405,-0.065
5954,-0.395,-0.065
5955,-0.375,-0.075
5956,-0.385,-0.095
5957,-0.365,-0.115
5958,-0.345,-0.105
5959,-0.295,-0.135
5960,-0.295,-0.125
5961,-0.285,-0.135
5962,-0.255,-0.145
5963,-0.195,-0.155
5964,-0.185,-0.165
5965,-0.175,-0.175
5966,-0.185,-0.175
5967,-0.185,-0.155
5968,-0.115,-0.145
5969,-0.095,-0.115
5970,-0.075,-0.075
5971,-0.055,-0.055
5972,-0.105,-0.015
5973,-0.215,0.015
5974,-0.225,0.025
5975,-0.175,0.025
5976,-0.365,0.005
5977,-0.375,-0.005
5978,-0.475,0.025
5979,-0.225,-0.005
5980,-0.245,0.015
5981,-0.155,0.025
5982,-0.185,-0.025
5983,-0.245,-0.015
5984,-0.215,-0.005
5985,-0.265,0.005
5986,-0.255,-0.025
5987,-0.235,-0.015
5988,-0.245,-0.015
5989,-0.225,-0.005
5990,-0.225,-0.015
5991,-0.245,-0.025
5992,-0.245,-0.025
5993,-0.265,-0.005
5994,-0.255,-0.015
5995,-0.245,-0.015
5996,-0.285,-0.005
5997,-0.325,-0.005
5998,-0.235,0.065
5999,-0.165,0.145
6000,-0.155,0.205
6001,-0.025,0.245
6002,0.055,0.195
6003,-0.055,0.045
6004,-0.115,0.005
6005,-0.215,-0.045
6006,-0.315,-0.015
6007,-0.405,-0.085
6008,-0.495,-0.075
6009,-0.495,-0.085
6010,-0.475,-0.065
6011,-0.485,-0.085
6012,-0.485,-0.085
6013,-0.445,-0.045
6014,-0.435,-0.035
6015,-0.925,0.035
6016,-0.845,0.265
6017,0.115,0.425
6018,2.075,0.415
6019,2.975,-0.435
6020,1.685,-0.855
6021,0.125,-0.705
6022,-0.325,-0.265
6023,-0.555,-0.015
6024,-0.585,-0.025
6025,-0.635,-0.005
6026,-0.625,-0.025
6027,-0.595,-0.025
6028,-0.595,-0.005
6029,-0.565,-0.005
6030,-0.555,-0.025
6031,-0.545,-0.015
6032,-0.515,-0.005
6033,-0.495,-0.005
6034,-0.475,-0.005
6035,-0.475,0.005
6036,-0.435,-0.005
6037,-0.395,-0.005
6038,-0.435,-0.035
6039,-0.435,-0.055
6040,-0.415,-0.065
6041,-0.395,-0.055
6042,-0.375,-0.065
6043,-0.335,-0.075
6044,-0.325,-0.075
6045,-0.305,-0.075
6046,-0.315,-0.085
6047,-0.245,-0.085
6048,-0.215,-0.045
6049,-0.195,-0.025
6050,-0.195,0.015
6051,-0.195,0.025
6052,-0.215,0.065
6053,-0.265,0.105
6054,-0.285,0.135
6055,-0.325,0.135
6056,-0.375,0.125
6057,-0.495,0.125
6058,-0.565,0.145
6059,-0.605,0.125
6060,-0.305,0.125
6061,-0.225,0.145
6062,-0.245,0.155
6063,-0.255,0.145
6064,-0.285,0.165
6065,-0.275,0.165
6066,-0.305,0.175
6067,-0.265,0.155
6068,-0.265,0.165
6069,-0.245,0.185
6070,-0.255,0.185
6071,-0.265,0.175
6072,-0.275,0.175
6073,-0.295,0.195
6074,-0.245,0.215
6075,-0.175,0.315
6076,-0.175,0.405
6077,-0.105,0.425
6078,0.025,0.435
6079,-0.005,0.275
6080,-0.075,0.265
6081,-0.135,0.225
6082,-0.175,0.205
6083,-0.325,0.195
6084,-0.425,0.165
6085,-0.585,0.145
6086,-0.445,0.155
6087,-0.375,0.165
6088,-0.345,0.175
6089,-0.345,0.185
6090,-0.325,0.185
6091,-0.715,0.225
6092,-0.945,0.335
6093,-0.485,0.615
6094,1.195,0.725
6095,2.645,0.435
6096,2.875,-0.285
6097,1.255,-0.475
6098,-0.055,-0.305
6099,-0.505,0.045
6100,-0.655,0.235
6101,-0.605,0.255
6102,-0.615,0.255
6103,-0.625,0.215
6104,-0.635,0.265
6105,-0.595,0.235
6106,-0.645,0.245
6107,-0.595,0.235
6108,-0.625,0.255
6109,-0.645,0.265
6110,-0.615,0.245
6111,-0.585,0.245
6112,-0.575,0.245
6113,-0.595,0.245
6114,-0.595,0.215
6115,-0.595,0.205
6116,-0.575,0.185
6117,-0.535,0.185
6118,-0.535,0.145
6119,-0.475,0.135
6120,-0.435,0.115
6121,-0.435,0.135
6122,-0.435,0.125
6123,-0.405,0.115
6124,-0.355,0.145
6125,-0.285,0.155
6126,-0.275,0.165
6127,-0.265,0.185
6128,-0.235,0.225
6129,-0.245,0.295
6130,-0.295,0.305
6131,-0.325,0.325
6132,-0.385,0.345
6133,-0.395,0.345
6134,-0.405,0.325
6135,-0.365,0.325
6136,-0.425,0.335
6137,-0.355,0.355
6138,-0.345,0.345
6139,-0.365,0.325
6140,-0.345,0.335
6141,-0.315,0.395
6142,-0.295,0.395
6143,-0.255,0.375
6144,-0.265,0.395
6145,-0.275,0.425
6146,-0.335,0.405
6147,-0.325,0.395
6148,-0.305,0.405
6149,-0.255,0.465
6150,-0.225,0.535
6151,-0.195,0.565
6152,-0.155,0.635
6153,-0.005,0.645
6154,-0.075,0.535
6155,-0.095,0.465
6156,-0.175,0.455
6157,-0.235,0.415
6158,-0.245,0.425
6159,-0.445,0.365
6160,-0.495,0.325
6161,-0.485,0.325
6162,-0.495,0.345
6163,-0.435,0.345
6164,-0.505,0.365
6165,-0.345,0.335
6166,-0.625,0.365
6167,-1.045,0.455
6168,-0.715,0.715
6169,1.035,0.775
6170,2.605,0.385
6171,3.155,-0.335
6172,1.505,-0.415
6173,0.025,-0.165
6174,-0.465,0.215
6175,-0.605,0.365
6176,-0.625,0.365
6177,-0.605,0.375
6178,-0.515,0.375
6179,-0.585,0.355
6180,-0.525,0.365
6181,-0.525,0.375
6182,-0.485,0.355
6183,-0.495,0.345
6184,-0.465,0.355
6185,-0.495,0.365
6186,-0.485,0.365
6187,-0.485,0.355
6188,-0.505,0.325
6189,-0.485,0.325
6190,-0.425,0.305
6191,-0.445,0.305
6192,-0.385,0.305
6193,-0.365,0.295
6194,-0.345,0.285
6195,-0.305,0.265
6196,-0.295,0.255
6197,-0.275,0.265
6198,-0.275,0.265
6199,-0.235,0.265
6200,-0.215,0.275
6201,-0.165,0.325
6202,-0.145,0.345
6203,-0.165,0.365
6204,-0.195,0.395
6205,-0.205,0.385
6206,-0.225,0.385
6207,-0.255,0.395
6208,-0.245,0.375
6209,-0.225,0.365
6210,-0.245,0.345
6211,-0.225,0.345
6212,-0.215,0.325
6213,-0.205,0.335
6214,-0.255,0.325
6215,-0.215,0.315
6216,-0.165,0.325
6217,-0.135,0.315
6218,-0.145,0.305
6219,-0.165,0.295
6220,-0.185,0.275
6221,-0.175,0.315
6222,-0.195,0.295
6223,-0.175,0.305
6224,-0.005,0.405
6225,0.005,0.485
6226,-0.005,0.495
6227,0.175,0.525
6228,0.245,0.395
6229,0.195,0.325
6230,0.085,0.265
6231,0.035,0.235
6232,-0.045,0.225
6233,-0.175,0.165
6234,-0.275,0.095
6235,-0.315,0.045
6236,-0.315,0.065
6237,-0.305,0.085
6238,-0.345,0.065
6239,-0.305,0.045
6240,-0.355,0.055
6241,-0.795,0.175
6242,-0.725,0.385
6243,0.345,0.365
6244,2.105,-0.045
6245,3.075,-0.845
6246,2.595,-0.975
6247,0.735,-0.635
6248,-0.135,-0.125
6249,-0.455,0.085
6250,-0.545,0.065
6251,-0.535,0.015
6252,-0.535,0.005
6253,-0.515,0.005
6254,-0.535,0.015
6255,-0.535,-0.025
6256,-0.525,-0.015
6257,-0.515,0.005
6258,-0.485,0.035
6259,-0.455,0.005
6260,-0.495,0.015
6261,-0.435,0.045
6262,-0.425,0.045
6263,-0.455,0.025
6264,-0.425,0.025
6265,-0.385,0.025
6266,-0.375,0.035
6267,-0.405,0.005
6268,-0.365,0.005
6269,-0.315,0.005
6270,-0.285,-0.005
6271,-0.275,0.015
6272,-0.195,0.025
6273,-0.205,0.055
6274,-0.165,0.055
6275,-0.125,0.065
6276,-0.135,0.085
6277,-0.115,0.105
6278,-0.055,0.115
6279,-0.105,0.125
6280,-0.135,0.125
6281,-0.145,0.105
6282,-0.185,0.085
6283,-0.185,0.045
6284,-0.175,0.055
6285,-0.195,0.045
6286,-0.215,0.065
6287,-0.205,0.025
6288,-0.195,0.045
6289,-0.135,0.085
6290,-0.125,0.045
6291,-0.095,0.055
6292,-0.095,0.065
6293,-0.125,0.055
6294,-0.115,0.045
6295,-0.125,0.025
6296,-0.075,0.055
6297,-0.075,0.065
6298,-0.025,0.075
6299,0.035,0.165
6300,0.055,0.285
6301,0.075,0.315
6302,0.215,0.345
6303,0.255,0.205
6304,0.215,0.105
6305,0.135,0.095
6306,0.025,0.055
6307,-0.015,0.045
6308,-0.125,0.005
6309,-0.235,-0.045
6310,-0.245,-0.065
6311,-0.245,-0.085
6312,-0.195,-0.105
6313,-0.155,-0.115
6314,-0.135,-0.125
6315,-0.205,-0.105
6316,-0.705,-0.045
6317,-0.565,0.225
6318,0.695,0.255
6319,2.495,-0.115
6320,3.355,-0.945
6321,2.545,-1.045
6322,0.835,-0.795
6323,0.015,-0.305
6324,-0.295,-0.085
6325,-0.355,-0.055
6326,-0.325,-0.075
6327,-0.325,-0.095
6328,-0.295,-0.095
6329,-0.285,-0.085
6330,-0.295,-0.095
6331,-0.275,-0.095
6332,-0.265,-0.065
6333,-0.255,-0.035
6334,-0.245,-0.045
6335,-0.225,-0.025
6336,-0.235,-0.045
6337,-0.235,-0.035
6338,-0.205,-0.075
6339,-0.185,-0.085
6340,-0.175,-0.075
6341,-0.155,-0.065
6342,-0.135,-0.105
6343,-0.125,-0.135
6344,-0.095,-0.135
6345,-0.075,-0.135
6346,-0.035,-0.135
6347,-0.015,-0.125
6348,-0.005,-0.115
6349,0.025,-0.085
6350,0.085,-0.065
6351,0.145,-0.025
6352,0.165,0.015
6353,0.135,0.055
6354,0.115,0.055
6355,0.055,0.055
6356,0.015,0.045
6357,0.015,0.025
6358,-0.025,0.035
6359,-0.025,0.045
6360,-0.005,0.055
6361,-0.015,0.065
6362,0.015,0.065
6363,0.005,0.065
6364,0.005,0.045
6365,-0.005,0.065
6366,0.015,0.075
6367,0.005,0.085
6368,0.025,0.105
6369,0.015,0.125
6370,0.015,0.125
6371,-0.005,0.115
6372,-0.025,0.085
6373,-0.015,0.085
6374,-0.015,0.065
6375,-0.025,0.105
6376,0.055,0.135
6377,0.105,0.235
6378,0.085,0.285
6379,0.195,0.305
6380,0.245,0.305
6381,0.245,0.205
6382,0.215,0.185
6383,0.145,0.125
6384,0.075,0.125
6385,-0.075,0.075
6386,-0.195,0.045
6387,-0.195,0.015
6388,-0.175,0.025
6389,-0.155,0.045
6390,-0.105,0.025
6391,-0.085,0.025
6392,-0.135,0.015
6393,-0.675,0.075
6394,-0.425,0.345
6395,1.085,0.415
6396,2.785,0.125
6397,3.435,-0.685
6398,2.025,-0.825
6399,0.465,-0.585
6400,-0.065,-0.175
6401,-0.225,0.035
6402,-0.245,0.015
6403,-0.295,-0.015
6404,-0.225,-0.035
6405,-0.145,-0.035
6406,-0.175,-0.035
6407,-0.165,-0.035
6408,-0.145,-0.035
6409,-0.075,-0.015
6410,-0.035,-0.005
6411,-0.055,0.005
6412,-0.055,-0.025
6413,-0.035,-0.045
6414,-0.015,-0.045
6415,0.025,-0.045
6416,0.015,-0.055
6417,-0.045,-0.045
6418,0.045,-0.075
6419,0.095,-0.085
6420,0.095,-0.075
6421,0.105,-0.065
6422,0.135,-0.095
6423,0.135,-0.125
6424,0.185,-0.065
6425,0.225,-0.055
6426,0.215,-0.035
6427,0.265,-0.005
6428,0.325,0.035
6429,0.375,0.065
6430,0.295,0.105
6431,0.405,0.125
6432,0.365,0.135
6433,0.335,0.155
6434,0.345,0.125
6435,0.305,0.115
6436,0.275,0.115
6437,0.305,0.105
6438,0.345,0.105
6439,0.345,0.135
6440,0.365,0.115
6441,0.325,0.105
6442,0.385,0.095
6443,0.405,0.105
6444,0.395,0.115
6445,0.405,0.125
6446,0.365,0.095
6447,0.385,0.105
6448,0.385,0.085
6449,0.425,0.085
6450,0.375,0.105
6451,0.445,0.155
6452,0.515,0.225
6453,0.535,0.275
6454,0.615,0.305
6455,0.645,0.265
6456,0.665,0.165
6457,0.525,0.165
6458,0.535,0.125
6459,0.515,0.125
6460,0.375,0.095
6461,0.335,0.065
6462,0.355,0.045
6463,0.355,0.055
6464,0.345,0.055
6465,0.375,0.065
6466,0.425,0.055
6467,0.195,0.085
6468,-0.175,0.215
6469,0.085,0.505
6470,1.355,0.545
6471,2.625,0.155
6472,3.105,-0.625
6473,2.205,-0.825
6474,0.915,-0.495
6475,0.455,-0.085
6476,0.265,0.085
6477,0.265,0.105
6478,0.275,0.115
6479,0.245,0.085
6480,0.215,0.095
6481,0.275,0.105
6482,0.325,0.105
6483,0.315,0.105
6484,0.265,0.165
6485,0.275,0.185
6486,0.305,0.175
6487,0.295,0.145
6488,0.285,0.145
6489,0.295,0.155
6490,0.315,0.145
6491,0.315,0.105
6492,0.305,0.105
6493,0.315,0.105
6494,0.315,0.095
6495,0.315,0.065
6496,0.325,0.055
6497,0.325,0.045
6498,0.325,0.045
6499,0.335,0.045
6500,0.345,0.035
6501,0.385,0.065
6502,0.445,0.095
6503,0.465,0.125
6504,0.475,0.135
6505,0.465,0.145
6506,0.465,0.165
6507,0.475,0.155
6508,0.465,0.165
6509,0.435,0.155
6510,0.425,0.145
6511,0.435,0.145
6512,0.435,0.165
6513,0.445,0.165
6514,0.465,0.145
6515,0.465,0.105
6516,0.435,0.075
6517,0.425,0.085
6518,0.415,0.065
6519,0.445,0.055
6520,0.425,0.045
6521,0.425,0.035
6522,0.425,0.035
6523,0.405,0.005
6524,0.385,0.005
6525,0.405,0.045
6526,0.465,0.105
6527,0.475,0.125
6528,0.515,0.165
6529,0.655,0.215
6530,0.685,0.125
6531,0.645,0.045
6532,0.605,0.025
6533,0.545,-0.015
6534,0.445,-0.035
6535,0.275,-0.115
6536,0.175,-0.175
6537,0.205,-0.165
6538,0.255,-0.165
6539,0.255,-0.195
6540,0.255,-0.195
6541,0.305,-0.215
6542,-0.055,-0.165
6543,-0.405,-0.005
6544,0.115,0.275
6545,2.075,0.045
6546,3.295,-0.685
6547,3.675,-1.375
6548,2.365,-1.245
6549,0.865,-0.735
6550,0.235,-0.345
6551,0.055,-0.225
