'sample interval','ECG1','ECG2'
'0.0078125 sec','mV','mV'
0,-0.095,-0.025
1,-0.085,-0.035
2,-0.085,-0.025
3,-0.085,-0.015
4,-0.065,-0.005
5,-0.045,-0.015
6,-0.045,-0.005
7,-0.045,0.015
8,-0.045,0.025
9,-0.025,0.055
10,-0.035,0.065
11,-0.005,0.075
12,0.005,0.105
13,0.005,0.115
14,-0.005,0.135
15,-0.015,0.145
16,-0.035,0.135
17,-0.035,0.115
18,-0.065,0.095
19,-0.075,0.085
20,-0.105,0.075
21,-0.105,0.065
22,-0.055,0.055
23,-0.005,0.045
24,0.015,0.025
25,0.005,-0.005
26,0.015,-0.025
27,-0.005,-0.055
28,-0.025,-0.075
29,-0.025,-0.085
30,-0.005,-0.075
31,-0.025,-0.065
32,-0.005,-0.065
33,-0.015,-0.075
34,-0.005,-0.065
35,-0.005,-0.055
36,-0.015,-0.055
37,-0.005,-0.065
38,-0.005,-0.075
39,0.005,-0.055
40,-0.005,-0.065
41,-0.015,-0.055
42,0.005,-0.065
43,0.005,-0.075
44,-0.015,-0.075
45,-0.015,-0.065
46,-0.025,-0.065
47,-0.015,-0.025
48,0.015,-0.005
49,0.025,0.005
50,0.045,0.005
51,0.105,0.005
52,0.095,-0.005
53,0.135,-0.005
54,0.155,-0.035
55,0.105,-0.065
56,0.035,-0.065
57,-0.025,-0.105
58,-0.065,-0.105
59,-0.075,-0.105
60,-0.085,-0.105
61,-0.105,-0.115
62,-0.095,-0.105
63,-0.105,-0.115
64,-0.095,-0.115
65,-0.075,-0.105
66,-0.135,-0.075
67,-0.105,-0.035
68,0.145,-0.085
69,0.965,-0.505
70,1.825,-1.045
71,0.415,-0.985
72,-0.835,-0.495
73,-0.765,-0.145
74,-0.345,-0.025
75,-0.145,-0.005
76,-0.125,-0.005
77,-0.115,-0.005
78,-0.115,-0.005
79,-0.115,-0.005
80,-0.115,0.015
81,-0.115,0.015
82,-0.105,0.005
83,-0.085,0.025
84,-0.085,0.035
85,-0.095,0.025
86,-0.085,0.055
87,-0.055,0.055
88,-0.045,0.075
89,-0.045,0.075
90,-0.035,0.105
91,-0.025,0.115
92,-0.015,0.125
93,-0.025,0.145
94,-0.025,0.155
95,-0.045,0.155
96,-0.055,0.145
97,-0.085,0.115
98,-0.115,0.095
99,-0.135,0.085
100,-0.145,0.065
101,-0.115,0.055
102,-0.085,0.045
103,-0.045,0.065
104,-0.025,0.045
105,-0.015,0.015
106,-0.015,-0.015
107,-0.025,-0.035
108,-0.055,-0.045
109,-0.055,-0.055
110,-0.055,-0.055
111,-0.035,-0.045
112,-0.035,-0.055
113,-0.035,-0.055
114,-0.035,-0.045
115,-0.035,-0.045
116,-0.045,-0.035
117,-0.035,-0.055
118,-0.045,-0.055
119,-0.045,-0.045
120,-0.045,-0.045
121,-0.035,-0.055
122,-0.035,-0.065
123,-0.055,-0.065
124,-0.065,-0.065
125,-0.065,-0.075
126,-0.075,-0.065
127,-0.065,-0.045
128,-0.045,-0.005
129,-0.005,0.005
130,0.005,0.005
131,0.065,0.005
132,0.065,-0.015
133,0.095,-0.005
134,0.095,-0.005
135,0.115,-0.055
136,0.035,-0.085
137,-0.015,-0.075
138,-0.075,-0.115
139,-0.115,-0.125
140,-0.135,-0.135
141,-0.135,-0.135
142,-0.145,-0.135
143,-0.155,-0.125
144,-0.135,-0.135
145,-0.135,-0.145
146,-0.145,-0.105
147,-0.185,-0.065
148,-0.035,-0.005
149,0.445,-0.355
150,1.485,-0.795
151,1.815,-1.335
152,-0.095,-1.015
153,-0.965,-0.405
154,-0.615,-0.085
155,-0.265,-0.005
156,-0.165,-0.025
157,-0.165,-0.035
158,-0.165,-0.045
159,-0.155,-0.025
160,-0.155,-0.015
161,-0.135,-0.025
162,-0.145,-0.025
163,-0.135,-0.005
164,-0.135,0.005
165,-0.135,0.005
166,-0.115,0.015
167,-0.115,0.035
168,-0.105,0.065
169,-0.105,0.075
170,-0.095,0.085
171,-0.065,0.095
172,-0.075,0.125
173,-0.065,0.145
174,-0.065,0.165
175,-0.055,0.155
176,-0.075,0.175
177,-0.095,0.175
178,-0.105,0.145
179,-0.125,0.135
180,-0.135,0.125
181,-0.155,0.115
182,-0.145,0.085
183,-0.135,0.085
184,-0.085,0.055
185,-0.065,0.025
186,-0.055,-0.025
187,-0.065,-0.035
188,-0.075,-0.075
189,-0.085,-0.075
190,-0.105,-0.095
191,-0.095,-0.075
192,-0.095,-0.085
193,-0.085,-0.075
194,-0.085,-0.085
195,-0.075,-0.075
196,-0.075,-0.075
197,-0.095,-0.065
198,-0.095,-0.075
199,-0.075,-0.075
200,-0.075,-0.085
201,-0.075,-0.085
202,-0.085,-0.095
203,-0.085,-0.085
204,-0.105,-0.095
205,-0.095,-0.105
206,-0.085,-0.105
207,-0.115,-0.085
208,-0.065,-0.035
209,-0.045,-0.025
210,-0.025,-0.015
211,0.025,-0.035
212,0.015,-0.065
213,0.065,-0.055
214,0.045,-0.045
215,0.065,-0.105
216,-0.025,-0.115
217,-0.055,-0.135
218,-0.115,-0.155
219,-0.155,-0.165
220,-0.175,-0.155
221,-0.145,-0.175
222,-0.185,-0.165
223,-0.175,-0.175
224,-0.165,-0.175
225,-0.155,-0.175
226,-0.185,-0.145
227,-0.185,-0.105
228,0.055,-0.155
229,0.875,-0.585
230,1.955,-1.175
231,0.875,-1.285
232,-0.755,-0.715
233,-0.835,-0.195
234,-0.395,-0.065
235,-0.195,-0.065
236,-0.175,-0.075
237,-0.175,-0.075
238,-0.185,-0.085
239,-0.165,-0.085
240,-0.165,-0.065
241,-0.185,-0.065
242,-0.165,-0.055
243,-0.145,-0.045
244,-0.165,-0.025
245,-0.155,-0.025
246,-0.125,-0.015
247,-0.115,-0.005
248,-0.115,0.015
249,-0.115,0.025
250,-0.105,0.055
251,-0.085,0.065
252,-0.095,0.085
253,-0.095,0.105
254,-0.085,0.115
255,-0.075,0.125
256,-0.085,0.135
257,-0.115,0.115
258,-0.125,0.085
259,-0.145,0.085
260,-0.165,0.055
261,-0.165,0.045
262,-0.145,0.025
263,-0.105,0.025
264,-0.085,0.005
265,-0.075,-0.035
266,-0.075,-0.075
267,-0.085,-0.095
268,-0.115,-0.095
269,-0.115,-0.115
270,-0.115,-0.125
271,-0.095,-0.125
272,-0.095,-0.105
273,-0.115,-0.115
274,-0.095,-0.105
275,-0.095,-0.115
276,-0.105,-0.105
277,-0.085,-0.115
278,-0.095,-0.105
279,-0.085,-0.115
280,-0.085,-0.115
281,-0.095,-0.105
282,-0.085,-0.105
283,-0.095,-0.115
284,-0.095,-0.115
285,-0.105,-0.135
286,-0.105,-0.135
287,-0.105,-0.135
288,-0.105,-0.125
289,-0.105,-0.105
290,-0.055,-0.075
291,-0.045,-0.055
292,-0.015,-0.055
293,0.015,-0.065
294,0.025,-0.085
295,0.045,-0.075
296,0.075,-0.075
297,0.055,-0.135
298,-0.055,-0.125
299,-0.065,-0.135
300,-0.105,-0.185
301,-0.145,-0.185
302,-0.165,-0.195
303,-0.155,-0.175
304,-0.165,-0.185
305,-0.165,-0.185
306,-0.165,-0.185
307,-0.135,-0.155
308,-0.215,-0.125
309,-0.105,-0.055
310,0.375,-0.315
311,1.365,-0.715
312,1.885,-1.335
313,-0.015,-1.055
314,-1.005,-0.445
315,-0.705,-0.135
316,-0.305,-0.055
317,-0.195,-0.075
318,-0.175,-0.085
319,-0.175,-0.085
320,-0.175,-0.065
321,-0.175,-0.075
322,-0.165,-0.065
323,-0.155,-0.055
324,-0.155,-0.045
325,-0.155,-0.045
326,-0.145,-0.045
327,-0.125,-0.035
328,-0.105,-0.025
329,-0.125,-0.015
330,-0.125,-0.005
331,-0.105,0.005
332,-0.105,0.025
333,-0.085,0.055
334,-0.075,0.055
335,-0.065,0.075
336,-0.095,0.085
337,-0.105,0.095
338,-0.115,0.095
339,-0.135,0.085
340,-0.145,0.065
341,-0.185,0.045
342,-0.175,0.025
343,-0.175,0.015
344,-0.155,0.005
345,-0.115,0.015
346,-0.085,-0.015
347,-0.065,-0.035
348,-0.075,-0.075
349,-0.085,-0.095
350,-0.095,-0.115
351,-0.115,-0.115
352,-0.105,-0.115
353,-0.095,-0.115
354,-0.095,-0.125
355,-0.095,-0.115
356,-0.105,-0.115
357,-0.095,-0.105
358,-0.065,-0.105
359,-0.085,-0.105
360,-0.095,-0.095
361,-0.075,-0.115
362,-0.075,-0.115
363,-0.075,-0.125
364,-0.105,-0.115
365,-0.105,-0.125
366,-0.105,-0.125
367,-0.105,-0.125
368,-0.105,-0.125
369,-0.115,-0.135
370,-0.125,-0.125
371,-0.125,-0.105
372,-0.085,-0.075
373,-0.075,-0.075
374,-0.055,-0.055
375,-0.035,-0.045
376,-0.015,-0.035
377,0.035,-0.075
378,0.045,-0.065
379,0.085,-0.095
380,-0.015,-0.125
381,-0.075,-0.135
382,-0.115,-0.165
383,-0.155,-0.165
384,-0.165,-0.165
385,-0.175,-0.165
386,-0.175,-0.175
387,-0.175,-0.155
388,-0.165,-0.165
389,-0.175,-0.165
390,-0.195,-0.135
391,-0.185,-0.065
392,0.155,-0.155
393,1.065,-0.635
394,1.805,-1.245
395,-0.025,-1.055
396,-1.065,-0.505
397,-0.765,-0.175
398,-0.335,-0.085
399,-0.215,-0.075
400,-0.195,-0.075
401,-0.175,-0.085
402,-0.185,-0.095
403,-0.175,-0.075
404,-0.185,-0.065
405,-0.165,-0.055
406,-0.175,-0.045
407,-0.165,-0.045
408,-0.135,-0.035
409,-0.135,-0.035
410,-0.155,-0.015
411,-0.125,0.005
412,-0.125,0.005
413,-0.115,0.025
414,-0.105,0.055
415,-0.095,0.085
416,-0.065,0.085
417,-0.095,0.095
418,-0.115,0.105
419,-0.125,0.115
420,-0.145,0.085
421,-0.175,0.075
422,-0.195,0.045
423,-0.215,0.045
424,-0.215,0.015
425,-0.205,0.015
426,-0.165,0.005
427,-0.115,0.015
428,-0.115,-0.015
429,-0.095,-0.035
430,-0.105,-0.065
431,-0.115,-0.075
432,-0.115,-0.085
433,-0.135,-0.105
434,-0.145,-0.095
435,-0.125,-0.095
436,-0.135,-0.085
437,-0.115,-0.085
438,-0.115,-0.075
439,-0.095,-0.075
440,-0.085,-0.075
441,-0.105,-0.085
442,-0.105,-0.075
443,-0.095,-0.075
444,-0.095,-0.075
445,-0.095,-0.085
446,-0.105,-0.085
447,-0.115,-0.085
448,-0.105,-0.095
449,-0.115,-0.105
450,-0.115,-0.115
451,-0.135,-0.105
452,-0.145,-0.105
453,-0.135,-0.075
454,-0.105,-0.055
455,-0.075,-0.035
456,-0.045,-0.015
457,-0.045,-0.025
458,-0.005,-0.055
459,0.005,-0.035
460,0.015,-0.045
461,0.045,-0.075
462,-0.015,-0.125
463,-0.055,-0.105
464,-0.115,-0.135
465,-0.155,-0.155
466,-0.185,-0.165
467,-0.185,-0.145
468,-0.195,-0.145
469,-0.185,-0.165
470,-0.185,-0.145
471,-0.185,-0.145
472,-0.175,-0.095
473,-0.205,-0.085
474,0.015,-0.105
475,0.645,-0.515
476,1.675,-1.025
477,1.225,-1.305
478,-0.565,-0.715
479,-0.885,-0.205
480,-0.495,-0.015
481,-0.255,-0.025
482,-0.185,-0.045
483,-0.195,-0.035
484,-0.185,-0.025
485,-0.185,-0.025
486,-0.175,-0.035
487,-0.165,-0.015
488,-0.155,-0.015
489,-0.155,0.005
490,-0.145,-0.005
491,-0.145,0.015
492,-0.145,0.015
493,-0.135,0.045
494,-0.125,0.055
495,-0.115,0.075
496,-0.105,0.075
497,-0.105,0.105
498,-0.105,0.125
499,-0.095,0.155
500,-0.085,0.165
501,-0.095,0.175
502,-0.095,0.175
503,-0.115,0.155
504,-0.135,0.155
505,-0.145,0.115
506,-0.165,0.105
507,-0.165,0.115
508,-0.145,0.095
509,-0.145,0.065
510,-0.115,0.045
511,-0.095,0.025
512,-0.095,-0.025
513,-0.095,-0.065
514,-0.115,-0.085
515,-0.135,-0.085
516,-0.145,-0.095
517,-0.145,-0.095
518,-0.145,-0.095
519,-0.125,-0.075
520,-0.135,-0.075
521,-0.115,-0.075
522,-0.135,-0.075
523,-0.135,-0.075
524,-0.125,-0.055
525,-0.115,-0.065
526,-0.115,-0.075
527,-0.125,-0.075
528,-0.115,-0.065
529,-0.125,-0.075
530,-0.125,-0.085
531,-0.125,-0.085
532,-0.135,-0.075
533,-0.155,-0.075
534,-0.135,-0.085
535,-0.135,-0.085
536,-0.155,-0.085
537,-0.155,-0.055
538,-0.125,-0.025
539,-0.075,-0.015
540,-0.055,0.005
541,-0.025,0.005
542,-0.015,-0.015
543,-0.005,-0.015
544,0.015,-0.015
545,0.055,-0.025
546,0.015,-0.075
547,-0.075,-0.065
548,-0.125,-0.095
549,-0.155,-0.115
550,-0.175,-0.115
551,-0.185,-0.115
552,-0.205,-0.105
553,-0.175,-0.115
554,-0.185,-0.115
555,-0.165,-0.115
556,-0.175,-0.055
557,-0.195,-0.025
558,0.055,-0.065
559,0.915,-0.505
560,2.015,-1.065
561,0.625,-1.045
562,-0.955,-0.415
563,-0.785,-0.075
564,-0.375,0.025
565,-0.215,0.005
566,-0.195,0.005
567,-0.205,0.005
568,-0.195,0.005
569,-0.195,0.005
570,-0.185,0.005
571,-0.165,0.015
572,-0.175,0.025
573,-0.165,0.025
574,-0.165,0.045
575,-0.135,0.045
576,-0.115,0.065
577,-0.115,0.075
578,-0.115,0.095
579,-0.105,0.105
580,-0.095,0.125
581,-0.085,0.145
582,-0.065,0.165
583,-0.075,0.195
584,-0.085,0.195
585,-0.085,0.185
586,-0.095,0.175
587,-0.115,0.175
588,-0.145,0.155
589,-0.145,0.135
590,-0.145,0.115
591,-0.135,0.115
592,-0.105,0.095
593,-0.085,0.075
594,-0.055,0.035
595,-0.055,-0.005
596,-0.095,-0.025
597,-0.095,-0.035
598,-0.115,-0.055
599,-0.095,-0.055
600,-0.095,-0.055
601,-0.115,-0.055
602,-0.115,-0.045
603,-0.105,-0.055
604,-0.095,-0.055
605,-0.085,-0.055
606,-0.105,-0.045
607,-0.085,-0.035
608,-0.075,-0.055
609,-0.085,-0.055
610,-0.085,-0.065
611,-0.095,-0.055
612,-0.105,-0.065
613,-0.105,-0.075
614,-0.095,-0.075
615,-0.095,-0.075
616,-0.115,-0.085
617,-0.115,-0.095
618,-0.115,-0.095
619,-0.115,-0.095
620,-0.115,-0.075
621,-0.115,-0.095
622,-0.105,-0.075
623,-0.095,-0.045
624,-0.075,-0.015
625,-0.035,-0.025
626,-0.015,-0.025
627,0.005,-0.035
628,0.015,-0.035
629,0.025,-0.035
630,0.065,-0.035
631,0.085,-0.115
632,-0.025,-0.095
633,-0.065,-0.125
634,-0.095,-0.155
635,-0.135,-0.155
636,-0.135,-0.155
637,-0.165,-0.155
638,-0.145,-0.165
639,-0.145,-0.155
640,-0.145,-0.155
641,-0.125,-0.135
642,-0.165,-0.095
643,-0.055,-0.005
644,0.395,-0.285
645,1.305,-0.775
646,1.915,-1.345
647,0.075,-1.035
648,-0.995,-0.415
649,-0.685,-0.085
650,-0.295,-0.035
651,-0.165,-0.035
652,-0.155,-0.045
653,-0.175,-0.045
654,-0.165,-0.045
655,-0.145,-0.035
656,-0.145,-0.035
657,-0.135,-0.025
658,-0.135,-0.015
659,-0.115,-0.005
660,-0.115,-0.005
661,-0.095,0.005
662,-0.095,0.015
663,-0.075,0.045
664,-0.075,0.065
665,-0.065,0.065
666,-0.055,0.095
667,-0.055,0.115
668,-0.055,0.125
669,-0.045,0.135
670,-0.045,0.145
671,-0.055,0.155
672,-0.065,0.135
673,-0.085,0.105
674,-0.105,0.065
675,-0.115,0.095
676,-0.135,0.065
677,-0.115,0.055
678,-0.065,0.035
679,-0.045,0.035
680,-0.045,0.005
681,-0.025,-0.025
682,-0.035,-0.055
683,-0.055,-0.075
684,-0.075,-0.075
685,-0.085,-0.095
686,-0.075,-0.085
687,-0.055,-0.085
688,-0.075,-0.075
689,-0.075,-0.075
690,-0.055,-0.055
691,-0.045,-0.065
692,-0.045,-0.065
693,-0.065,-0.075
694,-0.055,-0.065
695,-0.035,-0.075
696,-0.045,-0.075
697,-0.055,-0.075
698,-0.045,-0.075
699,-0.045,-0.065
700,-0.035,-0.085
701,-0.085,-0.085
702,-0.065,-0.085
703,-0.065,-0.075
704,-0.065,-0.085
705,-0.075,-0.075
706,-0.095,-0.065
707,-0.065,-0.015
708,-0.005,-0.025
709,-0.015,0.015
710,0.025,0.005
711,0.045,0.015
712,0.085,0.005
713,0.125,0.005
714,0.135,-0.035
715,0.045,-0.055
716,-0.005,-0.055
717,-0.055,-0.085
718,-0.105,-0.105
719,-0.105,-0.105
720,-0.125,-0.095
721,-0.115,-0.095
722,-0.135,-0.105
723,-0.125,-0.105
724,-0.125,-0.095
725,-0.125,-0.075
726,-0.155,-0.055
727,-0.015,0.015
728,0.525,-0.225
729,1.625,-0.675
730,1.435,-1.015
731,-0.595,-0.675
732,-1.035,-0.255
733,-0.575,-0.065
734,-0.205,-0.025
735,-0.145,-0.015
736,-0.125,-0.025
737,-0.115,-0.025
738,-0.115,-0.015
739,-0.135,-0.005
740,-0.125,-0.005
741,-0.115,0.005
742,-0.095,-0.005
743,-0.095,-0.005
744,-0.095,0.015
745,-0.075,0.015
746,-0.065,0.025
747,-0.055,0.045
748,-0.035,0.055
749,-0.025,0.065
750,-0.035,0.075
751,-0.025,0.105
752,-0.015,0.105
753,-0.025,0.105
754,-0.035,0.095
755,-0.055,0.105
756,-0.085,0.085
757,-0.105,0.045
758,-0.115,0.025
759,-0.125,0.025
760,-0.105,0.025
761,-0.065,0.015
762,-0.045,-0.005
763,-0.025,-0.025
764,-0.025,-0.035
765,-0.025,-0.065
766,-0.035,-0.085
767,-0.045,-0.105
768,-0.045,-0.105
769,-0.045,-0.105
770,-0.055,-0.105
771,-0.035,-0.095
772,-0.025,-0.105
773,-0.025,-0.105
774,-0.015,-0.095
775,-0.015,-0.085
776,-0.025,-0.085
777,-0.005,-0.085
778,-0.015,-0.095
779,-0.025,-0.085
780,-0.025,-0.085
781,-0.035,-0.095
782,-0.015,-0.095
783,-0.025,-0.095
784,-0.045,-0.105
785,-0.045,-0.115
786,-0.045,-0.105
787,-0.055,-0.095
788,-0.065,-0.095
789,-0.055,-0.095
790,-0.055,-0.065
791,-0.015,-0.035
792,-0.025,-0.015
793,0.035,-0.025
794,0.065,-0.045
795,0.075,-0.055
796,0.105,-0.035
797,0.095,-0.035
798,0.145,-0.085
799,0.035,-0.095
800,-0.025,-0.115
801,-0.065,-0.135
802,-0.105,-0.145
803,-0.105,-0.135
804,-0.125,-0.155
805,-0.145,-0.145
806,-0.135,-0.155
807,-0.125,-0.145
808,-0.115,-0.145
809,-0.125,-0.085
810,-0.115,-0.055
811,0.225,-0.165
812,1.015,-0.615
813,2.135,-1.225
814,0.785,-1.225
815,-0.935,-0.585
816,-0.825,-0.155
817,-0.335,-0.035
818,-0.145,-0.055
819,-0.125,-0.065
820,-0.135,-0.065
821,-0.155,-0.065
822,-0.135,-0.055
823,-0.105,-0.055
824,-0.125,-0.035
825,-0.105,-0.045
826,-0.105,-0.025
827,-0.095,-0.025
828,-0.095,-0.015
829,-0.085,-0.005
830,-0.065,0.015
831,-0.065,0.045
832,-0.045,0.055
833,-0.035,0.075
834,-0.025,0.115
835,-0.025,0.155
836,-0.005,0.155
837,-0.015,0.175
838,-0.015,0.175
839,-0.035,0.185
840,-0.045,0.165
841,-0.065,0.145
842,-0.075,0.115
843,-0.085,0.115
844,-0.085,0.095
845,-0.065,0.085
846,-0.045,0.045
847,-0.015,0.015
848,-0.005,-0.025
849,-0.015,-0.055
850,-0.035,-0.075
851,-0.025,-0.065
852,-0.055,-0.095
853,-0.045,-0.085
854,-0.045,-0.085
855,-0.045,-0.075
856,-0.035,-0.075
857,-0.025,-0.075
858,-0.035,-0.065
859,-0.035,-0.065
860,-0.035,-0.075
861,-0.025,-0.075
862,-0.035,-0.075
863,-0.045,-0.075
864,-0.045,-0.065
865,-0.045,-0.095
866,-0.045,-0.095
867,-0.065,-0.095
868,-0.055,-0.095
869,-0.055,-0.085
870,-0.065,-0.105
871,-0.075,-0.095
872,-0.075,-0.095
873,-0.065,-0.075
874,-0.055,-0.045
875,-0.025,-0.035
876,0.015,-0.015
877,0.045,-0.025
878,0.065,-0.045
879,0.075,-0.045
880,0.095,-0.025
881,0.105,-0.035
882,0.145,-0.085
883,0.035,-0.095
884,-0.005,-0.115
885,-0.065,-0.155
886,-0.105,-0.145
887,-0.105,-0.135
888,-0.095,-0.135
889,-0.105,-0.165
890,-0.105,-0.145
891,-0.095,-0.135
892,-0.075,-0.125
893,-0.125,-0.085
894,-0.065,0.015
895,0.435,-0.235
896,1.335,-0.735
897,2.065,-1.345
898,0.325,-1.085
899,-0.925,-0.425
900,-0.685,-0.075
901,-0.285,-0.015
902,-0.125,-0.045
903,-0.105,-0.035
904,-0.125,-0.035
905,-0.115,-0.025
906,-0.095,-0.025
907,-0.095,-0.015
908,-0.105,-0.015
909,-0.095,-0.005
910,-0.075,-0.005
911,-0.065,0.015
912,-0.055,0.015
913,-0.075,0.025
914,-0.055,0.025
915,-0.035,0.065
916,-0.025,0.075
917,-0.035,0.085
918,-0.015,0.105
919,0.005,0.135
920,0.015,0.155
921,0.015,0.145
922,-0.005,0.155
923,-0.005,0.155
924,-0.035,0.155
925,-0.045,0.115
926,-0.055,0.085
927,-0.065,0.095
928,-0.055,0.085
929,-0.025,0.065
930,0.005,0.035
931,0.015,0.005
932,0.015,-0.035
933,0.005,-0.065
934,-0.025,-0.075
935,-0.015,-0.085
936,-0.015,-0.085
937,-0.015,-0.095
938,-0.015,-0.085
939,-0.015,-0.065
940,0.005,-0.075
941,-0.005,-0.075
942,-0.005,-0.075
943,-0.005,-0.055
944,0.005,-0.065
945,0.005,-0.075
946,0.005,-0.085
947,0.005,-0.065
948,-0.005,-0.075
949,-0.005,-0.085
950,-0.005,-0.085
951,-0.005,-0.085
952,-0.015,-0.085
953,-0.015,-0.085
954,-0.025,-0.085
955,-0.025,-0.065
956,-0.025,-0.025
957,0.015,-0.005
958,0.025,0.005
959,0.065,0.005
960,0.095,-0.005
961,0.115,-0.005
962,0.145,-0.005
963,0.185,-0.045
964,0.105,-0.085
965,0.025,-0.085
966,-0.015,-0.115
967,-0.055,-0.105
968,-0.065,-0.115
969,-0.085,-0.115
970,-0.095,-0.125
971,-0.095,-0.115
972,-0.095,-0.115
973,-0.085,-0.125
974,-0.075,-0.105
975,-0.125,-0.065
976,-0.035,-0.005
977,0.435,-0.245
978,1.425,-0.705
979,1.795,-1.185
980,-0.115,-0.875
981,-0.985,-0.355
982,-0.625,-0.105
983,-0.235,-0.045
984,-0.115,-0.035
985,-0.105,-0.035
986,-0.105,-0.025
987,-0.095,-0.025
988,-0.085,-0.015
989,-0.095,-0.015
990,-0.095,-0.005
991,-0.075,0.015
992,-0.055,0.005
993,-0.045,0.025
994,-0.045,0.035
995,-0.045,0.045
996,-0.025,0.055
997,-0.015,0.075
998,-0.005,0.085
999,0.005,0.115
1000,-0.005,0.125
1001,0.025,0.135
1002,0.015,0.155
1003,0.015,0.175
1004,-0.005,0.175
1005,-0.015,0.165
1006,-0.055,0.145
1007,-0.065,0.135
1008,-0.075,0.125
1009,-0.085,0.095
1010,-0.075,0.095
1011,-0.035,0.085
1012,-0.015,0.065
1013,-0.005,0.055
1014,0.005,0.025
1015,-0.005,0.005
1016,-0.035,-0.015
1017,-0.035,-0.015
1018,-0.035,-0.025
1019,-0.025,-0.015
1020,-0.025,-0.015
1021,-0.025,-0.025
1022,-0.015,-0.015
1023,-0.015,-0.005
1024,0.005,-0.005
1025,-0.005,-0.015
1026,-0.005,-0.005
1027,0.005,-0.005
1028,-0.005,-0.015
1029,-0.005,-0.015
1030,-0.005,-0.025
1031,0.005,-0.025
1032,-0.015,-0.035
1033,-0.015,-0.045
1034,-0.025,-0.055
1035,-0.035,-0.045
1036,-0.045,-0.045
1037,-0.055,-0.055
1038,-0.045,-0.055
1039,-0.035,-0.025
1040,0.005,0.005
1041,0.025,0.025
1042,0.055,0.015
1043,0.075,0.005
1044,0.085,-0.025
1045,0.105,-0.015
1046,0.105,-0.005
1047,0.145,-0.055
1048,0.055,-0.075
1049,-0.005,-0.075
1050,-0.035,-0.105
1051,-0.075,-0.125
1052,-0.085,-0.125
1053,-0.105,-0.125
1054,-0.105,-0.135
1055,-0.115,-0.125
1056,-0.095,-0.125
1057,-0.085,-0.125
1058,-0.075,-0.085
1059,-0.125,-0.045
1060,0.075,-0.025
1061,0.645,-0.505
1062,1.725,-0.965
1063,1.695,-1.385
1064,-0.495,-0.825
1065,-0.955,-0.215
1066,-0.465,-0.015
1067,-0.175,-0.005
1068,-0.115,-0.025
1069,-0.125,-0.025
1070,-0.125,-0.015
1071,-0.125,-0.015
1072,-0.115,0.005
1073,-0.115,-0.005
1074,-0.115,0.005
1075,-0.095,0.005
1076,-0.085,0.025
1077,-0.085,0.035
1078,-0.075,0.045
1079,-0.065,0.065
1080,-0.055,0.070
1081,-0.045,0.080
1082,-0.045,0.120
1083,-0.035,0.140
1084,-0.015,0.160
1085,-0.015,0.170
1086,-0.005,0.180
1087,-0.035,0.200
1088,-0.045,0.210
1089,-0.055,0.190
1090,-0.065,0.170
1091,-0.075,0.160
1092,-0.115,0.140
1093,-0.115,0.140
1094,-0.095,0.110
1095,-0.055,0.090
1096,-0.035,0.040
1097,-0.035,0.010
1098,-0.035,-0.020
1099,-0.065,-0.040
1100,-0.075,-0.050
1101,-0.075,-0.060
1102,-0.065,-0.060
1103,-0.065,-0.060
1104,-0.065,-0.045
1105,-0.055,-0.045
1106,-0.055,-0.055
1107,-0.065,-0.055
1108,-0.065,-0.055
1109,-0.055,-0.045
1110,-0.055,-0.055
1111,-0.055,-0.065
1112,-0.065,-0.065
1113,-0.075,-0.065
1114,-0.065,-0.065
1115,-0.055,-0.065
1116,-0.085,-0.075
1117,-0.065,-0.065
1118,-0.075,-0.075
1119,-0.065,-0.075
1120,-0.075,-0.075
1121,-0.085,-0.085
1122,-0.075,-0.025
1123,-0.055,-0.005
1124,-0.025,-0.005
1125,0.025,-0.005
1126,0.045,-0.025
1127,0.045,-0.025
1128,0.085,-0.015
1129,0.075,-0.015
1130,0.105,-0.075
1131,0.005,-0.085
1132,-0.035,-0.085
1133,-0.075,-0.125
1134,-0.115,-0.135
1135,-0.145,-0.125
1136,-0.145,-0.125
1137,-0.145,-0.125
1138,-0.145,-0.145
1139,-0.135,-0.125
1140,-0.145,-0.125
1141,-0.155,-0.095
1142,-0.135,-0.045
1143,0.145,-0.125
1144,0.895,-0.555
1145,1.955,-1.115
1146,0.875,-1.225
1147,-0.755,-0.625
1148,-0.815,-0.135
1149,-0.395,-0.005
1150,-0.195,-0.015
1151,-0.155,-0.025
1152,-0.145,-0.035
1153,-0.155,-0.025
1154,-0.145,-0.015
1155,-0.145,-0.015
1156,-0.135,-0.015
1157,-0.125,-0.015
1158,-0.125,-0.005
1159,-0.115,0.025
1160,-0.105,0.025
1161,-0.105,0.025
1162,-0.105,0.025
1163,-0.065,0.065
1164,-0.085,0.085
1165,-0.055,0.085
1166,-0.045,0.095
1167,-0.035,0.125
1168,-0.035,0.145
1169,-0.045,0.155
1170,-0.055,0.155
1171,-0.055,0.155
1172,-0.075,0.145
1173,-0.095,0.135
1174,-0.115,0.115
1175,-0.125,0.105
1176,-0.095,0.095
1177,-0.085,0.075
1178,-0.075,0.065
1179,-0.045,0.045
1180,-0.065,0.005
1181,-0.065,-0.025
1182,-0.065,-0.055
1183,-0.105,-0.055
1184,-0.085,-0.075
1185,-0.085,-0.085
1186,-0.095,-0.075
1187,-0.095,-0.065
1188,-0.075,-0.075
1189,-0.075,-0.075
1190,-0.085,-0.075
1191,-0.085,-0.065
1192,-0.095,-0.075
1193,-0.085,-0.085
1194,-0.055,-0.085
1195,-0.085,-0.085
1196,-0.095,-0.085
1197,-0.075,-0.085
1198,-0.075,-0.105
1199,-0.085,-0.095
1200,-0.065,-0.105
1201,-0.095,-0.105
1202,-0.105,-0.115
1203,-0.105,-0.105
1204,-0.095,-0.115
1205,-0.095,-0.105
1206,-0.115,-0.085
1207,-0.055,-0.045
1208,-0.045,-0.045
1209,-0.005,-0.045
1210,-0.005,-0.045
1211,0.035,-0.045
1212,0.055,-0.045
1213,0.085,-0.045
1214,0.105,-0.065
1215,0.055,-0.105
1216,-0.025,-0.095
1217,-0.065,-0.135
1218,-0.115,-0.155
1219,-0.135,-0.135
1220,-0.155,-0.145
1221,-0.155,-0.155
1222,-0.135,-0.155
1223,-0.145,-0.145
1224,-0.125,-0.145
1225,-0.135,-0.135
1226,-0.185,-0.105
1227,-0.075,-0.045
1228,0.365,-0.195
1229,1.375,-0.655
1230,1.875,-1.185
1231,-0.115,-0.985
1232,-1.065,-0.455
1233,-0.725,-0.155
1234,-0.315,-0.065
1235,-0.175,-0.065
1236,-0.165,-0.075
1237,-0.135,-0.075
1238,-0.155,-0.075
1239,-0.145,-0.065
1240,-0.155,-0.065
1241,-0.135,-0.075
1242,-0.135,-0.055
1243,-0.135,-0.035
1244,-0.135,-0.035
1245,-0.115,-0.035
1246,-0.095,-0.015
1247,-0.115,-0.005
1248,-0.105,0.005
1249,-0.085,0.005
1250,-0.055,0.025
1251,-0.055,0.055
1252,-0.075,0.065
1253,-0.075,0.085
1254,-0.075,0.085
1255,-0.075,0.095
1256,-0.115,0.075
1257,-0.145,0.065
1258,-0.155,0.045
1259,-0.175,0.015
1260,-0.175,0.025
1261,-0.175,0.015
1262,-0.115,-0.005
1263,-0.065,-0.005
1264,-0.055,-0.025
1265,-0.055,-0.045
1266,-0.055,-0.085
1267,-0.075,-0.105
1268,-0.095,-0.115
1269,-0.095,-0.135
1270,-0.105,-0.115
1271,-0.095,-0.115
1272,-0.085,-0.105
1273,-0.065,-0.115
1274,-0.065,-0.105
1275,-0.065,-0.095
1276,-0.075,-0.095
1277,-0.065,-0.115
1278,-0.055,-0.115
1279,-0.055,-0.115
1280,-0.045,-0.115
1281,-0.065,-0.115
1282,-0.075,-0.115
1283,-0.085,-0.125
1284,-0.075,-0.125
1285,-0.075,-0.125
1286,-0.095,-0.135
1287,-0.095,-0.115
1288,-0.105,-0.095
1289,-0.065,-0.065
1290,-0.035,-0.045
1291,-0.005,-0.035
1292,0.015,-0.045
1293,0.045,-0.055
1294,0.095,-0.065
1295,0.115,-0.075
1296,0.065,-0.125
1297,-0.025,-0.125
1298,-0.065,-0.155
1299,-0.105,-0.175
1300,-0.155,-0.165
1301,-0.155,-0.175
1302,-0.155,-0.185
1303,-0.175,-0.185
1304,-0.165,-0.175
1305,-0.145,-0.175
1306,-0.135,-0.165
1307,-0.195,-0.135
1308,-0.135,-0.085
1309,0.245,-0.235
1310,1.255,-0.715
1311,1.895,-1.275
1312,-0.095,-1.055
1313,-1.055,-0.475
1314,-0.695,-0.145
1315,-0.295,-0.055
1316,-0.165,-0.065
1317,-0.135,-0.085
1318,-0.165,-0.085
1319,-0.165,-0.075
1320,-0.155,-0.065
1321,-0.145,-0.065
1322,-0.145,-0.065
1323,-0.135,-0.055
1324,-0.125,-0.035
1325,-0.135,-0.035
1326,-0.095,-0.035
1327,-0.105,-0.005
1328,-0.085,-0.005
1329,-0.095,0.015
1330,-0.065,0.015
1331,-0.065,0.045
1332,-0.075,0.065
1333,-0.065,0.085
1334,-0.065,0.105
1335,-0.055,0.105
1336,-0.075,0.115
1337,-0.105,0.105
1338,-0.145,0.085
1339,-0.155,0.075
1340,-0.185,0.045
1341,-0.185,0.025
1342,-0.195,0.025
1343,-0.125,0.035
1344,-0.075,0.015
1345,-0.085,-0.005
1346,-0.065,-0.025
1347,-0.055,-0.035
1348,-0.085,-0.065
1349,-0.095,-0.075
1350,-0.085,-0.085
1351,-0.085,-0.075
1352,-0.095,-0.075
1353,-0.075,-0.075
1354,-0.075,-0.085
1355,-0.065,-0.065
1356,-0.075,-0.065
1357,-0.065,-0.065
1358,-0.055,-0.085
1359,-0.055,-0.055
1360,-0.065,-0.065
1361,-0.065,-0.065
1362,-0.045,-0.065
1363,-0.045,-0.075
1364,-0.075,-0.075
1365,-0.075,-0.085
1366,-0.075,-0.085
1367,-0.075,-0.085
1368,-0.075,-0.085
1369,-0.095,-0.085
1370,-0.095,-0.075
1371,-0.065,-0.045
1372,-0.035,-0.005
1373,-0.015,-0.005
1374,0.025,-0.005
1375,0.055,-0.005
1376,0.085,-0.015
1377,0.075,-0.045
1378,0.105,-0.065
1379,0.005,-0.095
1380,-0.055,-0.095
1381,-0.105,-0.135
1382,-0.135,-0.145
1383,-0.135,-0.135
1384,-0.155,-0.135
1385,-0.175,-0.145
1386,-0.165,-0.145
1387,-0.155,-0.125
1388,-0.175,-0.125
1389,-0.155,-0.095
1390,-0.185,-0.065
1391,0.055,-0.025
1392,0.705,-0.405
1393,1.825,-0.815
1394,1.205,-1.155
1395,-0.725,-0.765
1396,-0.925,-0.255
1397,-0.435,-0.025
1398,-0.205,-0.005
1399,-0.165,-0.005
1400,-0.175,0.005
1401,-0.185,-0.005
1402,-0.185,0.015
1403,-0.175,0.015
1404,-0.185,0.005
1405,-0.155,0.015
1406,-0.145,0.025
1407,-0.135,0.035
1408,-0.145,0.045
1409,-0.135,0.045
1410,-0.125,0.065
1411,-0.115,0.085
1412,-0.105,0.085
1413,-0.105,0.095
1414,-0.085,0.105
1415,-0.065,0.145
1416,-0.065,0.155
1417,-0.085,0.175
1418,-0.075,0.175
1419,-0.075,0.185
1420,-0.115,0.185
1421,-0.125,0.175
1422,-0.145,0.145
1423,-0.135,0.135
1424,-0.155,0.125
1425,-0.145,0.125
1426,-0.125,0.085
1427,-0.095,0.065
1428,-0.085,0.015
1429,-0.075,-0.015
1430,-0.095,-0.045
1431,-0.105,-0.055
1432,-0.115,-0.065
1433,-0.115,-0.075
1434,-0.115,-0.075
1435,-0.105,-0.065
1436,-0.145,-0.055
1437,-0.115,-0.065
1438,-0.105,-0.065
1439,-0.095,-0.065
1440,-0.095,-0.065
1441,-0.105,-0.065
1442,-0.105,-0.065
1443,-0.095,-0.075
1444,-0.105,-0.075
1445,-0.115,-0.085
1446,-0.105,-0.095
1447,-0.135,-0.075
1448,-0.115,-0.095
1449,-0.115,-0.095
1450,-0.115,-0.075
1451,-0.135,-0.065
1452,-0.135,-0.075
1453,-0.085,-0.045
1454,-0.045,-0.025
1455,-0.035,-0.005
1456,-0.005,-0.025
1457,-0.005,-0.045
1458,0.015,-0.045
1459,0.045,-0.035
1460,0.065,-0.045
1461,-0.015,-0.105
1462,-0.055,-0.105
1463,-0.105,-0.125
1464,-0.155,-0.155
1465,-0.175,-0.145
1466,-0.175,-0.145
1467,-0.175,-0.145
1468,-0.175,-0.145
1469,-0.165,-0.155
1470,-0.155,-0.145
1471,-0.175,-0.115
1472,-0.225,-0.085
1473,-0.025,-0.045
1474,0.615,-0.425
1475,1.695,-0.825
1476,1.445,-1.305
1477,-0.615,-0.925
1478,-0.985,-0.345
1479,-0.535,-0.055
1480,-0.255,-0.015
1481,-0.185,-0.035
1482,-0.185,-0.045
1483,-0.185,-0.035
1484,-0.195,-0.035
1485,-0.185,-0.035
1486,-0.165,-0.035
1487,-0.165,-0.015
1488,-0.175,-0.025
1489,-0.165,-0.005
1490,-0.145,-0.015
1491,-0.145,0.015
1492,-0.145,0.025
1493,-0.135,0.025
1494,-0.135,0.045
1495,-0.105,0.065
1496,-0.105,0.095
1497,-0.105,0.095
1498,-0.095,0.105
1499,-0.075,0.135
1500,-0.095,0.155
1501,-0.095,0.155
1502,-0.125,0.145
1503,-0.135,0.135
1504,-0.145,0.125
1505,-0.165,0.105
1506,-0.165,0.085
1507,-0.155,0.085
1508,-0.135,0.065
1509,-0.125,0.035
1510,-0.085,0.005
1511,-0.085,-0.015
1512,-0.095,-0.055
1513,-0.105,-0.095
1514,-0.125,-0.095
1515,-0.115,-0.085
1516,-0.135,-0.085
1517,-0.115,-0.095
1518,-0.115,-0.105
1519,-0.105,-0.095
1520,-0.105,-0.085
1521,-0.115,-0.085
1522,-0.115,-0.085
1523,-0.095,-0.085
1524,-0.085,-0.095
1525,-0.085,-0.085
1526,-0.105,-0.095
1527,-0.115,-0.095
1528,-0.095,-0.115
1529,-0.105,-0.125
1530,-0.095,-0.115
1531,-0.105,-0.095
1532,-0.135,-0.115
1533,-0.115,-0.125
1534,-0.115,-0.115
1535,-0.135,-0.095
1536,-0.115,-0.065
1537,-0.055,-0.055
1538,-0.085,-0.035
1539,-0.005,-0.025
1540,0.005,-0.025
1541,0.025,-0.035
1542,0.055,-0.035
1543,0.085,-0.055
1544,0.005,-0.105
1545,-0.055,-0.095
1546,-0.105,-0.135
1547,-0.135,-0.155
1548,-0.165,-0.155
1549,-0.175,-0.155
1550,-0.175,-0.165
1551,-0.205,-0.155
1552,-0.185,-0.175
1553,-0.175,-0.165
1554,-0.155,-0.145
1555,-0.215,-0.105
1556,-0.095,-0.045
1557,0.395,-0.225
1558,1.445,-0.735
1559,1.665,-1.275
1560,-0.365,-1.025
1561,-1.075,-0.445
1562,-0.665,-0.145
1563,-0.295,-0.045
1564,-0.195,-0.045
1565,-0.175,-0.065
1566,-0.175,-0.065
1567,-0.175,-0.055
1568,-0.165,-0.035
1569,-0.185,-0.055
1570,-0.175,-0.045
1571,-0.155,-0.035
1572,-0.165,-0.015
1573,-0.135,-0.015
1574,-0.115,-0.015
1575,-0.115,-0.005
1576,-0.105,0.015
1577,-0.125,0.025
1578,-0.095,0.035
1579,-0.085,0.055
1580,-0.075,0.085
1581,-0.075,0.105
1582,-0.075,0.105
1583,-0.075,0.125
1584,-0.075,0.135
1585,-0.125,0.125
1586,-0.135,0.105
1587,-0.165,0.085
1588,-0.195,0.065
1589,-0.205,0.055
1590,-0.185,0.045
1591,-0.145,0.035
1592,-0.085,0.035
1593,-0.075,0.025
1594,-0.055,0.005
1595,-0.055,-0.035
1596,-0.065,-0.055
1597,-0.085,-0.065
1598,-0.095,-0.075
1599,-0.095,-0.075
1600,-0.085,-0.085
1601,-0.075,-0.075
1602,-0.075,-0.065
1603,-0.065,-0.055
1604,-0.065,-0.055
1605,-0.065,-0.055
1606,-0.055,-0.055
1607,-0.055,-0.045
1608,-0.055,-0.045
1609,-0.055,-0.055
1610,-0.055,-0.075
1611,-0.055,-0.065
1612,-0.065,-0.065
1613,-0.065,-0.065
1614,-0.075,-0.075
1615,-0.065,-0.075
1616,-0.075,-0.065
1617,-0.075,-0.045
1618,-0.065,-0.015
1619,-0.025,-0.005
1620,-0.005,0.005
1621,0.045,0.005
1622,0.065,-0.005
1623,0.095,-0.005
1624,0.125,-0.015
1625,0.065,-0.095
1626,-0.025,-0.075
1627,-0.065,-0.115
1628,-0.145,-0.125
1629,-0.155,-0.145
1630,-0.145,-0.145
1631,-0.135,-0.145
1632,-0.145,-0.145
1633,-0.165,-0.145
1634,-0.165,-0.155
1635,-0.145,-0.125
1636,-0.195,-0.115
1637,-0.045,-0.075
1638,0.495,-0.405
1639,1.645,-0.885
1640,1.185,-1.315
1641,-0.725,-0.905
1642,-0.985,-0.335
1643,-0.475,-0.075
1644,-0.205,-0.015
1645,-0.145,-0.045
1646,-0.145,-0.045
1647,-0.155,-0.025
1648,-0.145,-0.035
1649,-0.165,-0.035
1650,-0.155,-0.035
1651,-0.125,-0.015
1652,-0.125,-0.005
1653,-0.125,0.005
1654,-0.115,0.015
1655,-0.105,0.035
1656,-0.105,0.035
1657,-0.085,0.055
1658,-0.085,0.065
1659,-0.085,0.095
1660,-0.065,0.105
1661,-0.045,0.125
1662,-0.045,0.145
1663,-0.055,0.165
1664,-0.065,0.175
1665,-0.075,0.155
1666,-0.105,0.145
1667,-0.125,0.125
1668,-0.155,0.095
1669,-0.155,0.075
1670,-0.165,0.065
1671,-0.135,0.075
1672,-0.095,0.065
1673,-0.075,0.025
1674,-0.055,0.005
1675,-0.045,-0.015
1676,-0.065,-0.035
1677,-0.075,-0.065
1678,-0.065,-0.085
1679,-0.065,-0.065
1680,-0.055,-0.065
1681,-0.055,-0.065
1682,-0.065,-0.065
1683,-0.055,-0.055
1684,-0.055,-0.055
1685,-0.065,-0.055
1686,-0.065,-0.065
1687,-0.065,-0.055
1688,-0.055,-0.065
1689,-0.045,-0.065
1690,-0.075,-0.075
1691,-0.065,-0.075
1692,-0.075,-0.085
1693,-0.065,-0.085
1694,-0.075,-0.085
1695,-0.085,-0.085
1696,-0.085,-0.105
1697,-0.085,-0.095
1698,-0.085,-0.065
1699,-0.075,-0.035
1700,-0.025,-0.015
1701,0.035,-0.025
1702,0.045,-0.035
1703,0.045,-0.055
1704,0.065,-0.035
1705,0.065,-0.035
1706,0.115,-0.085
1707,0.025,-0.115
1708,-0.035,-0.105
1709,-0.075,-0.135
1710,-0.105,-0.155
1711,-0.125,-0.155
1712,-0.125,-0.145
1713,-0.125,-0.155
1714,-0.145,-0.155
1715,-0.135,-0.145
1716,-0.115,-0.155
1717,-0.165,-0.095
1718,-0.125,-0.065
1719,0.195,-0.115
1720,1.035,-0.635
1721,2.155,-1.205
1722,0.585,-1.355
1723,-0.925,-0.695
1724,-0.745,-0.125
1725,-0.285,0.005
1726,-0.145,-0.025
1727,-0.125,-0.015
1728,-0.145,-0.025
1729,-0.125,-0.025
1730,-0.115,-0.015
1731,-0.105,-0.025
1732,-0.115,-0.005
1733,-0.115,-0.005
1734,-0.095,0.005
1735,-0.085,0.015
1736,-0.095,0.025
1737,-0.065,0.035
1738,-0.065,0.055
1739,-0.055,0.055
1740,-0.035,0.085
1741,-0.025,0.095
1742,-0.025,0.125
1743,-0.025,0.145
1744,-0.005,0.155
1745,-0.035,0.175
1746,-0.025,0.185
1747,-0.035,0.185
1748,-0.065,0.165
1749,-0.065,0.165
1750,-0.105,0.145
1751,-0.105,0.125
1752,-0.095,0.105
1753,-0.085,0.085
1754,-0.065,0.065
1755,-0.035,0.035
1756,-0.035,-0.005
1757,-0.015,-0.035
1758,-0.035,-0.065
1759,-0.065,-0.085
1760,-0.055,-0.105
1761,-0.065,-0.105
1762,-0.045,-0.095
1763,-0.065,-0.085
1764,-0.075,-0.075
1765,-0.055,-0.085
1766,-0.025,-0.085
1767,-0.055,-0.075
1768,-0.055,-0.095
1769,-0.055,-0.095
1770,-0.035,-0.095
1771,-0.055,-0.095
1772,-0.065,-0.095
1773,-0.075,-0.095
1774,-0.035,-0.115
1775,-0.045,-0.105
1776,-0.065,-0.105
1777,-0.065,-0.095
1778,-0.085,-0.115
1779,-0.065,-0.095
1780,-0.045,-0.045
1781,0.005,-0.045
1782,0.015,-0.025
1783,0.045,-0.045
1784,0.055,-0.025
1785,0.105,-0.045
1786,0.115,-0.035
1787,0.105,-0.105
1788,0.025,-0.115
1789,-0.015,-0.125
1790,-0.065,-0.165
1791,-0.115,-0.185
1792,-0.125,-0.175
1793,-0.105,-0.175
1794,-0.115,-0.185
1795,-0.155,-0.185
1796,-0.135,-0.175
1797,-0.125,-0.185
1798,-0.105,-0.165
1799,-0.195,-0.125
1800,0.015,-0.065
1801,0.665,-0.445
1802,1.875,-0.985
1803,1.035,-1.315
1804,-0.775,-0.825
1805,-0.935,-0.275
1806,-0.425,-0.075
1807,-0.145,-0.055
1808,-0.125,-0.075
1809,-0.135,-0.075
1810,-0.135,-0.075
1811,-0.135,-0.055
1812,-0.145,-0.055
1813,-0.125,-0.065
1814,-0.135,-0.055
1815,-0.105,-0.035
1816,-0.105,-0.025
1817,-0.105,-0.015
1818,-0.095,-0.005
1819,-0.075,0.015
1820,-0.055,0.015
1821,-0.065,0.045
1822,-0.055,0.055
1823,-0.055,0.085
1824,-0.035,0.095
1825,-0.035,0.105
1826,-0.055,0.115
1827,-0.075,0.105
1828,-0.105,0.085
1829,-0.125,0.055
1830,-0.155,0.045
1831,-0.165,0.035
1832,-0.155,0.035
1833,-0.135,0.015
1834,-0.075,0.015
1835,-0.045,-0.005
1836,-0.045,-0.015
1837,-0.035,-0.045
1838,-0.045,-0.085
1839,-0.055,-0.085
1840,-0.055,-0.095
1841,-0.065,-0.105
1842,-0.075,-0.105
1843,-0.065,-0.085
1844,-0.075,-0.085
1845,-0.055,-0.075
1846,-0.055,-0.085
1847,-0.035,-0.085
1848,-0.045,-0.065
1849,-0.035,-0.075
1850,-0.045,-0.075
1851,-0.035,-0.075
1852,-0.045,-0.075
1853,-0.035,-0.075
1854,-0.045,-0.085
1855,-0.045,-0.085
1856,-0.045,-0.095
1857,-0.065,-0.095
1858,-0.055,-0.085
1859,-0.055,-0.065
1860,-0.035,-0.025
1861,0.015,-0.015
1862,0.015,-0.005
1863,0.055,0.005
1864,0.085,-0.005
1865,0.105,-0.035
1866,0.105,-0.025
1867,0.115,-0.055
1868,0.035,-0.095
1869,0.005,-0.095
1870,-0.065,-0.145
1871,-0.095,-0.135
1872,-0.115,-0.155
1873,-0.135,-0.145
1874,-0.155,-0.165
1875,-0.125,-0.155
1876,-0.135,-0.145
1877,-0.135,-0.145
1878,-0.115,-0.125
1879,-0.175,-0.115
1880,-0.055,-0.045
1881,0.435,-0.375
1882,1.515,-0.845
1883,1.735,-1.385
1884,-0.335,-1.045
1885,-1.025,-0.385
1886,-0.555,-0.065
1887,-0.205,-0.015
1888,-0.115,-0.025
1889,-0.125,-0.035
1890,-0.125,-0.025
1891,-0.125,-0.015
1892,-0.125,-0.015
1893,-0.115,-0.015
1894,-0.125,0.005
1895,-0.115,0.015
1896,-0.095,0.025
1897,-0.075,0.025
1898,-0.085,0.035
1899,-0.075,0.055
1900,-0.075,0.075
1901,-0.065,0.085
1902,-0.055,0.095
1903,-0.025,0.125
1904,-0.025,0.145
1905,-0.045,0.155
1906,-0.035,0.165
1907,-0.035,0.175
1908,-0.065,0.175
1909,-0.075,0.165
1910,-0.095,0.145
1911,-0.125,0.125
1912,-0.135,0.105
1913,-0.115,0.095
1914,-0.075,0.085
1915,-0.055,0.085
1916,-0.045,0.045
1917,-0.015,0.005
1918,-0.015,-0.025
1919,-0.045,-0.035
1920,-0.065,-0.045
1921,-0.065,-0.055
1922,-0.065,-0.065
1923,-0.055,-0.065
1924,-0.045,-0.045
1925,-0.035,-0.045
1926,-0.035,-0.035
1927,-0.025,-0.045
1928,-0.015,-0.035
1929,-0.025,-0.045
1930,-0.025,-0.045
1931,-0.015,-0.045
1932,-0.025,-0.045
1933,-0.035,-0.055
1934,-0.025,-0.065
1935,-0.035,-0.065
1936,-0.035,-0.065
1937,-0.035,-0.065
1938,-0.045,-0.075
1939,-0.045,-0.065
1940,-0.055,-0.055
1941,-0.015,-0.025
1942,0.015,-0.015
1943,0.045,-0.005
1944,0.065,-0.015
1945,0.085,-0.025
1946,0.095,-0.035
1947,0.125,-0.015
1948,0.145,-0.035
1949,0.105,-0.095
1950,0.025,-0.095
1951,-0.015,-0.105
1952,-0.065,-0.135
1953,-0.095,-0.125
1954,-0.095,-0.135
1955,-0.105,-0.135
1956,-0.115,-0.145
1957,-0.125,-0.125
1958,-0.095,-0.135
1959,-0.105,-0.125
1960,-0.145,-0.075
1961,-0.095,-0.065
1962,0.205,-0.145
1963,1.115,-0.645
1964,2.125,-1.195
1965,0.485,-1.235
1966,-0.945,-0.605
1967,-0.655,-0.105
1968,-0.245,0.015
1969,-0.125,0.005
1970,-0.115,-0.015
1971,-0.115,-0.015
1972,-0.125,0.005
1973,-0.125,0.015
1974,-0.105,0.005
1975,-0.095,0.005
1976,-0.095,0.025
1977,-0.105,0.035
1978,-0.085,0.035
1979,-0.075,0.045
1980,-0.045,0.055
1981,-0.055,0.075
1982,-0.045,0.085
1983,-0.035,0.115
1984,-0.045,0.135
1985,-0.015,0.145
1986,-0.005,0.175
1987,-0.005,0.205
1988,-0.025,0.205
1989,-0.045,0.205
1990,-0.045,0.185
1991,-0.065,0.165
1992,-0.085,0.165
1993,-0.105,0.135
1994,-0.105,0.125
1995,-0.065,0.115
1996,-0.035,0.085
1997,-0.015,0.055
1998,0.005,0.015
1999,-0.005,-0.005
2000,-0.035,-0.035
2001,-0.045,-0.065
2002,-0.055,-0.065
2003,-0.035,-0.045
2004,-0.055,-0.045
2005,-0.035,-0.045
2006,-0.035,-0.055
2007,-0.025,-0.045
2008,-0.035,-0.045
2009,-0.015,-0.045
2010,-0.045,-0.055
2011,-0.015,-0.055
2012,-0.015,-0.055
2013,-0.025,-0.065
2014,-0.025,-0.055
2015,-0.045,-0.065
2016,-0.035,-0.075
2017,-0.035,-0.085
2018,-0.045,-0.075
2019,-0.035,-0.075
2020,-0.045,-0.065
2021,-0.035,-0.045
2022,-0.015,-0.015
2023,0.005,-0.005
2024,0.045,0.005
2025,0.085,-0.025
2026,0.095,-0.025
2027,0.125,-0.005
2028,0.095,0.005
2029,0.165,-0.055
2030,0.055,-0.085
2031,0.025,-0.075
2032,-0.035,-0.115
2033,-0.105,-0.125
2034,-0.095,-0.135
2035,-0.115,-0.115
2036,-0.105,-0.135
2037,-0.115,-0.135
2038,-0.125,-0.135
2039,-0.115,-0.125
2040,-0.095,-0.095
2041,-0.165,-0.065
2042,0.025,0.015
2043,0.665,-0.355
2044,1.805,-0.865
2045,1.325,-1.315
2046,-0.585,-0.865
2047,-0.975,-0.305
2048,-0.495,-0.065
2049,-0.195,-0.015
2050,-0.135,-0.015
2051,-0.135,-0.025
2052,-0.125,-0.025
2053,-0.115,-0.025
2054,-0.125,-0.015
2055,-0.125,-0.005
2056,-0.105,0.005
2057,-0.105,-0.005
2058,-0.105,0.005
2059,-0.075,0.025
2060,-0.085,0.035
2061,-0.075,0.025
2062,-0.055,0.045
2063,-0.035,0.065
2064,-0.025,0.075
2065,-0.065,0.105
2066,-0.055,0.115
2067,-0.025,0.135
2068,-0.025,0.145
2069,-0.075,0.145
2070,-0.095,0.125
2071,-0.065,0.145
2072,-0.105,0.105
2073,-0.145,0.065
2074,-0.165,0.065
2075,-0.145,0.075
2076,-0.105,0.065
2077,-0.065,0.055
2078,-0.025,0.045
2079,-0.015,0.005
2080,-0.025,-0.005
2081,-0.045,-0.045
2082,-0.055,-0.055
2083,-0.075,-0.055
2084,-0.085,-0.045
2085,-0.085,-0.055
2086,-0.055,-0.045
2087,-0.045,-0.035
2088,-0.055,-0.035
2089,-0.045,-0.035
2090,-0.055,-0.045
2091,-0.035,-0.035
2092,-0.035,-0.045
2093,-0.055,-0.035
2094,-0.035,-0.035
2095,-0.035,-0.045
2096,-0.045,-0.055
2097,-0.065,-0.065
2098,-0.055,-0.065
2099,-0.065,-0.055
2100,-0.065,-0.065
2101,-0.065,-0.055
2102,-0.085,-0.025
2103,-0.035,-0.005
2104,-0.005,0.005
2105,0.015,-0.005
2106,0.045,-0.005
2107,0.025,-0.005
2108,0.055,0.005
2109,0.095,-0.005
2110,0.095,-0.065
2111,-0.005,-0.065
2112,-0.055,-0.075
2113,-0.095,-0.135
2114,-0.135,-0.125
2115,-0.135,-0.115
2116,-0.155,-0.115
2117,-0.165,-0.125
2118,-0.145,-0.135
2119,-0.155,-0.115
2120,-0.135,-0.125
2121,-0.155,-0.095
2122,-0.185,-0.075
2123,-0.065,-0.005
2124,0.495,-0.355
2125,1.595,-0.805
2126,1.555,-1.315
2127,-0.345,-1.015
2128,-0.975,-0.375
2129,-0.565,-0.045
2130,-0.225,0.005
2131,-0.135,-0.005
2132,-0.155,-0.005
2133,-0.175,-0.015
2134,-0.175,-0.015
2135,-0.135,-0.005
2136,-0.145,0.005
2137,-0.155,0.015
2138,-0.155,0.025
2139,-0.135,0.005
2140,-0.105,0.025
2141,-0.095,0.045
2142,-0.095,0.045
2143,-0.085,0.065
2144,-0.065,0.085
2145,-0.055,0.095
2146,-0.045,0.125
2147,-0.035,0.145
2148,-0.035,0.155
2149,-0.045,0.165
2150,-0.045,0.175
2151,-0.055,0.165
2152,-0.075,0.155
2153,-0.115,0.135
2154,-0.115,0.095
2155,-0.135,0.075
2156,-0.125,0.065
2157,-0.105,0.085
2158,-0.055,0.065
2159,-0.025,0.045
2160,-0.035,0.025
2161,-0.025,-0.005
2162,-0.045,-0.035
2163,-0.055,-0.055
2164,-0.085,-0.065
2165,-0.065,-0.065
2166,-0.055,-0.065
2167,-0.055,-0.045
2168,-0.055,-0.045
2169,-0.045,-0.055
2170,-0.045,-0.055
2171,-0.045,-0.045
2172,-0.065,-0.035
2173,-0.055,-0.055
2174,-0.055,-0.065
2175,-0.045,-0.065
2176,-0.055,-0.065
2177,-0.075,-0.075
2178,-0.065,-0.065
2179,-0.065,-0.075
2180,-0.065,-0.055
2181,-0.035,-0.015
2182,-0.015,-0.005
2183,0.005,0.005
2184,0.035,-0.005
2185,0.045,-0.035
2186,0.075,-0.025
2187,0.085,-0.035
2188,0.035,-0.095
2189,-0.005,-0.105
2190,-0.055,-0.135
2191,-0.095,-0.145
2192,-0.115,-0.145
2193,-0.135,-0.155
2194,-0.135,-0.165
2195,-0.145,-0.165
2196,-0.135,-0.165
2197,-0.135,-0.165
2198,-0.125,-0.165
2199,-0.155,-0.115
2200,-0.135,-0.095
2201,0.095,-0.185
2202,0.785,-0.665
2203,1.645,-1.235
2204,0.435,-1.315
2205,-0.695,-0.685
2206,-0.645,-0.135
2207,-0.295,-0.005
2208,-0.145,-0.035
2209,-0.135,-0.055
2210,-0.135,-0.055
2211,-0.135,-0.035
2212,-0.135,-0.045
2213,-0.115,-0.045
2214,-0.115,-0.025
2215,-0.115,-0.015
2216,-0.115,0.005
2217,-0.115,-0.015
2218,-0.105,-0.005
2219,-0.095,0.025
2220,-0.105,0.025
2221,-0.075,0.045
2222,-0.075,0.045
2223,-0.065,0.085
2224,-0.045,0.105
2225,-0.045,0.105
2226,-0.035,0.125
2227,-0.035,0.145
2228,-0.055,0.155
2229,-0.075,0.145
2230,-0.105,0.115
2231,-0.085,0.105
2232,-0.115,0.075
2233,-0.145,0.065
2234,-0.125,0.055
2235,-0.075,0.045
2236,-0.055,0.015
2237,-0.045,-0.025
2238,-0.065,-0.045
2239,-0.065,-0.075
2240,-0.075,-0.105
2241,-0.065,-0.125
2242,-0.075,-0.115
2243,-0.085,-0.105
2244,-0.095,-0.095
2245,-0.085,-0.115
2246,-0.085,-0.105
2247,-0.065,-0.095
2248,-0.065,-0.095
2249,-0.065,-0.105
2250,-0.065,-0.125
2251,-0.055,-0.105
2252,-0.075,-0.105
2253,-0.065,-0.115
2254,-0.055,-0.125
2255,-0.055,-0.105
2256,-0.045,-0.115
2257,-0.075,-0.115
2258,-0.065,-0.085
2259,-0.005,-0.055
2260,-0.015,-0.055
2261,0.015,-0.035
2262,0.045,-0.055
2263,0.065,-0.055
2264,0.095,-0.065
2265,0.115,-0.085
2266,0.045,-0.135
2267,-0.005,-0.125
2268,-0.055,-0.155
2269,-0.105,-0.195
2270,-0.115,-0.195
2271,-0.135,-0.185
2272,-0.145,-0.185
2273,-0.145,-0.185
2274,-0.135,-0.195
2275,-0.125,-0.185
2276,-0.125,-0.165
2277,-0.175,-0.155
2278,-0.125,-0.095
2279,0.195,-0.305
2280,1.175,-0.835
2281,1.365,-1.425
2282,-0.295,-1.055
2283,-0.865,-0.475
2284,-0.545,-0.135
2285,-0.235,-0.065
2286,-0.145,-0.075
2287,-0.135,-0.085
2288,-0.135,-0.095
2289,-0.135,-0.085
2290,-0.135,-0.075
2291,-0.135,-0.065
2292,-0.125,-0.055
2293,-0.115,-0.055
2294,-0.135,-0.055
2295,-0.105,-0.025
2296,-0.095,-0.035
2297,-0.105,-0.025
2298,-0.085,-0.025
2299,-0.075,0.005
2300,-0.075,0.015
2301,-0.055,0.025
2302,-0.065,0.055
2303,-0.055,0.075
2304,-0.035,0.085
2305,-0.065,0.095
2306,-0.065,0.105
2307,-0.095,0.095
2308,-0.105,0.075
2309,-0.135,0.065
2310,-0.145,0.025
2311,-0.155,0.025
2312,-0.155,-0.005
2313,-0.135,0.005
2314,-0.095,-0.015
2315,-0.085,-0.015
2316,-0.065,-0.035
2317,-0.055,-0.065
2318,-0.055,-0.105
2319,-0.085,-0.115
2320,-0.095,-0.105
2321,-0.085,-0.105
2322,-0.075,-0.125
2323,-0.065,-0.115
2324,-0.065,-0.105
2325,-0.065,-0.095
2326,-0.065,-0.105
2327,-0.055,-0.105
2328,-0.045,-0.095
2329,-0.055,-0.095
2330,-0.065,-0.095
2331,-0.045,-0.105
2332,-0.055,-0.105
2333,-0.055,-0.105
2334,-0.055,-0.105
2335,-0.055,-0.105
2336,-0.025,-0.055
2337,0.015,-0.015
2338,0.045,-0.005
2339,0.055,-0.025
2340,0.085,-0.025
2341,0.085,-0.045
2342,0.115,-0.065
2343,0.125,-0.085
2344,0.035,-0.125
2345,-0.005,-0.125
2346,-0.055,-0.175
2347,-0.105,-0.175
2348,-0.115,-0.185
2349,-0.125,-0.185
2350,-0.145,-0.185
2351,-0.135,-0.175
2352,-0.125,-0.195
2353,-0.115,-0.195
2354,-0.125,-0.155
2355,-0.165,-0.105
2356,0.055,-0.135
2357,0.715,-0.595
2358,1.795,-1.135
2359,0.865,-1.315
2360,-0.705,-0.655
2361,-0.625,-0.125
2362,-0.275,-0.035
2363,-0.165,-0.045
2364,-0.145,-0.065
2365,-0.145,-0.065
2366,-0.145,-0.055
2367,-0.155,-0.055
2368,-0.135,-0.055
2369,-0.135,-0.045
2370,-0.135,-0.035
2371,-0.125,-0.025
2372,-0.135,-0.015
2373,-0.115,-0.015
2374,-0.105,0.015
2375,-0.105,0.025
2376,-0.105,0.045
2377,-0.095,0.045
2378,-0.085,0.075
2379,-0.065,0.095
2380,-0.075,0.115
2381,-0.085,0.135
2382,-0.085,0.145
2383,-0.095,0.145
2384,-0.115,0.135
2385,-0.145,0.115
2386,-0.155,0.095
2387,-0.165,0.095
2388,-0.165,0.065
2389,-0.155,0.065
2390,-0.115,0.025
2391,-0.095,0.015
2392,-0.085,-0.025
2393,-0.095,-0.045
2394,-0.095,-0.075
2395,-0.075,-0.095
2396,-0.095,-0.095
2397,-0.105,-0.105
2398,-0.105,-0.105
2399,-0.115,-0.115
2400,-0.095,-0.095
2401,-0.115,-0.105
2402,-0.095,-0.095
2403,-0.085,-0.095
2404,-0.105,-0.095
2405,-0.095,-0.095
2406,-0.105,-0.095
2407,-0.105,-0.105
2408,-0.085,-0.105
2409,-0.095,-0.125
2410,-0.095,-0.115
2411,-0.105,-0.105
2412,-0.105,-0.095
2413,-0.075,-0.085
2414,-0.065,-0.045
2415,-0.025,-0.035
2416,-0.015,-0.025
2417,0.015,-0.055
2418,0.015,-0.095
2419,0.045,-0.045
2420,0.035,-0.065
2421,0.025,-0.115
2422,-0.045,-0.135
2423,-0.075,-0.115
2424,-0.125,-0.155
2425,-0.165,-0.175
2426,-0.185,-0.165
2427,-0.175,-0.175
2428,-0.195,-0.165
2429,-0.205,-0.175
2430,-0.185,-0.175
2431,-0.165,-0.175
2432,-0.205,-0.145
2433,-0.205,-0.135
2434,0.075,-0.225
2435,0.935,-0.655
2436,1.855,-1.155
2437,0.435,-1.215
2438,-0.865,-0.585
2439,-0.665,-0.125
2440,-0.315,-0.025
2441,-0.205,-0.045
2442,-0.185,-0.055
2443,-0.175,-0.045
2444,-0.185,-0.035
2445,-0.195,-0.035
2446,-0.175,-0.035
2447,-0.165,-0.025
2448,-0.155,-0.015
2449,-0.155,-0.005
2450,-0.145,-0.005
2451,-0.135,0.005
2452,-0.135,0.015
2453,-0.125,0.035
2454,-0.125,0.055
2455,-0.115,0.085
2456,-0.095,0.085
2457,-0.105,0.105
2458,-0.095,0.125
2459,-0.105,0.145
2460,-0.115,0.155
2461,-0.125,0.145
2462,-0.155,0.135
2463,-0.165,0.125
2464,-0.185,0.105
2465,-0.195,0.075
2466,-0.185,0.085
2467,-0.165,0.065
2468,-0.135,0.065
2469,-0.095,0.025
2470,-0.095,-0.005
2471,-0.085,-0.035
2472,-0.095,-0.045
2473,-0.115,-0.065
2474,-0.135,-0.075
2475,-0.125,-0.065
2476,-0.135,-0.065
2477,-0.145,-0.065
2478,-0.125,-0.065
2479,-0.115,-0.055
2480,-0.115,-0.055
2481,-0.115,-0.065
2482,-0.125,-0.075
2483,-0.115,-0.065
2484,-0.115,-0.065
2485,-0.125,-0.065
2486,-0.125,-0.075
2487,-0.115,-0.075
2488,-0.125,-0.075
2489,-0.115,-0.075
2490,-0.135,-0.075
2491,-0.115,-0.055
2492,-0.115,-0.025
2493,-0.075,-0.015
2494,-0.045,-0.005
2495,-0.025,-0.025
2496,-0.015,-0.035
2497,-0.005,-0.045
2498,0.015,-0.025
2499,0.065,-0.055
2500,-0.035,-0.105
2501,-0.085,-0.095
2502,-0.125,-0.125
2503,-0.175,-0.125
2504,-0.185,-0.135
2505,-0.195,-0.135
2506,-0.195,-0.145
2507,-0.195,-0.135
2508,-0.225,-0.135
2509,-0.195,-0.135
2510,-0.185,-0.125
2511,-0.225,-0.115
2512,-0.035,-0.105
2513,0.635,-0.545
2514,1.775,-1.075
2515,0.435,-1.235
2516,-0.905,-0.620
2517,-0.745,-0.170
2518,-0.375,-0.020
2519,-0.215,-0.020
2520,-0.195,-0.020
2521,-0.215,-0.030
2522,-0.205,-0.030
2523,-0.195,-0.010
2524,-0.195,-0.010
2525,-0.185,0.000
2526,-0.195,-0.010
2527,-0.175,0.000
2528,-0.175,0.020
2529,-0.155,0.020
2530,-0.155,0.030
2531,-0.135,0.050
2532,-0.125,0.050
2533,-0.115,0.070
2534,-0.115,0.100
2535,-0.105,0.120
2536,-0.135,0.130
2537,-0.115,0.130
2538,-0.135,0.140
2539,-0.155,0.130
2540,-0.175,0.120
2541,-0.195,0.080
2542,-0.195,0.080
2543,-0.195,0.070
2544,-0.185,0.080
2545,-0.155,0.070
2546,-0.105,0.060
2547,-0.095,0.040
2548,-0.075,0.005
2549,-0.095,-0.015
2550,-0.105,-0.055
2551,-0.105,-0.055
2552,-0.115,-0.075
2553,-0.125,-0.065
2554,-0.125,-0.065
2555,-0.115,-0.065
2556,-0.105,-0.065
2557,-0.105,-0.065
2558,-0.115,-0.065
2559,-0.105,-0.055
2560,-0.105,-0.065
2561,-0.105,-0.065
2562,-0.115,-0.065
2563,-0.105,-0.065
2564,-0.115,-0.085
2565,-0.105,-0.095
2566,-0.125,-0.065
2567,-0.125,-0.085
2568,-0.125,-0.065
2569,-0.105,-0.045
2570,-0.075,-0.035
2571,-0.065,-0.005
2572,-0.035,-0.005
2573,-0.025,-0.035
2574,0.005,-0.045
2575,0.015,-0.005
2576,0.065,-0.025
2577,0.015,-0.095
2578,-0.065,-0.105
2579,-0.115,-0.105
2580,-0.165,-0.145
2581,-0.185,-0.145
2582,-0.175,-0.155
2583,-0.185,-0.155
2584,-0.185,-0.155
2585,-0.185,-0.145
2586,-0.175,-0.155
2587,-0.155,-0.155
2588,-0.225,-0.115
2589,-0.165,-0.085
2590,0.125,-0.185
2591,0.965,-0.705
2592,1.635,-1.345
2593,-0.005,-1.195
2594,-0.925,-0.515
2595,-0.645,-0.105
2596,-0.305,-0.015
2597,-0.195,-0.035
2598,-0.175,-0.045
2599,-0.185,-0.045
2600,-0.185,-0.025
2601,-0.165,-0.035
2602,-0.155,-0.015
2603,-0.145,-0.005
2604,-0.175,-0.005
2605,-0.155,-0.005
2606,-0.135,0.005
2607,-0.125,0.045
2608,-0.115,0.045
2609,-0.125,0.055
2610,-0.105,0.045
2611,-0.085,0.085
2612,-0.095,0.095
2613,-0.095,0.125
2614,-0.085,0.115
2615,-0.075,0.135
2616,-0.095,0.135
2617,-0.125,0.135
2618,-0.135,0.105
2619,-0.145,0.095
2620,-0.175,0.065
2621,-0.165,0.055
2622,-0.175,0.055
2623,-0.105,0.055
2624,-0.065,0.055
2625,-0.055,0.025
2626,-0.035,0.005
2627,-0.055,-0.015
2628,-0.085,-0.045
2629,-0.075,-0.065
2630,-0.085,-0.075
2631,-0.085,-0.065
2632,-0.075,-0.055
2633,-0.095,-0.055
2634,-0.085,-0.065
2635,-0.055,-0.055
2636,-0.085,-0.055
2637,-0.065,-0.055
2638,-0.075,-0.055
2639,-0.075,-0.065
2640,-0.065,-0.065
2641,-0.075,-0.075
2642,-0.085,-0.065
2643,-0.085,-0.065
2644,-0.085,-0.085
2645,-0.075,-0.075
2646,-0.085,-0.075
2647,-0.095,-0.055
2648,-0.065,-0.035
2649,-0.055,-0.035
2650,-0.015,-0.005
2651,-0.005,-0.015
2652,0.015,-0.025
2653,0.045,-0.045
2654,0.055,-0.015
2655,0.135,-0.035
2656,0.035,-0.095
2657,-0.035,-0.105
2658,-0.075,-0.135
2659,-0.095,-0.135
2660,-0.135,-0.125
2661,-0.145,-0.145
2662,-0.145,-0.165
2663,-0.145,-0.155
2664,-0.145,-0.155
2665,-0.135,-0.155
2666,-0.125,-0.145
2667,-0.175,-0.115
2668,-0.095,-0.055
2669,0.255,-0.125
2670,1.225,-0.655
2671,1.625,-1.255
2672,-0.135,-1.135
2673,-0.985,-0.545
2674,-0.685,-0.185
2675,-0.285,-0.065
2676,-0.165,-0.055
2677,-0.125,-0.055
2678,-0.145,-0.085
2679,-0.135,-0.065
2680,-0.125,-0.065
2681,-0.125,-0.055
2682,-0.125,-0.055
2683,-0.115,-0.045
2684,-0.115,-0.025
2685,-0.095,-0.025
2686,-0.095,-0.005
2687,-0.085,-0.005
2688,-0.065,0.005
2689,-0.055,0.005
2690,-0.045,0.025
2691,-0.045,0.055
2692,-0.055,0.075
2693,-0.035,0.075
2694,-0.045,0.085
2695,-0.065,0.095
2696,-0.085,0.105
2697,-0.105,0.085
2698,-0.115,0.045
2699,-0.135,0.035
2700,-0.135,0.025
2701,-0.135,0.025
2702,-0.105,0.005
2703,-0.045,0.025
2704,-0.005,0.015
2705,-0.015,-0.005
2706,-0.025,-0.045
2707,-0.035,-0.065
2708,-0.055,-0.095
2709,-0.055,-0.105
2710,-0.055,-0.105
2711,-0.055,-0.095
2712,-0.055,-0.085
2713,-0.045,-0.075
2714,-0.045,-0.085
2715,-0.025,-0.075
2716,-0.035,-0.075
2717,-0.015,-0.065
2718,-0.035,-0.085
2719,-0.025,-0.075
2720,-0.025,-0.085
2721,-0.015,-0.085
2722,-0.035,-0.085
2723,-0.045,-0.075
2724,-0.045,-0.055
2725,0.015,-0.035
2726,-0.005,-0.005
2727,0.035,0.015
2728,0.065,0.005
2729,0.085,-0.025
2730,0.125,-0.015
2731,0.145,-0.035
2732,0.085,-0.085
2733,0.005,-0.105
2734,-0.045,-0.135
2735,-0.075,-0.145
2736,-0.105,-0.145
2737,-0.115,-0.155
2738,-0.115,-0.155
2739,-0.115,-0.145
2740,-0.135,-0.155
2741,-0.135,-0.155
2742,-0.105,-0.165
2743,-0.145,-0.115
2744,-0.145,-0.105
2745,0.055,-0.105
2746,0.805,-0.565
2747,1.795,-1.165
2748,0.305,-1.235
2749,-0.915,-0.675
2750,-0.805,-0.225
2751,-0.315,-0.055
2752,-0.135,-0.055
2753,-0.105,-0.065
2754,-0.125,-0.065
2755,-0.125,-0.045
2756,-0.105,-0.055
2757,-0.095,-0.045
2758,-0.105,-0.035
2759,-0.105,-0.035
2760,-0.095,-0.025
2761,-0.095,-0.025
2762,-0.085,-0.005
2763,-0.085,0.005
2764,-0.085,0.025
2765,-0.045,0.025
2766,-0.035,0.035
2767,-0.035,0.055
2768,-0.045,0.075
2769,-0.045,0.085
2770,-0.035,0.085
2771,-0.055,0.115
2772,-0.075,0.115
2773,-0.085,0.105
2774,-0.105,0.065
2775,-0.135,0.055
2776,-0.165,0.025
2777,-0.175,0.005
2778,-0.135,-0.005
2779,-0.085,0.015
2780,-0.085,-0.005
2781,-0.055,-0.005
2782,-0.025,-0.035
2783,-0.015,-0.065
2784,-0.025,-0.075
2785,-0.055,-0.085
2786,-0.065,-0.095
2787,-0.045,-0.095
2788,-0.055,-0.105
2789,-0.035,-0.095
2790,-0.055,-0.085
2791,-0.035,-0.075
2792,-0.025,-0.075
2793,-0.025,-0.075
2794,-0.025,-0.075
2795,-0.025,-0.075
2796,-0.035,-0.075
2797,-0.035,-0.075
2798,-0.025,-0.085
2799,-0.035,-0.085
2800,-0.035,-0.075
2801,-0.035,-0.065
2802,-0.025,-0.025
2803,0.015,-0.005
2804,0.055,-0.025
2805,0.055,-0.035
2806,0.075,-0.065
2807,0.085,-0.025
2808,0.095,-0.045
2809,0.125,-0.095
2810,0.035,-0.125
2811,-0.015,-0.105
2812,-0.065,-0.145
2813,-0.125,-0.175
2814,-0.115,-0.175
2815,-0.125,-0.155
2816,-0.115,-0.165
2817,-0.135,-0.175
2818,-0.125,-0.165
2819,-0.105,-0.165
2820,-0.135,-0.125
2821,-0.145,-0.105
2822,0.045,-0.105
2823,0.645,-0.495
2824,1.785,-0.985
2825,1.145,-1.365
2826,-0.625,-0.855
2827,-0.775,-0.275
2828,-0.395,-0.035
2829,-0.185,-0.025
2830,-0.135,-0.045
2831,-0.135,-0.045
2832,-0.125,-0.045
2833,-0.145,-0.025
2834,-0.135,-0.025
2835,-0.115,-0.025
2836,-0.125,-0.015
2837,-0.105,-0.005
2838,-0.105,0.005
2839,-0.085,0.015
2840,-0.075,0.025
2841,-0.085,0.035
2842,-0.085,0.045
2843,-0.065,0.065
2844,-0.055,0.085
2845,-0.045,0.105
2846,-0.055,0.125
2847,-0.035,0.145
2848,-0.035,0.175
2849,-0.035,0.175
2850,-0.045,0.175
2851,-0.085,0.175
2852,-0.115,0.165
2853,-0.095,0.135
2854,-0.115,0.115
2855,-0.115,0.105
2856,-0.105,0.105
2857,-0.085,0.075
2858,-0.055,0.035
2859,-0.035,0.015
2860,-0.045,-0.025
2861,-0.045,-0.055
2862,-0.045,-0.075
2863,-0.035,-0.075
2864,-0.055,-0.075
2865,-0.065,-0.065
2866,-0.065,-0.085
2867,-0.045,-0.075
2868,-0.045,-0.075
2869,-0.045,-0.065
2870,-0.055,-0.065
2871,-0.045,-0.055
2872,-0.045,-0.075
2873,-0.045,-0.075
2874,-0.045,-0.075
2875,-0.035,-0.065
2876,-0.055,-0.075
2877,-0.045,-0.085
2878,-0.045,-0.085
2879,-0.045,-0.055
2880,-0.015,-0.015
2881,-0.005,-0.015
2882,0.035,-0.005
2883,0.075,-0.035
2884,0.055,-0.045
2885,0.075,-0.035
2886,0.075,-0.025
2887,0.125,-0.065
2888,0.025,-0.105
2889,0.005,-0.095
2890,-0.065,-0.125
2891,-0.095,-0.145
2892,-0.105,-0.145
2893,-0.105,-0.155
2894,-0.115,-0.145
2895,-0.125,-0.135
2896,-0.125,-0.135
2897,-0.105,-0.155
2898,-0.145,-0.105
2899,-0.135,-0.075
2900,0.165,-0.155
2901,1.125,-0.625
2902,1.825,-1.265
2903,0.245,-1.195
2904,-0.775,-0.475
2905,-0.525,-0.075
2906,-0.225,-0.015
2907,-0.145,-0.015
2908,-0.125,-0.035
2909,-0.105,-0.025
2910,-0.115,-0.025
2911,-0.125,-0.035
2912,-0.105,-0.025
2913,-0.095,-0.025
2914,-0.105,-0.015
2915,-0.095,0.005
2916,-0.085,0.005
2917,-0.055,0.005
2918,-0.065,0.045
2919,-0.035,0.055
2920,-0.035,0.055
2921,-0.035,0.085
2922,-0.015,0.105
2923,-0.015,0.125
2924,-0.015,0.155
2925,0.005,0.155
2926,-0.005,0.165
2927,-0.005,0.195
2928,-0.015,0.185
2929,-0.035,0.145
2930,-0.045,0.125
2931,-0.045,0.115
2932,-0.045,0.115
2933,-0.035,0.105
2934,-0.025,0.095
2935,0.005,0.085
2936,0.015,0.045
2937,0.015,0.005
2938,0.015,-0.005
2939,0.015,-0.015
2940,0.005,-0.025
2941,-0.005,-0.035
2942,0.005,-0.025
2943,0.005,-0.025
2944,0.015,-0.035
2945,0.015,-0.015
2946,0.015,-0.015
2947,0.015,-0.015
2948,0.025,-0.015
2949,0.025,-0.025
2950,0.015,-0.025
2951,0.025,-0.025
2952,0.015,-0.025
2953,0.015,-0.045
2954,0.025,-0.045
2955,0.025,-0.035
2956,0.025,-0.035
2957,0.025,-0.045
2958,0.015,-0.045
2959,0.025,-0.015
2960,0.025,0.015
2961,0.035,0.025
2962,0.045,0.015
2963,0.065,0.005
2964,0.065,0.015
2965,0.075,0.015
2966,0.085,0.015
2967,0.105,-0.015
2968,0.065,-0.045
2969,0.045,-0.045
2970,0.005,-0.085
2971,-0.015,-0.085
2972,-0.025,-0.095
2973,-0.035,-0.095
2974,-0.045,-0.095
2975,-0.055,-0.095
2976,-0.045,-0.095
2977,-0.055,-0.115
2978,-0.055,-0.075
2979,-0.035,-0.025
2980,0.115,-0.025
2981,0.655,-0.445
2982,1.235,-0.995
2983,0.375,-1.125
2984,-0.465,-0.615
2985,-0.425,-0.125
2986,-0.195,0.005
2987,-0.095,-0.005
2988,-0.075,-0.005
2989,-0.075,-0.025
2990,-0.085,-0.015
2991,-0.065,-0.005
2992,-0.065,0.005
2993,-0.065,-0.005
2994,-0.055,0.015
2995,-0.065,0.025
2996,-0.055,0.045
2997,-0.045,0.035
2998,-0.025,0.055
2999,-0.015,0.075
3000,-0.015,0.085
3001,-0.025,0.085
3002,-0.005,0.105
3003,0.005,0.145
3004,-0.005,0.145
3005,0.005,0.155
3006,0.005,0.145
3007,0.005,0.155
3008,-0.005,0.145
3009,-0.035,0.125
3010,-0.045,0.095
3011,-0.055,0.095
3012,-0.045,0.085
3013,-0.035,0.075
3014,-0.005,0.065
3015,0.025,0.065
3016,0.025,0.055
3017,0.025,0.015
3018,0.005,-0.015
3019,0.005,-0.035
3020,-0.025,-0.045
3021,-0.025,-0.055
3022,-0.035,-0.055
3023,-0.035,-0.055
3024,-0.015,-0.035
3025,-0.015,-0.045
3026,-0.015,-0.045
3027,-0.015,-0.045
3028,0.005,-0.045
3029,-0.005,-0.045
3030,-0.015,-0.055
3031,-0.015,-0.055
3032,-0.005,-0.055
3033,-0.015,-0.055
3034,-0.015,-0.065
3035,-0.025,-0.065
3036,-0.035,-0.065
3037,-0.025,-0.075
3038,-0.025,-0.065
3039,-0.005,-0.015
3040,0.015,-0.015
3041,0.015,-0.015
3042,0.035,-0.035
3043,0.065,-0.025
3044,0.075,-0.025
3045,0.085,-0.015
3046,0.115,-0.065
3047,0.045,-0.105
3048,0.005,-0.075
3049,-0.045,-0.115
3050,-0.085,-0.135
3051,-0.085,-0.135
3052,-0.095,-0.135
3053,-0.095,-0.135
3054,-0.085,-0.135
3055,-0.085,-0.125
3056,-0.085,-0.135
3057,-0.095,-0.115
3058,-0.095,-0.085
3059,0.055,-0.065
3060,0.605,-0.435
3061,1.415,-0.985
3062,0.525,-1.315
3063,-0.525,-0.795
3064,-0.535,-0.195
3065,-0.245,-0.015
3066,-0.125,-0.035
3067,-0.105,-0.035
3068,-0.095,-0.035
3069,-0.085,-0.035
3070,-0.085,-0.035
3071,-0.075,-0.025
3072,-0.075,-0.025
3073,-0.075,-0.015
3074,-0.075,-0.015
3075,-0.065,0.015
3076,-0.055,0.005
3077,-0.055,0.025
3078,-0.035,0.045
3079,-0.015,0.075
3080,-0.015,0.075
3081,-0.015,0.085
3082,0.005,0.105
3083,0.005,0.125
3084,-0.005,0.145
3085,-0.015,0.155
3086,-0.025,0.135
3087,-0.035,0.125
3088,-0.045,0.125
3089,-0.065,0.095
3090,-0.075,0.065
3091,-0.065,0.065
3092,-0.035,0.065
3093,-0.015,0.045
3094,-0.005,0.025
3095,0.015,0.005
3096,-0.005,-0.025
3097,-0.015,-0.045
3098,-0.045,-0.065
3099,-0.055,-0.065
3100,-0.045,-0.075
3101,-0.055,-0.075
3102,-0.035,-0.065
3103,-0.025,-0.055
3104,-0.045,-0.065
3105,-0.045,-0.065
3106,-0.035,-0.055
3107,-0.035,-0.055
3108,-0.025,-0.065
3109,-0.035,-0.075
3110,-0.025,-0.085
3111,-0.025,-0.065
3112,-0.035,-0.075
3113,-0.045,-0.085
3114,-0.045,-0.105
3115,-0.055,-0.095
3116,-0.055,-0.085
3117,-0.055,-0.095
3118,-0.045,-0.065
3119,-0.015,-0.045
3120,0.005,-0.025
3121,0.005,-0.045
3122,0.025,-0.055
3123,0.045,-0.045
3124,0.065,-0.035
3125,0.105,-0.045
3126,0.065,-0.105
3127,0.005,-0.105
3128,-0.045,-0.125
3129,-0.075,-0.155
3130,-0.095,-0.155
3131,-0.095,-0.145
3132,-0.115,-0.155
3133,-0.115,-0.165
3134,-0.105,-0.165
3135,-0.105,-0.155
3136,-0.105,-0.155
3137,-0.155,-0.125
3138,-0.045,-0.095
3139,0.385,-0.255
3140,1.345,-0.705
3141,1.045,-1.265
3142,-0.405,-1.015
3143,-0.725,-0.415
3144,-0.385,-0.065
3145,-0.175,-0.025
3146,-0.135,-0.045
3147,-0.135,-0.045
3148,-0.125,-0.055
3149,-0.115,-0.055
3150,-0.105,-0.045
3151,-0.105,-0.035
3152,-0.115,-0.025
3153,-0.105,-0.035
3154,-0.085,-0.015
3155,-0.085,0.005
3156,-0.085,0.005
3157,-0.075,0.005
3158,-0.055,0.035
3159,-0.045,0.065
3160,-0.045,0.065
3161,-0.035,0.075
3162,-0.025,0.105
3163,-0.015,0.125
3164,-0.015,0.125
3165,-0.035,0.135
3166,-0.045,0.125
3167,-0.055,0.135
3168,-0.075,0.105
3169,-0.095,0.085
3170,-0.105,0.055
3171,-0.105,0.065
3172,-0.085,0.045
3173,-0.065,0.045
3174,-0.035,0.005
3175,-0.025,-0.005
3176,-0.035,-0.045
3177,-0.065,-0.075
3178,-0.065,-0.095
3179,-0.085,-0.095
3180,-0.085,-0.085
3181,-0.085,-0.095
3182,-0.075,-0.085
3183,-0.065,-0.085
3184,-0.085,-0.085
3185,-0.075,-0.075
3186,-0.055,-0.075
3187,-0.065,-0.075
3188,-0.065,-0.085
3189,-0.065,-0.065
3190,-0.065,-0.075
3191,-0.055,-0.075
3192,-0.075,-0.075
3193,-0.075,-0.075
3194,-0.055,-0.085
3195,-0.065,-0.075
3196,-0.095,-0.085
3197,-0.085,-0.075
3198,-0.075,-0.095
3199,-0.075,-0.085
3200,-0.075,-0.055
3201,-0.055,-0.025
3202,-0.035,-0.025
3203,0.005,-0.015
3204,0.015,-0.015
3205,0.035,-0.015
3206,0.055,-0.025
3207,0.065,-0.015
3208,0.095,-0.035
3209,0.005,-0.075
3210,-0.035,-0.075
3211,-0.085,-0.085
3212,-0.115,-0.095
3213,-0.125,-0.095
3214,-0.135,-0.105
3215,-0.135,-0.095
3216,-0.125,-0.085
3217,-0.125,-0.085
3218,-0.105,-0.095
3219,-0.145,-0.065
3220,-0.115,-0.045
3221,0.195,-0.005
3222,0.935,-0.285
3223,1.595,-0.665
3224,0.195,-0.865
3225,-0.775,-0.485
3226,-0.615,-0.145
3227,-0.285,-0.015
3228,-0.175,-0.005
3229,-0.165,-0.015
3230,-0.165,-0.015
3231,-0.155,-0.005
3232,-0.155,-0.005
3233,-0.155,0.005
3234,-0.135,0.005
3235,-0.135,0.015
3236,-0.145,0.005
3237,-0.115,0.025
3238,-0.115,0.025
3239,-0.095,0.045
3240,-0.095,0.045
3241,-0.085,0.055
3242,-0.065,0.065
3243,-0.065,0.085
3244,-0.065,0.085
3245,-0.045,0.105
3246,-0.065,0.105
3247,-0.075,0.125
3248,-0.095,0.115
3249,-0.105,0.095
3250,-0.125,0.085
3251,-0.155,0.065
3252,-0.155,0.055
3253,-0.115,0.045
3254,-0.105,0.045
3255,-0.075,0.025
3256,-0.055,-0.005
3257,-0.075,-0.035
3258,-0.065,-0.045
3259,-0.085,-0.065
3260,-0.085,-0.075
3261,-0.095,-0.095
3262,-0.095,-0.085
3263,-0.085,-0.075
3264,-0.095,-0.085
3265,-0.095,-0.075
3266,-0.075,-0.075
3267,-0.075,-0.065
3268,-0.065,-0.065
3269,-0.075,-0.075
3270,-0.065,-0.075
3271,-0.065,-0.065
3272,-0.065,-0.075
3273,-0.065,-0.075
3274,-0.075,-0.085
3275,-0.065,-0.085
3276,-0.075,-0.085
3277,-0.085,-0.095
3278,-0.095,-0.085
3279,-0.055,-0.055
3280,-0.015,-0.025
3281,-0.015,-0.025
3282,0.015,-0.035
3283,0.035,-0.025
3284,0.055,-0.045
3285,0.065,-0.045
3286,0.095,-0.055
3287,0.025,-0.105
3288,-0.025,-0.105
3289,-0.085,-0.125
3290,-0.115,-0.155
3291,-0.135,-0.155
3292,-0.135,-0.165
3293,-0.155,-0.165
3294,-0.145,-0.165
3295,-0.145,-0.155
3296,-0.165,-0.165
3297,-0.135,-0.165
3298,-0.175,-0.135
3299,-0.115,-0.105
3300,0.205,-0.135
3301,1.025,-0.465
3302,1.645,-0.945
3303,0.065,-1.135
3304,-0.855,-0.715
3305,-0.655,-0.265
3306,-0.315,-0.085
3307,-0.175,-0.055
3308,-0.175,-0.065
3309,-0.155,-0.065
3310,-0.165,-0.065
3311,-0.155,-0.055
3312,-0.135,-0.045
3313,-0.145,-0.045
3314,-0.145,-0.045
3315,-0.125,-0.015
3316,-0.125,-0.015
3317,-0.125,-0.005
3318,-0.125,-0.015
3319,-0.105,0.015
3320,-0.105,0.035
3321,-0.095,0.045
3322,-0.075,0.045
3323,-0.075,0.065
3324,-0.065,0.095
3325,-0.075,0.105
3326,-0.065,0.125
3327,-0.075,0.125
3328,-0.095,0.115
3329,-0.125,0.105
3330,-0.135,0.085
3331,-0.155,0.065
3332,-0.155,0.065
3333,-0.145,0.045
3334,-0.105,0.045
3335,-0.075,0.045
3336,-0.105,0.005
3337,-0.085,-0.015
3338,-0.105,-0.045
3339,-0.105,-0.055
3340,-0.115,-0.065
3341,-0.125,-0.085
3342,-0.115,-0.085
3343,-0.095,-0.075
3344,-0.105,-0.075
3345,-0.095,-0.085
3346,-0.095,-0.075
3347,-0.095,-0.065
3348,-0.095,-0.075
3349,-0.085,-0.085
3350,-0.085,-0.085
3351,-0.085,-0.075
3352,-0.095,-0.085
3353,-0.095,-0.095
3354,-0.105,-0.105
3355,-0.095,-0.095
3356,-0.105,-0.105
3357,-0.105,-0.115
3358,-0.115,-0.125
3359,-0.105,-0.115
3360,-0.105,-0.095
3361,-0.095,-0.075
3362,-0.055,-0.065
3363,-0.045,-0.045
3364,-0.015,-0.045
3365,0.005,-0.055
3366,0.025,-0.075
3367,0.035,-0.055
3368,0.075,-0.065
3369,-0.025,-0.135
3370,-0.055,-0.125
3371,-0.095,-0.145
3372,-0.145,-0.165
3373,-0.165,-0.175
3374,-0.185,-0.165
3375,-0.175,-0.165
3376,-0.175,-0.165
3377,-0.185,-0.175
3378,-0.175,-0.175
3379,-0.165,-0.165
3380,-0.205,-0.115
3381,-0.045,-0.085
3382,0.415,-0.175
3383,1.405,-0.605
3384,1.625,-1.165
3385,-0.225,-1.195
3386,-0.925,-0.605
3387,-0.545,-0.155
3388,-0.255,-0.045
3389,-0.205,-0.075
3390,-0.185,-0.075
3391,-0.185,-0.075
3392,-0.185,-0.065
3393,-0.185,-0.065
3394,-0.195,-0.065
3395,-0.175,-0.045
3396,-0.155,-0.045
3397,-0.165,-0.045
3398,-0.155,-0.035
3399,-0.125,-0.025
3400,-0.135,-0.005
3401,-0.125,0.005
3402,-0.115,0.015
3403,-0.105,0.045
3404,-0.105,0.065
3405,-0.075,0.065
3406,-0.065,0.095
3407,-0.065,0.125
3408,-0.085,0.135
3409,-0.065,0.135
3410,-0.105,0.135
3411,-0.105,0.135
3412,-0.115,0.105
3413,-0.145,0.085
3414,-0.135,0.075
3415,-0.105,0.085
3416,-0.085,0.045
3417,-0.095,0.005
3418,-0.085,-0.035
3419,-0.105,-0.055
3420,-0.105,-0.085
3421,-0.125,-0.115
3422,-0.115,-0.125
3423,-0.135,-0.125
3424,-0.135,-0.125
3425,-0.135,-0.125
3426,-0.125,-0.125
3427,-0.135,-0.115
3428,-0.125,-0.125
3429,-0.135,-0.125
3430,-0.115,-0.115
3431,-0.115,-0.115
3432,-0.125,-0.125
3433,-0.135,-0.135
3434,-0.115,-0.135
3435,-0.125,-0.125
3436,-0.125,-0.125
3437,-0.135,-0.135
3438,-0.145,-0.135
3439,-0.135,-0.135
3440,-0.125,-0.135
3441,-0.135,-0.145
3442,-0.145,-0.145
3443,-0.145,-0.125
3444,-0.095,-0.085
3445,-0.085,-0.085
3446,-0.065,-0.065
3447,-0.035,-0.075
3448,-0.005,-0.075
3449,0.005,-0.095
3450,0.015,-0.075
3451,0.035,-0.065
3452,0.015,-0.135
3453,-0.055,-0.145
3454,-0.105,-0.155
3455,-0.145,-0.175
3456,-0.165,-0.195
3457,-0.175,-0.185
3458,-0.175,-0.195
3459,-0.185,-0.165
3460,-0.185,-0.185
3461,-0.185,-0.195
3462,-0.165,-0.185
3463,-0.205,-0.125
3464,-0.055,-0.085
3465,0.415,-0.235
3466,1.365,-0.675
3467,1.565,-1.225
3468,-0.275,-1.185
3469,-0.895,-0.565
3470,-0.545,-0.165
3471,-0.255,-0.055
3472,-0.175,-0.065
3473,-0.185,-0.095
3474,-0.195,-0.095
3475,-0.185,-0.075
3476,-0.165,-0.065
3477,-0.165,-0.075
3478,-0.175,-0.065
3479,-0.155,-0.055
3480,-0.145,-0.045
3481,-0.145,-0.035
3482,-0.135,-0.035
3483,-0.145,-0.015
3484,-0.125,-0.005
3485,-0.115,0.015
3486,-0.105,0.025
3487,-0.095,0.045
3488,-0.095,0.065
3489,-0.075,0.075
3490,-0.065,0.095
3491,-0.085,0.115
3492,-0.085,0.115
3493,-0.095,0.105
3494,-0.125,0.095
3495,-0.125,0.095
3496,-0.145,0.065
3497,-0.155,0.045
3498,-0.145,0.025
3499,-0.095,0.035
3500,-0.085,0.015
3501,-0.065,-0.025
3502,-0.075,-0.075
3503,-0.075,-0.095
3504,-0.105,-0.115
3505,-0.105,-0.135
3506,-0.125,-0.125
3507,-0.115,-0.125
3508,-0.105,-0.125
3509,-0.105,-0.125
3510,-0.115,-0.125
3511,-0.105,-0.125
3512,-0.105,-0.125
3513,-0.095,-0.125
3514,-0.085,-0.125
3515,-0.105,-0.125
3516,-0.095,-0.135
3517,-0.095,-0.135
3518,-0.085,-0.135
3519,-0.105,-0.135
3520,-0.085,-0.145
3521,-0.105,-0.155
3522,-0.105,-0.165
3523,-0.115,-0.145
3524,-0.115,-0.155
3525,-0.115,-0.155
3526,-0.105,-0.155
3527,-0.115,-0.115
3528,-0.075,-0.095
3529,-0.055,-0.095
3530,-0.045,-0.075
3531,-0.025,-0.085
3532,0.025,-0.085
3533,0.045,-0.095
3534,0.045,-0.075
3535,0.075,-0.115
3536,-0.015,-0.155
3537,-0.085,-0.165
3538,-0.115,-0.185
3539,-0.155,-0.195
3540,-0.165,-0.195
3541,-0.175,-0.205
3542,-0.185,-0.205
3543,-0.185,-0.195
3544,-0.165,-0.205
3545,-0.155,-0.205
3546,-0.155,-0.185
3547,-0.215,-0.145
3548,-0.005,-0.085
3549,0.565,-0.235
3550,1.615,-0.725
3551,1.055,-1.265
3552,-0.625,-1.045
3553,-0.975,-0.525
3554,-0.555,-0.215
3555,-0.245,-0.105
3556,-0.205,-0.105
3557,-0.165,-0.105
3558,-0.185,-0.105
3559,-0.165,-0.085
3560,-0.155,-0.085
3561,-0.155,-0.085
3562,-0.145,-0.085
3563,-0.145,-0.075
3564,-0.145,-0.055
3565,-0.125,-0.055
3566,-0.115,-0.045
3567,-0.115,-0.025
3568,-0.115,-0.005
3569,-0.115,0.005
3570,-0.095,0.005
3571,-0.075,0.025
3572,-0.075,0.045
3573,-0.075,0.075
3574,-0.065,0.065
3575,-0.085,0.085
3576,-0.085,0.085
3577,-0.105,0.085
3578,-0.135,0.065
3579,-0.165,0.045
3580,-0.175,0.025
3581,-0.165,0.015
3582,-0.145,0.005
3583,-0.105,0.005
3584,-0.075,0.005
3585,-0.045,-0.015
3586,-0.045,-0.045
3587,-0.055,-0.065
3588,-0.085,-0.085
3589,-0.085,-0.105
3590,-0.095,-0.105
3591,-0.095,-0.105
3592,-0.085,-0.085
3593,-0.075,-0.095
3594,-0.075,-0.095
3595,-0.055,-0.095
3596,-0.055,-0.085
3597,-0.055,-0.105
3598,-0.055,-0.095
3599,-0.045,-0.085
3600,-0.055,-0.085
3601,-0.065,-0.105
3602,-0.055,-0.105
3603,-0.065,-0.095
3604,-0.075,-0.095
3605,-0.075,-0.115
3606,-0.085,-0.115
3607,-0.085,-0.115
3608,-0.085,-0.085
3609,-0.035,-0.065
3610,-0.035,-0.045
3611,-0.015,-0.035
3612,0.015,-0.045
3613,0.045,-0.045
3614,0.065,-0.055
3615,0.075,-0.035
3616,0.125,-0.055
3617,0.015,-0.115
3618,-0.015,-0.095
3619,-0.085,-0.115
3620,-0.135,-0.155
3621,-0.135,-0.145
3622,-0.125,-0.155
3623,-0.135,-0.135
3624,-0.145,-0.155
3625,-0.145,-0.165
3626,-0.135,-0.155
3627,-0.115,-0.125
3628,-0.165,-0.095
3629,0.005,-0.065
3630,0.575,-0.295
3631,1.595,-0.715
3632,1.205,-1.215
3633,-0.575,-1.025
3634,-0.905,-0.435
3635,-0.465,-0.105
3636,-0.175,-0.015
3637,-0.125,-0.035
3638,-0.125,-0.045
3639,-0.095,-0.045
3640,-0.115,-0.025
3641,-0.115,-0.025
3642,-0.095,-0.005
3643,-0.095,-0.015
3644,-0.075,-0.015
3645,-0.085,-0.005
3646,-0.075,0.015
3647,-0.055,0.025
3648,-0.045,0.035
3649,-0.055,0.045
3650,-0.035,0.065
3651,-0.035,0.085
3652,-0.015,0.105
3653,-0.025,0.105
3654,-0.025,0.135
3655,0.005,0.165
3656,-0.035,0.155
3657,-0.035,0.145
3658,-0.045,0.145
3659,-0.085,0.125
3660,-0.105,0.125
3661,-0.125,0.085
3662,-0.145,0.085
3663,-0.075,0.085
3664,-0.045,0.075
3665,-0.015,0.045
3666,0.005,0.015
3667,-0.015,-0.015
3668,-0.025,-0.035
3669,-0.025,-0.065
3670,-0.055,-0.075
3671,-0.055,-0.065
3672,-0.045,-0.065
3673,-0.035,-0.065
3674,-0.035,-0.055
3675,-0.045,-0.045
3676,-0.035,-0.055
3677,-0.035,-0.065
3678,-0.005,-0.055
3679,-0.015,-0.045
3680,-0.015,-0.055
3681,-0.055,-0.075
3682,-0.045,-0.065
3683,-0.005,-0.045
3684,-0.035,-0.075
3685,-0.055,-0.075
3686,-0.055,-0.085
3687,-0.035,-0.085
3688,-0.045,-0.085
3689,-0.055,-0.085
3690,-0.075,-0.065
3691,-0.015,-0.015
3692,0.035,-0.015
3693,0.055,-0.005
3694,0.065,-0.025
3695,0.085,-0.045
3696,0.115,-0.035
3697,0.095,-0.025
3698,0.125,-0.055
3699,0.015,-0.105
3700,-0.025,-0.105
3701,-0.075,-0.145
3702,-0.105,-0.145
3703,-0.095,-0.135
3704,-0.115,-0.145
3705,-0.115,-0.155
3706,-0.115,-0.145
3707,-0.125,-0.145
3708,-0.095,-0.145
3709,-0.135,-0.125
3710,-0.115,-0.095
3711,0.175,-0.085
3712,0.915,-0.555
3713,1.835,-0.945
3714,0.865,-1.335
3715,-0.735,-0.885
3716,-0.745,-0.295
3717,-0.345,-0.035
3718,-0.155,-0.025
3719,-0.095,-0.025
3720,-0.125,-0.035
3721,-0.125,-0.045
3722,-0.105,-0.035
3723,-0.115,-0.025
3724,-0.115,-0.015
3725,-0.085,-0.025
3726,-0.105,-0.015
3727,-0.075,0.005
3728,-0.075,0.005
3729,-0.065,0.015
3730,-0.065,0.025
3731,-0.055,0.045
3732,-0.045,0.065
3733,-0.025,0.085
3734,-0.035,0.085
3735,-0.025,0.115
3736,-0.005,0.145
3737,-0.015,0.155
3738,-0.015,0.155
3739,-0.035,0.165
3740,-0.055,0.165
3741,-0.085,0.145
3742,-0.095,0.135
3743,-0.095,0.105
3744,-0.095,0.085
3745,-0.105,0.085
3746,-0.085,0.075
3747,-0.045,0.045
3748,-0.025,0.005
3749,-0.015,-0.025
3750,-0.035,-0.065
3751,-0.045,-0.085
3752,-0.055,-0.085
3753,-0.045,-0.085
3754,-0.055,-0.095
3755,-0.085,-0.085
3756,-0.055,-0.085
3757,-0.045,-0.085
3758,-0.045,-0.095
3759,-0.055,-0.085
3760,-0.035,-0.085
3761,-0.035,-0.085
3762,-0.045,-0.095
3763,-0.055,-0.095
3764,-0.055,-0.095
3765,-0.055,-0.085
3766,-0.065,-0.115
3767,-0.065,-0.105
3768,-0.055,-0.105
3769,-0.055,-0.105
3770,-0.065,-0.115
3771,-0.065,-0.105
3772,-0.085,-0.075
3773,-0.025,-0.045
3774,0.005,-0.045
3775,0.045,-0.025
3776,0.065,-0.045
3777,0.045,-0.075
3778,0.065,-0.055
3779,0.095,-0.055
3780,0.055,-0.105
3781,-0.015,-0.125
3782,-0.055,-0.145
3783,-0.105,-0.165
3784,-0.135,-0.175
3785,-0.145,-0.165
3786,-0.135,-0.165
3787,-0.145,-0.165
3788,-0.165,-0.165
3789,-0.125,-0.185
3790,-0.135,-0.145
3791,-0.175,-0.125
3792,0.075,-0.115
3793,0.915,-0.585
3794,1.845,-1.115
3795,0.405,-1.295
3796,-0.935,-0.785
3797,-0.715,-0.235
3798,-0.315,-0.045
3799,-0.175,-0.045
3800,-0.135,-0.055
3801,-0.145,-0.065
3802,-0.145,-0.055
3803,-0.145,-0.055
3804,-0.125,-0.045
3805,-0.125,-0.035
3806,-0.125,-0.025
3807,-0.115,-0.015
3808,-0.095,-0.025
3809,-0.095,-0.005
3810,-0.085,0.005
3811,-0.085,0.025
3812,-0.075,0.025
3813,-0.065,0.045
3814,-0.045,0.065
3815,-0.025,0.085
3816,-0.035,0.105
3817,-0.035,0.115
3818,-0.025,0.125
3819,-0.035,0.145
3820,-0.065,0.125
3821,-0.095,0.105
3822,-0.105,0.105
3823,-0.085,0.085
3824,-0.125,0.085
3825,-0.125,0.065
3826,-0.095,0.065
3827,-0.045,0.055
3828,-0.025,0.035
3829,-0.035,-0.015
3830,-0.025,-0.035
3831,-0.035,-0.055
3832,-0.055,-0.075
3833,-0.055,-0.075
3834,-0.065,-0.095
3835,-0.065,-0.085
3836,-0.045,-0.085
3837,-0.065,-0.075
3838,-0.065,-0.075
3839,-0.045,-0.075
3840,-0.055,-0.085
3841,-0.055,-0.085
3842,-0.045,-0.085
3843,-0.045,-0.075
3844,-0.055,-0.085
3845,-0.035,-0.095
3846,-0.045,-0.085
3847,-0.045,-0.085
3848,-0.065,-0.095
3849,-0.055,-0.095
3850,-0.075,-0.095
3851,-0.055,-0.095
3852,-0.065,-0.075
3853,-0.035,-0.055
3854,-0.005,-0.035
3855,0.035,-0.005
3856,0.055,-0.015
3857,0.055,-0.055
3858,0.055,-0.045
3859,0.095,-0.045
3860,0.125,-0.045
3861,0.025,-0.115
3862,-0.025,-0.125
3863,-0.065,-0.145
3864,-0.105,-0.155
3865,-0.115,-0.155
3866,-0.115,-0.165
3867,-0.125,-0.155
3868,-0.125,-0.165
3869,-0.135,-0.155
3870,-0.095,-0.165
3871,-0.145,-0.125
3872,-0.125,-0.105
3873,0.225,-0.165
3874,1.205,-0.645
3875,1.595,-1.225
3876,-0.285,-1.185
3877,-0.945,-0.575
3878,-0.515,-0.145
3879,-0.185,-0.005
3880,-0.105,-0.025
3881,-0.125,-0.055
3882,-0.115,-0.055
3883,-0.105,-0.045
3884,-0.105,-0.035
3885,-0.095,-0.035
3886,-0.095,-0.015
3887,-0.095,-0.015
3888,-0.095,-0.015
3889,-0.045,-0.005
3890,-0.055,0.015
3891,-0.065,0.025
3892,-0.055,0.025
3893,-0.035,0.045
3894,-0.015,0.065
3895,-0.035,0.085
3896,-0.025,0.095
3897,-0.005,0.105
3898,-0.015,0.125
3899,-0.035,0.145
3900,-0.045,0.135
3901,-0.075,0.125
3902,-0.075,0.105
3903,-0.085,0.105
3904,-0.125,0.085
3905,-0.115,0.065
3906,-0.075,0.065
3907,-0.015,0.075
3908,-0.015,0.055
3909,-0.005,0.025
3910,0.015,-0.005
3911,-0.005,-0.025
3912,-0.015,-0.045
3913,-0.035,-0.075
3914,-0.035,-0.075
3915,-0.025,-0.075
3916,-0.045,-0.065
3917,-0.035,-0.065
3918,-0.025,-0.075
3919,-0.015,-0.075
3920,-0.015,-0.065
3921,-0.015,-0.055
3922,-0.025,-0.085
3923,-0.035,-0.065
3924,-0.015,-0.065
3925,-0.005,-0.055
3926,-0.025,-0.085
3927,-0.035,-0.085
3928,-0.045,-0.085
3929,-0.045,-0.075
3930,-0.045,-0.085
3931,-0.055,-0.065
3932,-0.015,-0.025
3933,0.025,-0.005
3934,0.045,0.005
3935,0.085,0.005
3936,0.095,-0.015
3937,0.115,-0.015
3938,0.135,-0.015
3939,0.105,-0.075
3940,0.025,-0.085
3941,-0.025,-0.105
3942,-0.085,-0.125
3943,-0.095,-0.135
3944,-0.105,-0.135
3945,-0.125,-0.135
3946,-0.135,-0.155
3947,-0.125,-0.145
3948,-0.105,-0.145
3949,-0.105,-0.145
3950,-0.165,-0.105
3951,-0.065,-0.085
3952,0.355,-0.235
3953,1.425,-0.715
3954,1.245,-1.255
3955,-0.545,-1.045
3956,-0.855,-0.405
3957,-0.375,-0.065
3958,-0.155,-0.005
3959,-0.105,-0.005
3960,-0.115,-0.015
3961,-0.105,-0.025
3962,-0.105,-0.025
3963,-0.105,-0.005
3964,-0.085,0.005
3965,-0.085,0.005
3966,-0.085,0.005
3967,-0.085,0.025
3968,-0.075,0.025
3969,-0.045,0.045
3970,-0.035,0.055
3971,-0.045,0.085
3972,-0.035,0.085
3973,-0.015,0.095
3974,-0.005,0.115
3975,-0.005,0.145
3976,-0.015,0.155
3977,-0.035,0.155
3978,-0.025,0.155
3979,-0.055,0.155
3980,-0.085,0.125
3981,-0.075,0.115
3982,-0.095,0.095
3983,-0.095,0.095
3984,-0.045,0.085
3985,-0.015,0.085
3986,0.015,0.075
3987,0.005,0.045
3988,0.025,0.015
3989,-0.005,-0.015
3990,-0.025,-0.045
3991,-0.025,-0.045
3992,-0.025,-0.045
3993,-0.025,-0.055
3994,-0.025,-0.045
3995,-0.035,-0.035
3996,-0.015,-0.045
3997,-0.015,-0.045
3998,-0.015,-0.035
3999,-0.015,-0.035
4000,-0.015,-0.045
4001,-0.005,-0.045
4002,-0.015,-0.045
4003,-0.025,-0.035
4004,-0.025,-0.055
4005,-0.015,-0.055
4006,-0.025,-0.065
4007,-0.015,-0.055
4008,-0.055,-0.065
4009,-0.035,-0.045
4010,0.005,-0.005
4011,0.025,0.005
4012,0.045,0.025
4013,0.085,-0.005
4014,0.085,-0.025
4015,0.115,0.005
4016,0.115,0.005
4017,0.145,-0.045
4018,0.035,-0.095
4019,0.025,-0.075
4020,-0.045,-0.105
4021,-0.095,-0.125
4022,-0.095,-0.135
4023,-0.085,-0.125
4024,-0.095,-0.125
4025,-0.105,-0.135
4026,-0.105,-0.135
4027,-0.095,-0.135
4028,-0.125,-0.095
4029,-0.125,-0.085
4030,0.155,-0.085
4031,1.065,-0.525
4032,1.865,-1.055
4033,0.165,-1.275
4034,-0.885,-0.705
4035,-0.625,-0.165
4036,-0.245,-0.005
4037,-0.115,-0.005
4038,-0.065,-0.015
4039,-0.095,-0.005
4040,-0.105,-0.005
4041,-0.105,-0.005
4042,-0.075,-0.005
4043,-0.065,0.005
4044,-0.065,0.025
4045,-0.085,0.005
4046,-0.065,0.035
4047,-0.035,0.055
4048,-0.045,0.065
4049,-0.045,0.065
4050,-0.035,0.085
4051,-0.005,0.085
4052,-0.005,0.115
4053,0.015,0.125
4054,0.005,0.155
4055,0.005,0.145
4056,-0.015,0.165
4057,-0.025,0.165
4058,-0.045,0.155
4059,-0.065,0.155
4060,-0.075,0.125
4061,-0.095,0.095
4062,-0.075,0.105
4063,-0.025,0.125
4064,0.005,0.105
4065,0.035,0.075
4066,0.015,0.045
4067,0.015,0.005
4068,0.005,-0.005
4069,-0.015,-0.025
4070,-0.025,-0.045
4071,-0.025,-0.025
4072,-0.025,-0.035
4073,-0.025,-0.045
4074,-0.005,-0.045
4075,-0.015,-0.035
4076,-0.005,-0.035
4077,-0.005,-0.035
4078,-0.015,-0.035
4079,-0.015,-0.035
4080,-0.005,-0.045
4081,-0.005,-0.045
4082,-0.005,-0.055
4083,-0.015,-0.055
4084,-0.025,-0.065
4085,-0.035,-0.065
4086,-0.025,-0.055
4087,-0.015,-0.035
4088,0.025,0.005
4089,0.015,-0.005
4090,0.065,0.015
4091,0.105,0.025
4092,0.105,0.005
4093,0.115,-0.005
4094,0.155,-0.005
4095,0.105,-0.065
4096,0.005,-0.075
4097,-0.035,-0.095
4098,-0.065,-0.135
4099,-0.105,-0.135
4100,-0.095,-0.125
4101,-0.105,-0.145
4102,-0.115,-0.145
4103,-0.115,-0.135
4104,-0.115,-0.135
4105,-0.115,-0.145
4106,-0.135,-0.135
4107,-0.155,-0.085
4108,0.185,0.005
4109,0.965,-0.325
4110,1.905,-0.885
4111,0.235,-1.265
4112,-0.905,-0.835
4113,-0.775,-0.315
4114,-0.355,-0.085
4115,-0.165,-0.035
4116,-0.125,-0.035
4117,-0.125,-0.035
4118,-0.115,-0.035
4119,-0.135,-0.045
4120,-0.125,-0.035
4121,-0.125,-0.025
4122,-0.115,-0.025
4123,-0.105,-0.015
4124,-0.095,0.005
4125,-0.095,0.005
4126,-0.065,0.015
4127,-0.065,0.025
4128,-0.065,0.045
4129,-0.045,0.045
4130,-0.035,0.065
4131,-0.025,0.085
4132,-0.015,0.105
4133,-0.015,0.105
4134,-0.065,0.115
4135,-0.055,0.115
4136,-0.085,0.115
4137,-0.095,0.085
4138,-0.105,0.065
4139,-0.125,0.065
4140,-0.115,0.045
4141,-0.065,0.045
4142,-0.025,0.055
4143,0.005,0.045
4144,-0.015,0.025
4145,-0.015,-0.025
4146,-0.025,-0.045
4147,-0.045,-0.055
4148,-0.065,-0.065
4149,-0.055,-0.075
4150,-0.065,-0.065
4151,-0.055,-0.055
4152,-0.065,-0.055
4153,-0.045,-0.065
4154,-0.015,-0.055
4155,-0.025,-0.065
4156,-0.055,-0.055
4157,-0.035,-0.065
4158,-0.025,-0.065
4159,-0.055,-0.065
4160,-0.055,-0.075
4161,-0.045,-0.075
4162,-0.035,-0.065
4163,-0.075,-0.065
4164,-0.045,-0.045
4165,0.005,-0.015
4166,0.015,0.005
4167,0.055,0.025
4168,0.075,0.005
4169,0.085,-0.015
4170,0.105,-0.005
4171,0.115,-0.015
4172,0.025,-0.065
4173,-0.055,-0.085
4174,-0.105,-0.125
4175,-0.135,-0.115
4176,-0.135,-0.125
4177,-0.135,-0.135
4178,-0.155,-0.135
4179,-0.155,-0.125
4180,-0.165,-0.115
4181,-0.155,-0.135
4182,-0.155,-0.135
4183,-0.225,-0.105
4184,-0.115,-0.085
4185,0.385,-0.285
4186,1.575,-0.705
4187,0.875,-1.175
4188,-0.825,-0.965
4189,-0.965,-0.435
4190,-0.465,-0.105
4191,-0.195,-0.005
4192,-0.135,-0.015
4193,-0.145,-0.015
4194,-0.155,-0.025
4195,-0.175,-0.015
4196,-0.135,-0.015
4197,-0.115,-0.015
4198,-0.105,-0.005
4199,-0.115,0.005
4200,-0.125,0.015
4201,-0.125,0.005
4202,-0.105,0.025
4203,-0.085,0.045
4204,-0.085,0.055
4205,-0.085,0.045
4206,-0.075,0.075
4207,-0.055,0.105
4208,-0.065,0.115
4209,-0.055,0.125
4210,-0.075,0.125
4211,-0.095,0.135
4212,-0.105,0.135
4213,-0.135,0.105
4214,-0.145,0.085
4215,-0.165,0.065
4216,-0.205,0.065
4217,-0.155,0.045
4218,-0.135,0.045
4219,-0.105,0.065
4220,-0.055,0.045
4221,-0.035,0.015
4222,-0.045,-0.005
4223,-0.055,-0.015
4224,-0.075,-0.035
4225,-0.095,-0.055
4226,-0.075,-0.055
4227,-0.065,-0.045
4228,-0.065,-0.045
4229,-0.075,-0.045
4230,-0.075,-0.055
4231,-0.055,-0.035
4232,-0.055,-0.045
4233,-0.075,-0.055
4234,-0.075,-0.055
4235,-0.065,-0.055
4236,-0.065,-0.055
4237,-0.065,-0.065
4238,-0.105,-0.065
4239,-0.085,-0.055
4240,-0.075,-0.055
4241,-0.045,-0.035
4242,-0.015,-0.005
4243,0.015,0.015
4244,0.045,-0.005
4245,0.035,-0.025
4246,0.065,-0.025
4247,0.105,-0.015
4248,0.055,-0.065
4249,-0.025,-0.115
4250,-0.065,-0.105
4251,-0.135,-0.135
4252,-0.135,-0.145
4253,-0.155,-0.165
4254,-0.175,-0.155
4255,-0.165,-0.155
4256,-0.175,-0.155
4257,-0.175,-0.165
4258,-0.175,-0.175
4259,-0.205,-0.135
4260,-0.195,-0.135
4261,-0.045,-0.105
4262,0.605,-0.405
4263,1.735,-0.795
4264,0.815,-1.275
4265,-0.835,-0.995
4266,-0.895,-0.435
4267,-0.435,-0.095
4268,-0.215,-0.035
4269,-0.175,-0.065
4270,-0.195,-0.065
4271,-0.155,-0.065
4272,-0.165,-0.055
4273,-0.185,-0.055
4274,-0.175,-0.065
4275,-0.145,-0.035
4276,-0.175,-0.025
4277,-0.135,-0.015
4278,-0.125,-0.025
4279,-0.135,-0.015
4280,-0.115,-0.005
4281,-0.115,0.025
4282,-0.115,0.015
4283,-0.105,0.045
4284,-0.075,0.065
4285,-0.075,0.085
4286,-0.055,0.085
4287,-0.075,0.095
4288,-0.095,0.115
4289,-0.095,0.125
4290,-0.115,0.095
4291,-0.135,0.085
4292,-0.175,0.065
4293,-0.175,0.055
4294,-0.165,0.045
4295,-0.125,0.035
4296,-0.075,0.035
4297,-0.075,0.005
4298,-0.055,-0.015
4299,-0.045,-0.035
4300,-0.085,-0.055
4301,-0.085,-0.085
4302,-0.105,-0.105
4303,-0.105,-0.105
4304,-0.095,-0.095
4305,-0.095,-0.105
4306,-0.085,-0.095
4307,-0.085,-0.095
4308,-0.085,-0.085
4309,-0.065,-0.085
4310,-0.065,-0.085
4311,-0.075,-0.085
4312,-0.075,-0.085
4313,-0.085,-0.095
4314,-0.095,-0.095
4315,-0.105,-0.095
4316,-0.105,-0.095
4317,-0.085,-0.095
4318,-0.065,-0.065
4319,-0.045,-0.035
4320,-0.005,-0.025
4321,0.005,-0.045
4322,0.015,-0.075
4323,0.025,-0.065
4324,0.045,-0.065
4325,0.055,-0.095
4326,-0.025,-0.135
4327,-0.055,-0.125
4328,-0.135,-0.155
4329,-0.165,-0.175
4330,-0.155,-0.175
4331,-0.175,-0.165
4332,-0.185,-0.185
4333,-0.185,-0.185
4334,-0.165,-0.185
4335,-0.145,-0.175
4336,-0.225,-0.145
4337,-0.165,-0.125
4338,0.255,-0.175
4339,1.175,-0.545
4340,1.625,-1.025
4341,-0.105,-1.165
4342,-0.945,-0.695
4343,-0.655,-0.255
4344,-0.285,-0.075
4345,-0.185,-0.075
4346,-0.165,-0.075
4347,-0.175,-0.085
4348,-0.165,-0.075
4349,-0.165,-0.075
4350,-0.155,-0.075
4351,-0.165,-0.065
4352,-0.155,-0.065
4353,-0.145,-0.055
4354,-0.135,-0.045
4355,-0.155,-0.025
4356,-0.115,-0.035
4357,-0.105,-0.015
4358,-0.105,-0.005
4359,-0.095,0.025
4360,-0.095,0.025
4361,-0.085,0.025
4362,-0.085,0.045
4363,-0.075,0.065
4364,-0.065,0.075
4365,-0.095,0.055
4366,-0.135,0.045
4367,-0.155,0.045
4368,-0.185,0.025
4369,-0.195,-0.005
4370,-0.195,-0.015
4371,-0.185,-0.005
4372,-0.125,-0.005
4373,-0.095,-0.025
4374,-0.075,-0.045
4375,-0.075,-0.065
4376,-0.085,-0.075
4377,-0.095,-0.105
4378,-0.125,-0.125
4379,-0.125,-0.135
4380,-0.115,-0.135
4381,-0.125,-0.125
4382,-0.125,-0.115
4383,-0.095,-0.095
4384,-0.105,-0.105
4385,-0.085,-0.105
4386,-0.085,-0.115
4387,-0.085,-0.105
4388,-0.085,-0.115
4389,-0.085,-0.115
4390,-0.075,-0.125
4391,-0.085,-0.115
4392,-0.105,-0.125
4393,-0.115,-0.125
4394,-0.085,-0.105
4395,-0.045,-0.055
4396,-0.045,-0.055
4397,-0.015,-0.065
4398,0.015,-0.065
4399,0.045,-0.055
4400,0.065,-0.065
4401,0.085,-0.085
4402,0.015,-0.145
4403,-0.055,-0.135
4404,-0.105,-0.145
4405,-0.135,-0.185
4406,-0.175,-0.185
4407,-0.175,-0.195
4408,-0.185,-0.195
4409,-0.185,-0.195
4410,-0.175,-0.195
4411,-0.185,-0.185
4412,-0.175,-0.195
4413,-0.225,-0.155
4414,-0.125,-0.105
4415,0.395,-0.145
4416,1.615,-0.625
4417,0.965,-1.225
4418,-0.805,-0.995
4419,-0.965,-0.455
4420,-0.505,-0.195
4421,-0.245,-0.115
4422,-0.185,-0.115
4423,-0.185,-0.105
4424,-0.165,-0.105
4425,-0.155,-0.095
4426,-0.175,-0.095
4427,-0.155,-0.075
4428,-0.155,-0.075
4429,-0.145,-0.075
4430,-0.145,-0.065
4431,-0.145,-0.055
4432,-0.135,-0.055
4433,-0.115,-0.055
4434,-0.105,-0.035
4435,-0.115,-0.015
4436,-0.095,-0.005
4437,-0.095,-0.005
4438,-0.105,0.025
4439,-0.085,0.045
4440,-0.095,0.055
4441,-0.125,0.045
4442,-0.135,0.045
4443,-0.175,0.025
4444,-0.195,0.005
4445,-0.225,-0.015
4446,-0.225,-0.025
4447,-0.185,-0.025
4448,-0.165,-0.035
4449,-0.135,-0.035
4450,-0.085,-0.035
4451,-0.075,-0.045
4452,-0.085,-0.065
4453,-0.105,-0.095
4454,-0.095,-0.105
4455,-0.105,-0.095
4456,-0.105,-0.105
4457,-0.105,-0.115
4458,-0.095,-0.115
4459,-0.095,-0.095
4460,-0.095,-0.085
4461,-0.085,-0.095
4462,-0.085,-0.095
4463,-0.065,-0.095
4464,-0.055,-0.075
4465,-0.085,-0.085
4466,-0.065,-0.085
4467,-0.075,-0.095
4468,-0.065,-0.075
4469,-0.075,-0.085
4470,-0.065,-0.055
4471,-0.015,-0.035
4472,-0.025,-0.015
4473,0.015,-0.015
4474,0.035,-0.035
4475,0.055,-0.035
4476,0.075,-0.045
4477,0.085,-0.065
4478,-0.005,-0.125
4479,-0.065,-0.105
4480,-0.095,-0.145
4481,-0.145,-0.165
4482,-0.135,-0.175
4483,-0.165,-0.165
4484,-0.165,-0.155
4485,-0.185,-0.175
4486,-0.175,-0.175
4487,-0.155,-0.165
4488,-0.195,-0.145
4489,-0.205,-0.135
4490,0.045,-0.095
4491,0.885,-0.405
4492,1.865,-0.875
4493,0.145,-1.195
4494,-1.015,-0.755
4495,-0.675,-0.235
4496,-0.305,-0.055
4497,-0.195,-0.065
4498,-0.165,-0.065
4499,-0.175,-0.065
4500,-0.175,-0.055
4501,-0.175,-0.065
4502,-0.175,-0.065
4503,-0.145,-0.045
4504,-0.155,-0.035
4505,-0.135,-0.045
4506,-0.125,-0.025
4507,-0.135,-0.015
4508,-0.125,-0.005
4509,-0.095,0.015
4510,-0.095,0.035
4511,-0.085,0.045
4512,-0.085,0.045
4513,-0.075,0.075
4514,-0.075,0.095
4515,-0.085,0.105
4516,-0.105,0.105
4517,-0.125,0.095
4518,-0.145,0.065
4519,-0.175,0.055
4520,-0.215,0.025
4521,-0.215,0.015
4522,-0.195,0.005
4523,-0.165,0.015
4524,-0.115,0.005
4525,-0.105,-0.015
4526,-0.085,-0.035
4527,-0.075,-0.045
4528,-0.095,-0.075
4529,-0.115,-0.085
4530,-0.115,-0.095
4531,-0.105,-0.095
4532,-0.105,-0.095
4533,-0.085,-0.095
4534,-0.085,-0.075
4535,-0.085,-0.065
4536,-0.085,-0.065
4537,-0.075,-0.065
4538,-0.095,-0.065
4539,-0.085,-0.065
4540,-0.075,-0.075
4541,-0.075,-0.075
4542,-0.075,-0.075
4543,-0.085,-0.075
4544,-0.085,-0.065
4545,-0.055,-0.055
4546,-0.015,-0.025
4547,-0.005,-0.005
4548,0.015,-0.015
4549,0.025,-0.025
4550,0.055,-0.045
4551,0.085,-0.035
4552,0.085,-0.055
4553,0.045,-0.105
4554,-0.025,-0.125
4555,-0.075,-0.105
4556,-0.115,-0.145
4557,-0.155,-0.155
4558,-0.155,-0.155
4559,-0.165,-0.145
4560,-0.175,-0.145
4561,-0.175,-0.165
4562,-0.175,-0.165
4563,-0.145,-0.165
4564,-0.215,-0.115
4565,-0.125,-0.095
4566,0.285,-0.135
4567,1.345,-0.545
4568,1.865,-1.035
4569,-0.125,-1.185
4570,-0.975,-0.615
4571,-0.585,-0.165
4572,-0.245,-0.035
4573,-0.175,-0.045
4574,-0.175,-0.065
4575,-0.175,-0.055
4576,-0.175,-0.055
4577,-0.175,-0.045
4578,-0.155,-0.045
4579,-0.165,-0.035
4580,-0.145,-0.035
4581,-0.165,-0.025
4582,-0.135,-0.025
4583,-0.115,-0.005
4584,-0.125,0.005
4585,-0.115,0.015
4586,-0.095,0.025
4587,-0.095,0.065
4588,-0.075,0.085
4589,-0.085,0.105
4590,-0.085,0.125
4591,-0.085,0.145
4592,-0.085,0.155
4593,-0.105,0.145
4594,-0.125,0.145
4595,-0.135,0.135
4596,-0.145,0.105
4597,-0.155,0.085
4598,-0.145,0.065
4599,-0.115,0.065
4600,-0.085,0.045
4601,-0.095,0.005
4602,-0.085,-0.025
4603,-0.085,-0.045
4604,-0.105,-0.065
4605,-0.115,-0.075
4606,-0.115,-0.075
4607,-0.105,-0.055
4608,-0.105,-0.065
4609,-0.105,-0.075
4610,-0.105,-0.065
4611,-0.115,-0.065
4612,-0.095,-0.055
4613,-0.105,-0.065
4614,-0.095,-0.075
4615,-0.105,-0.065
4616,-0.085,-0.065
4617,-0.105,-0.075
4618,-0.105,-0.075
4619,-0.105,-0.065
4620,-0.085,-0.075
4621,-0.105,-0.075
4622,-0.105,-0.065
4623,-0.065,-0.035
4624,-0.035,-0.005
4625,-0.025,-0.005
4626,0.015,0.005
4627,0.015,-0.015
4628,0.035,-0.035
4629,0.065,-0.025
4630,0.065,-0.025
4631,0.075,-0.055
4632,-0.015,-0.095
4633,-0.055,-0.095
4634,-0.115,-0.125
4635,-0.145,-0.135
4636,-0.155,-0.135
4637,-0.175,-0.145
4638,-0.155,-0.135
4639,-0.155,-0.135
4640,-0.145,-0.145
4641,-0.155,-0.145
4642,-0.205,-0.125
4643,-0.085,-0.075
4644,0.375,-0.145
4645,1.365,-0.545
4646,1.895,-1.045
4647,-0.275,-1.115
4648,-0.945,-0.545
4649,-0.505,-0.105
4650,-0.235,-0.025
4651,-0.185,-0.035
4652,-0.165,-0.045
4653,-0.175,-0.045
4654,-0.165,-0.045
4655,-0.145,-0.035
4656,-0.155,-0.025
4657,-0.145,-0.025
4658,-0.155,-0.025
4659,-0.135,-0.015
4660,-0.135,-0.005
4661,-0.135,0.005
4662,-0.115,0.025
4663,-0.095,0.045
4664,-0.105,0.045
4665,-0.105,0.055
4666,-0.085,0.085
4667,-0.055,0.105
4668,-0.055,0.125
4669,-0.075,0.135
4670,-0.085,0.145
4671,-0.085,0.145
4672,-0.095,0.145
4673,-0.115,0.125
4674,-0.135,0.105
4675,-0.145,0.105
4676,-0.135,0.085
4677,-0.105,0.065
4678,-0.085,0.045
4679,-0.065,0.015
4680,-0.065,-0.025
4681,-0.075,-0.055
4682,-0.085,-0.085
4683,-0.085,-0.075
4684,-0.085,-0.085
4685,-0.095,-0.085
4686,-0.105,-0.085
4687,-0.085,-0.075
4688,-0.085,-0.085
4689,-0.095,-0.075
4690,-0.075,-0.095
4691,-0.075,-0.075
4692,-0.075,-0.085
4693,-0.075,-0.085
4694,-0.075,-0.085
4695,-0.095,-0.085
4696,-0.085,-0.085
4697,-0.075,-0.095
4698,-0.085,-0.095
4699,-0.085,-0.095
4700,-0.075,-0.110
4701,-0.075,-0.110
4702,-0.095,-0.110
4703,-0.075,-0.090
4704,-0.045,-0.060
4705,-0.015,-0.050
4706,0.015,-0.030
4707,0.035,-0.030
4708,0.045,-0.050
4709,0.055,-0.070
4710,0.065,-0.050
4711,0.105,-0.040
4712,0.025,-0.100
4713,-0.025,-0.120
4714,-0.065,-0.140
4715,-0.115,-0.160
4716,-0.135,-0.160
4717,-0.135,-0.160
4718,-0.145,-0.170
4719,-0.145,-0.170
4720,-0.145,-0.170
4721,-0.125,-0.170
4722,-0.145,-0.150
4723,-0.095,-0.120
4724,0.295,-0.030
4725,1.105,-0.400
4726,1.885,-0.870
4727,0.285,-1.270
4728,-0.825,-0.780
4729,-0.595,-0.250
4730,-0.255,-0.050
4731,-0.155,-0.050
4732,-0.145,-0.080
4733,-0.145,-0.080
4734,-0.155,-0.070
4735,-0.145,-0.070
4736,-0.135,-0.070
4737,-0.125,-0.060
4738,-0.145,-0.050
4739,-0.105,-0.040
4740,-0.105,-0.030
4741,-0.115,-0.030
4742,-0.095,-0.020
4743,-0.085,0.000
4744,-0.085,0.010
4745,-0.085,0.020
4746,-0.065,0.020
4747,-0.075,0.060
4748,-0.065,0.080
4749,-0.055,0.100
4750,-0.065,0.100
4751,-0.085,0.110
4752,-0.095,0.100
4753,-0.105,0.100
4754,-0.125,0.080
4755,-0.145,0.070
4756,-0.145,0.050
4757,-0.135,0.050
4758,-0.095,0.040
4759,-0.055,0.030
4760,-0.035,-0.010
4761,-0.045,-0.050
4762,-0.045,-0.070
4763,-0.065,-0.090
4764,-0.065,-0.100
4765,-0.075,-0.120
4766,-0.085,-0.120
4767,-0.065,-0.110
4768,-0.055,-0.100
4769,-0.065,-0.110
4770,-0.055,-0.110
4771,-0.055,-0.100
4772,-0.035,-0.100
4773,-0.035,-0.110
4774,-0.045,-0.100
4775,-0.035,-0.100
4776,-0.045,-0.110
4777,-0.035,-0.110
4778,-0.065,-0.120
4779,-0.065,-0.120
4780,-0.055,-0.125
4781,-0.055,-0.125
4782,-0.045,-0.125
4783,-0.075,-0.125
4784,-0.085,-0.135
4785,-0.075,-0.125
4786,-0.075,-0.105
4787,-0.025,-0.065
4788,-0.005,-0.065
4789,0.005,-0.065
4790,0.025,-0.055
4791,0.055,-0.045
4792,0.055,-0.065
4793,0.085,-0.065
4794,0.135,-0.045
4795,0.075,-0.095
4796,0.005,-0.115
4797,-0.055,-0.145
4798,-0.095,-0.165
4799,-0.095,-0.165
4800,-0.135,-0.175
4801,-0.145,-0.175
4802,-0.135,-0.185
4803,-0.125,-0.175
4804,-0.105,-0.175
4805,-0.115,-0.175
4806,-0.175,-0.145
4807,-0.035,-0.095
4808,0.405,-0.115
4809,1.365,-0.505
4810,1.645,-1.035
4811,-0.245,-1.205
4812,-0.945,-0.685
4813,-0.575,-0.245
4814,-0.235,-0.085
4815,-0.125,-0.075
4816,-0.125,-0.075
4817,-0.125,-0.075
4818,-0.125,-0.085
4819,-0.135,-0.065
4820,-0.115,-0.055
4821,-0.115,-0.055
4822,-0.105,-0.045
4823,-0.095,-0.045
4824,-0.105,-0.025
4825,-0.075,-0.015
4826,-0.065,-0.015
4827,-0.065,0.005
4828,-0.065,0.015
4829,-0.055,0.045
4830,-0.035,0.045
4831,-0.015,0.075
4832,-0.025,0.095
4833,-0.035,0.085
4834,-0.055,0.095
4835,-0.065,0.105
4836,-0.085,0.095
4837,-0.115,0.065
4838,-0.125,0.045
4839,-0.125,0.035
4840,-0.105,0.025
4841,-0.085,0.025
4842,-0.025,0.035
4843,-0.015,0.025
4844,0.005,0.015
4845,-0.005,-0.025
4846,-0.025,-0.055
4847,-0.035,-0.065
4848,-0.045,-0.085
4849,-0.035,-0.085
4850,-0.035,-0.095
4851,-0.035,-0.085
4852,-0.035,-0.085
4853,-0.025,-0.085
4854,-0.025,-0.085
4855,0.005,-0.075
4856,-0.025,-0.085
4857,-0.035,-0.105
4858,-0.025,-0.105
4859,-0.015,-0.095
4860,-0.025,-0.095
4861,-0.035,-0.115
4862,-0.045,-0.115
4863,-0.045,-0.125
4864,-0.045,-0.125
4865,-0.045,-0.115
4866,-0.055,-0.125
4867,-0.055,-0.125
4868,-0.065,-0.125
4869,-0.065,-0.105
4870,-0.025,-0.075
4871,-0.015,-0.045
4872,0.005,-0.045
4873,0.025,-0.055
4874,0.075,-0.065
4875,0.085,-0.055
4876,0.105,-0.055
4877,0.155,-0.065
4878,0.035,-0.135
4879,-0.025,-0.115
4880,-0.035,-0.135
4881,-0.105,-0.175
4882,-0.095,-0.185
4883,-0.095,-0.165
4884,-0.095,-0.165
4885,-0.095,-0.175
4886,-0.105,-0.185
4887,-0.095,-0.175
4888,-0.125,-0.145
4889,-0.085,-0.105
4890,0.305,-0.025
4891,1.145,-0.335
4892,1.985,-0.795
4893,0.455,-1.275
4894,-0.875,-0.925
4895,-0.775,-0.385
4896,-0.315,-0.125
4897,-0.135,-0.075
4898,-0.085,-0.065
4899,-0.095,-0.075
4900,-0.105,-0.075
4901,-0.105,-0.085
4902,-0.105,-0.075
4903,-0.085,-0.055
4904,-0.085,-0.065
4905,-0.075,-0.055
4906,-0.065,-0.045
4907,-0.055,-0.015
4908,-0.035,-0.015
4909,-0.065,-0.015
4910,-0.035,-0.005
4911,-0.015,0.025
4912,-0.015,0.035
4913,-0.005,0.045
4914,-0.005,0.065
4915,-0.015,0.085
4916,-0.015,0.095
4917,-0.025,0.095
4918,-0.045,0.085
4919,-0.095,0.075
4920,-0.095,0.055
4921,-0.115,0.025
4922,-0.115,0.005
4923,-0.065,0.015
4924,-0.045,0.025
4925,0.015,0.015
4926,0.035,-0.005
4927,0.025,-0.015
4928,0.005,-0.045
4929,-0.025,-0.075
4930,-0.025,-0.085
4931,-0.015,-0.075
4932,-0.025,-0.085
4933,-0.025,-0.095
4934,-0.015,-0.085
4935,0.005,-0.065
4936,0.005,-0.075
4937,0.005,-0.075
4938,0.005,-0.085
4939,-0.005,-0.065
4940,0.025,-0.075
4941,0.005,-0.085
4942,0.005,-0.085
4943,-0.015,-0.085
4944,0.005,-0.095
4945,-0.015,-0.095
4946,-0.015,-0.095
4947,-0.025,-0.095
4948,-0.025,-0.095
4949,-0.015,-0.075
4950,0.015,-0.035
4951,0.015,-0.025
4952,0.045,-0.015
4953,0.085,-0.025
4954,0.095,-0.015
4955,0.135,-0.025
4956,0.165,-0.025
4957,0.125,-0.075
4958,0.035,-0.085
4959,-0.005,-0.095
4960,-0.055,-0.135
4961,-0.065,-0.145
4962,-0.095,-0.145
4963,-0.075,-0.135
4964,-0.075,-0.135
4965,-0.085,-0.145
4966,-0.095,-0.145
4967,-0.065,-0.135
4968,-0.105,-0.105
4969,-0.015,-0.065
4970,0.375,-0.085
4971,1.255,-0.495
4972,1.195,-1.065
4973,-0.275,-1.095
4974,-0.785,-0.625
4975,-0.495,-0.225
4976,-0.195,-0.075
4977,-0.085,-0.055
4978,-0.065,-0.055
4979,-0.065,-0.055
4980,-0.065,-0.045
4981,-0.055,-0.045
4982,-0.045,-0.035
4983,-0.045,-0.025
4984,-0.045,-0.015
4985,-0.025,-0.015
4986,-0.035,-0.015
4987,-0.025,-0.015
4988,-0.035,0.005
4989,-0.015,0.015
4990,-0.005,0.005
4991,0.005,0.025
4992,0.005,0.045
4993,0.015,0.065
4994,0.015,0.075
4995,0.025,0.105
4996,0.005,0.115
4997,-0.005,0.115
4998,-0.025,0.105
4999,-0.045,0.085
5000,-0.065,0.075
5001,-0.085,0.055
5002,-0.095,0.035
5003,-0.075,0.035
5004,-0.065,0.035
5005,-0.025,0.035
5006,0.005,0.025
5007,0.015,0.005
5008,0.005,-0.005
5009,-0.005,-0.035
5010,-0.025,-0.055
5011,-0.025,-0.055
5012,-0.015,-0.055
5013,-0.005,-0.055
5014,-0.025,-0.065
5015,-0.005,-0.055
5016,-0.005,-0.045
5017,0.005,-0.035
5018,0.005,-0.045
5019,-0.005,-0.035
5020,-0.005,-0.035
5021,0.005,-0.035
5022,-0.005,-0.045
5023,0.005,-0.035
5024,-0.005,-0.045
5025,-0.025,-0.055
5026,-0.025,-0.065
5027,-0.015,-0.045
5028,-0.025,-0.035
5029,-0.005,-0.015
5030,0.035,0.005
5031,0.065,0.035
5032,0.085,0.015
5033,0.085,0.025
5034,0.135,-0.005
5035,0.145,0.005
5036,0.085,-0.045
5037,0.025,-0.065
5038,-0.035,-0.085
5039,-0.085,-0.095
5040,-0.105,-0.115
5041,-0.105,-0.115
5042,-0.125,-0.125
5043,-0.125,-0.105
5044,-0.115,-0.115
5045,-0.095,-0.115
5046,-0.125,-0.105
5047,-0.115,-0.075
5048,0.165,-0.015
5049,0.975,-0.345
5050,1.865,-0.785
5051,0.445,-1.245
5052,-0.835,-0.805
5053,-0.605,-0.235
5054,-0.225,-0.005
5055,-0.145,0.005
5056,-0.115,-0.015
5057,-0.105,-0.025
5058,-0.115,-0.015
5059,-0.105,0.015
5060,-0.115,0.005
5061,-0.105,-0.005
5062,-0.095,0.015
5063,-0.095,0.025
5064,-0.085,0.025
5065,-0.075,0.025
5066,-0.075,0.035
5067,-0.065,0.065
5068,-0.065,0.085
5069,-0.065,0.085
5070,-0.045,0.115
5071,-0.035,0.145
5072,-0.025,0.155
5073,-0.025,0.165
5074,-0.035,0.175
5075,-0.045,0.195
5076,-0.055,0.195
5077,-0.075,0.165
5078,-0.105,0.165
5079,-0.125,0.155
5080,-0.135,0.125
5081,-0.115,0.105
5082,-0.095,0.105
5083,-0.065,0.085
5084,-0.055,0.065
5085,-0.025,0.025
5086,-0.015,0.005
5087,-0.035,-0.015
5088,-0.055,-0.035
5089,-0.055,-0.045
5090,-0.055,-0.035
5091,-0.055,-0.035
5092,-0.055,-0.045
5093,-0.065,-0.045
5094,-0.045,-0.035
5095,-0.055,-0.025
5096,-0.055,-0.025
5097,-0.075,-0.035
5098,-0.045,-0.035
5099,-0.045,-0.025
5100,-0.035,-0.035
5101,-0.055,-0.045
5102,-0.065,-0.055
5103,-0.055,-0.035
5104,-0.055,-0.045
5105,-0.065,-0.055
5106,-0.065,-0.055
5107,-0.045,-0.025
5108,-0.015,0.005
5109,0.005,0.005
5110,0.035,0.005
5111,0.065,-0.005
5112,0.045,-0.025
5113,0.075,-0.005
5114,0.105,-0.005
5115,0.065,-0.055
5116,-0.005,-0.085
5117,-0.055,-0.085
5118,-0.105,-0.105
5119,-0.095,-0.105
5120,-0.115,-0.115
5121,-0.135,-0.125
5122,-0.115,-0.125
5123,-0.135,-0.115
5124,-0.115,-0.125
5125,-0.135,-0.135
5126,-0.165,-0.095
5127,0.045,-0.035
5128,0.635,-0.225
5129,1.715,-0.635
5130,0.975,-1.175
5131,-0.695,-0.945
5132,-0.705,-0.325
5133,-0.315,-0.035
5134,-0.155,-0.005
5135,-0.145,-0.015
5136,-0.145,-0.035
5137,-0.165,-0.025
5138,-0.145,-0.015
5139,-0.135,-0.005
5140,-0.125,-0.015
5141,-0.135,-0.005
5142,-0.115,-0.005
5143,-0.115,0.005
5144,-0.105,0.015
5145,-0.115,0.005
5146,-0.115,0.035
5147,-0.075,0.055
5148,-0.075,0.065
5149,-0.075,0.065
5150,-0.065,0.095
5151,-0.055,0.115
5152,-0.055,0.135
5153,-0.055,0.145
5154,-0.065,0.155
5155,-0.075,0.155
5156,-0.095,0.145
5157,-0.125,0.125
5158,-0.145,0.105
5159,-0.145,0.105
5160,-0.125,0.095
5161,-0.105,0.065
5162,-0.085,0.055
5163,-0.065,0.045
5164,-0.045,0.015
5165,-0.065,-0.025
5166,-0.065,-0.055
5167,-0.075,-0.065
5168,-0.085,-0.075
5169,-0.085,-0.075
5170,-0.075,-0.075
5171,-0.075,-0.065
5172,-0.075,-0.065
5173,-0.075,-0.065
5174,-0.055,-0.065
5175,-0.045,-0.065
5176,-0.075,-0.065
5177,-0.065,-0.075
5178,-0.065,-0.075
5179,-0.075,-0.065
5180,-0.075,-0.075
5181,-0.075,-0.085
5182,-0.065,-0.085
5183,-0.075,-0.075
5184,-0.085,-0.085
5185,-0.095,-0.095
5186,-0.085,-0.095
5187,-0.075,-0.075
5188,-0.065,-0.055
5189,-0.035,-0.035
5190,0.005,-0.035
5191,0.055,-0.025
5192,0.045,-0.045
5193,0.055,-0.055
5194,0.055,-0.055
5195,0.085,-0.045
5196,-0.005,-0.095
5197,-0.035,-0.105
5198,-0.075,-0.125
5199,-0.135,-0.145
5200,-0.135,-0.145
5201,-0.145,-0.155
5202,-0.135,-0.155
5203,-0.135,-0.145
5204,-0.145,-0.155
5205,-0.125,-0.165
5206,-0.165,-0.135
5207,-0.085,-0.105
5208,0.295,-0.105
5209,1.265,-0.485
5210,1.675,-0.945
5211,-0.155,-1.145
5212,-0.855,-0.655
5213,-0.525,-0.225
5214,-0.245,-0.075
5215,-0.145,-0.055
5216,-0.135,-0.065
5217,-0.145,-0.065
5218,-0.145,-0.065
5219,-0.145,-0.055
5220,-0.145,-0.055
5221,-0.135,-0.055
5222,-0.125,-0.045
5223,-0.115,-0.025
5224,-0.115,-0.025
5225,-0.115,-0.015
5226,-0.095,-0.005
5227,-0.085,0.015
5228,-0.075,0.025
5229,-0.095,0.025
5230,-0.075,0.045
5231,-0.055,0.085
5232,-0.045,0.085
5233,-0.065,0.085
5234,-0.075,0.105
5235,-0.085,0.105
5236,-0.105,0.095
5237,-0.135,0.065
5238,-0.145,0.055
5239,-0.145,0.045
5240,-0.135,0.035
5241,-0.125,0.025
5242,-0.095,0.015
5243,-0.055,0.005
5244,-0.035,-0.025
5245,-0.035,-0.065
5246,-0.065,-0.095
5247,-0.085,-0.105
5248,-0.075,-0.125
5249,-0.075,-0.135
5250,-0.075,-0.115
5251,-0.065,-0.115
5252,-0.085,-0.115
5253,-0.065,-0.115
5254,-0.065,-0.115
5255,-0.065,-0.105
5256,-0.055,-0.105
5257,-0.065,-0.115
5258,-0.055,-0.115
5259,-0.055,-0.105
5260,-0.065,-0.125
5261,-0.065,-0.135
5262,-0.065,-0.145
5263,-0.055,-0.135
5264,-0.065,-0.135
5265,-0.105,-0.145
5266,-0.075,-0.155
5267,-0.075,-0.125
5268,-0.055,-0.105
5269,-0.035,-0.095
5270,-0.025,-0.085
5271,0.005,-0.075
5272,0.035,-0.085
5273,0.065,-0.085
5274,0.075,-0.085
5275,0.105,-0.075
5276,0.025,-0.135
5277,-0.035,-0.155
5278,-0.065,-0.165
5279,-0.105,-0.185
5280,-0.145,-0.195
5281,-0.155,-0.195
5282,-0.135,-0.205
5283,-0.145,-0.195
5284,-0.135,-0.195
5285,-0.135,-0.205
5286,-0.165,-0.185
5287,-0.155,-0.135
5288,0.055,-0.095
5289,0.665,-0.175
5290,1.765,-0.655
5291,0.775,-1.225
5292,-0.775,-1.035
5293,-0.895,-0.495
5294,-0.425,-0.195
5295,-0.185,-0.095
5296,-0.155,-0.095
5297,-0.155,-0.105
5298,-0.165,-0.105
5299,-0.145,-0.085
5300,-0.125,-0.075
5301,-0.135,-0.085
5302,-0.125,-0.075
5303,-0.135,-0.065
5304,-0.115,-0.055
5305,-0.095,-0.055
5306,-0.095,-0.035
5307,-0.095,-0.015
5308,-0.085,-0.015
5309,-0.075,-0.015
5310,-0.055,0.005
5311,-0.035,0.025
5312,-0.055,0.045
5313,-0.055,0.035
5314,-0.065,0.065
5315,-0.085,0.065
5316,-0.115,0.055
5317,-0.135,0.035
5318,-0.165,0.005
5319,-0.155,0.005
5320,-0.145,-0.015
5321,-0.145,-0.015
5322,-0.115,-0.015
5323,-0.085,-0.005
5324,-0.065,-0.005
5325,-0.055,-0.035
5326,-0.075,-0.085
5327,-0.075,-0.085
5328,-0.085,-0.105
5329,-0.095,-0.115
5330,-0.085,-0.115
5331,-0.085,-0.105
5332,-0.075,-0.095
5333,-0.075,-0.115
5334,-0.075,-0.105
5335,-0.045,-0.095
5336,-0.065,-0.105
5337,-0.045,-0.105
5338,-0.045,-0.095
5339,-0.055,-0.095
5340,-0.065,-0.095
5341,-0.065,-0.105
5342,-0.055,-0.105
5343,-0.055,-0.105
5344,-0.075,-0.105
5345,-0.075,-0.105
5346,-0.085,-0.115
5347,-0.095,-0.095
5348,-0.065,-0.065
5349,-0.065,-0.055
5350,-0.035,-0.055
5351,-0.005,-0.035
5352,0.025,-0.055
5353,0.025,-0.065
5354,0.055,-0.065
5355,0.085,-0.055
5356,0.075,-0.075
5357,-0.025,-0.115
5358,-0.075,-0.125
5359,-0.125,-0.145
5360,-0.165,-0.155
5361,-0.155,-0.155
5362,-0.175,-0.175
5363,-0.175,-0.165
5364,-0.165,-0.155
5365,-0.155,-0.175
5366,-0.145,-0.175
5367,-0.205,-0.135
5368,-0.055,-0.105
5369,0.425,-0.155
5370,1.445,-0.575
5371,1.165,-1.145
5372,-0.585,-1.105
5373,-0.955,-0.555
5374,-0.495,-0.195
5375,-0.225,-0.075
5376,-0.175,-0.075
5377,-0.195,-0.085
5378,-0.165,-0.085
5379,-0.145,-0.055
5380,-0.165,-0.065
5381,-0.155,-0.065
5382,-0.155,-0.065
5383,-0.135,-0.035
5384,-0.135,-0.035
5385,-0.135,-0.035
5386,-0.105,-0.035
5387,-0.115,-0.005
5388,-0.105,0.005
5389,-0.095,0.025
5390,-0.075,0.045
5391,-0.065,0.065
5392,-0.075,0.065
5393,-0.085,0.085
5394,-0.105,0.095
5395,-0.105,0.105
5396,-0.135,0.085
5397,-0.165,0.065
5398,-0.175,0.035
5399,-0.185,0.025
5400,-0.195,0.005
5401,-0.155,0.005
5402,-0.115,0.005
5403,-0.095,-0.005
5404,-0.065,-0.025
5405,-0.055,-0.055
5406,-0.075,-0.085
5407,-0.095,-0.105
5408,-0.095,-0.105
5409,-0.075,-0.115
5410,-0.085,-0.105
5411,-0.085,-0.095
5412,-0.075,-0.105
5413,-0.075,-0.105
5414,-0.075,-0.095
5415,-0.075,-0.085
5416,-0.075,-0.095
5417,-0.085,-0.105
5418,-0.065,-0.105
5419,-0.065,-0.085
5420,-0.085,-0.105
5421,-0.095,-0.115
5422,-0.085,-0.115
5423,-0.095,-0.105
5424,-0.085,-0.115
5425,-0.115,-0.125
5426,-0.105,-0.125
5427,-0.105,-0.115
5428,-0.085,-0.095
5429,-0.065,-0.085
5430,-0.055,-0.065
5431,-0.005,-0.045
5432,0.005,-0.055
5433,0.005,-0.065
5434,0.025,-0.085
5435,0.035,-0.065
5436,0.065,-0.065
5437,-0.005,-0.135
5438,-0.055,-0.125
5439,-0.115,-0.145
5440,-0.155,-0.160
5441,-0.155,-0.170
5442,-0.165,-0.170
5443,-0.195,-0.170
5444,-0.165,-0.160
5445,-0.155,-0.160
5446,-0.155,-0.170
5447,-0.175,-0.140
5448,-0.195,-0.110
5449,0.085,-0.050
5450,0.795,-0.320
5451,1.895,-0.750
5452,0.855,-1.260
5453,-0.825,-0.990
5454,-0.805,-0.380
5455,-0.375,-0.060
5456,-0.215,-0.040
5457,-0.205,-0.050
5458,-0.195,-0.060
5459,-0.205,-0.050
5460,-0.175,-0.040
5461,-0.185,-0.040
5462,-0.185,-0.040
5463,-0.165,-0.030
5464,-0.165,-0.020
5465,-0.155,-0.020
5466,-0.145,-0.010
5467,-0.145,0.000
5468,-0.145,0.020
5469,-0.125,0.040
5470,-0.115,0.060
5471,-0.095,0.080
5472,-0.115,0.080
5473,-0.105,0.100
5474,-0.095,0.130
5475,-0.095,0.140
5476,-0.115,0.140
5477,-0.125,0.150
5478,-0.145,0.120
5479,-0.155,0.120
5480,-0.185,0.100
5481,-0.185,0.080
5482,-0.175,0.080
5483,-0.145,0.070
5484,-0.105,0.040
5485,-0.095,0.000
5486,-0.095,-0.030
5487,-0.115,-0.050
5488,-0.125,-0.080
5489,-0.135,-0.090
5490,-0.135,-0.090
5491,-0.145,-0.080
5492,-0.135,-0.080
5493,-0.135,-0.080
5494,-0.115,-0.070
5495,-0.115,-0.070
5496,-0.135,-0.080
5497,-0.125,-0.080
5498,-0.115,-0.080
5499,-0.115,-0.070
5500,-0.115,-0.070
5501,-0.125,-0.090
5502,-0.125,-0.090
5503,-0.115,-0.090
5504,-0.135,-0.090
5505,-0.135,-0.100
5506,-0.135,-0.100
5507,-0.145,-0.090
5508,-0.115,-0.070
5509,-0.105,-0.060
5510,-0.085,-0.060
5511,-0.055,-0.030
5512,-0.055,-0.040
5513,-0.025,-0.050
5514,0.005,-0.070
5515,0.005,-0.040
5516,0.035,-0.040
5517,-0.025,-0.110
5518,-0.075,-0.130
5519,-0.095,-0.120
5520,-0.175,-0.150
5521,-0.195,-0.160
5522,-0.205,-0.160
5523,-0.195,-0.170
5524,-0.205,-0.170
5525,-0.205,-0.170
5526,-0.215,-0.170
5527,-0.175,-0.180
5528,-0.235,-0.140
5529,-0.135,-0.105
5530,0.225,-0.085
5531,1.125,-0.455
5532,1.945,-0.885
5533,0.295,-1.255
5534,-0.995,-0.865
5535,-0.775,-0.305
5536,-0.335,-0.095
5537,-0.215,-0.055
5538,-0.195,-0.095
5539,-0.205,-0.095
5540,-0.205,-0.085
5541,-0.195,-0.065
5542,-0.185,-0.075
5543,-0.185,-0.065
5544,-0.165,-0.055
5545,-0.175,-0.045
5546,-0.165,-0.045
5547,-0.135,-0.025
5548,-0.165,-0.025
5549,-0.145,-0.015
5550,-0.125,-0.005
5551,-0.125,0.015
5552,-0.115,0.045
5553,-0.105,0.045
5554,-0.095,0.065
5555,-0.085,0.085
5556,-0.095,0.105
5557,-0.115,0.085
5558,-0.125,0.085
5559,-0.165,0.065
5560,-0.165,0.065
5561,-0.185,0.045
5562,-0.185,0.025
5563,-0.165,0.025
5564,-0.125,0.025
5565,-0.095,-0.005
5566,-0.085,-0.025
5567,-0.075,-0.045
5568,-0.095,-0.085
5569,-0.135,-0.105
5570,-0.125,-0.125
5571,-0.105,-0.105
5572,-0.095,-0.115
5573,-0.105,-0.115
5574,-0.105,-0.115
5575,-0.105,-0.105
5576,-0.105,-0.105
5577,-0.095,-0.115
5578,-0.065,-0.105
5579,-0.095,-0.105
5580,-0.095,-0.105
5581,-0.095,-0.125
5582,-0.085,-0.115
5583,-0.085,-0.105
5584,-0.085,-0.125
5585,-0.105,-0.125
5586,-0.095,-0.125
5587,-0.075,-0.095
5588,-0.035,-0.055
5589,-0.045,-0.065
5590,-0.015,-0.055
5591,0.025,-0.045
5592,0.055,-0.045
5593,0.055,-0.065
5594,0.105,-0.065
5595,0.015,-0.115
5596,-0.025,-0.115
5597,-0.095,-0.135
5598,-0.145,-0.175
5599,-0.155,-0.175
5600,-0.165,-0.165
5601,-0.155,-0.175
5602,-0.175,-0.175
5603,-0.185,-0.185
5604,-0.175,-0.175
5605,-0.135,-0.185
5606,-0.195,-0.145
5607,-0.175,-0.145
5608,0.165,-0.095
5609,1.145,-0.445
5610,1.775,-0.955
5611,-0.185,-1.165
5612,-1.075,-0.715
5613,-0.765,-0.295
5614,-0.325,-0.115
5615,-0.175,-0.055
5616,-0.165,-0.075
5617,-0.175,-0.085
5618,-0.165,-0.075
5619,-0.145,-0.055
5620,-0.145,-0.055
5621,-0.155,-0.065
5622,-0.145,-0.055
5623,-0.125,-0.035
5624,-0.125,-0.035
5625,-0.125,-0.035
5626,-0.115,-0.025
5627,-0.095,-0.005
5628,-0.085,0.005
5629,-0.085,0.005
5630,-0.085,0.015
5631,-0.065,0.045
5632,-0.055,0.065
5633,-0.075,0.065
5634,-0.085,0.065
5635,-0.105,0.085
5636,-0.105,0.065
5637,-0.155,0.055
5638,-0.165,0.035
5639,-0.185,0.015
5640,-0.195,0.005
5641,-0.185,-0.005
5642,-0.135,-0.005
5643,-0.085,0.005
5644,-0.065,-0.015
5645,-0.055,-0.025
5646,-0.055,-0.045
5647,-0.065,-0.065
5648,-0.075,-0.085
5649,-0.075,-0.095
5650,-0.065,-0.095
5651,-0.055,-0.085
5652,-0.055,-0.085
5653,-0.055,-0.095
5654,-0.045,-0.095
5655,-0.035,-0.075
5656,-0.035,-0.085
5657,-0.035,-0.095
5658,-0.015,-0.085
5659,-0.025,-0.085
5660,-0.035,-0.085
5661,-0.035,-0.105
5662,-0.035,-0.095
5663,-0.035,-0.085
5664,-0.045,-0.075
5665,-0.005,-0.055
5666,0.025,-0.025
5667,0.055,-0.005
5668,0.085,-0.015
5669,0.085,-0.035
5670,0.105,-0.045
5671,0.145,-0.035
5672,0.095,-0.105
5673,0.025,-0.115
5674,-0.045,-0.135
5675,-0.095,-0.165
5676,-0.115,-0.175
5677,-0.125,-0.175
5678,-0.115,-0.175
5679,-0.135,-0.165
5680,-0.125,-0.155
5681,-0.115,-0.175
5682,-0.105,-0.185
5683,-0.155,-0.145
5684,-0.135,-0.145
5685,0.125,-0.135
5686,0.965,-0.495
5687,1.925,-0.885
5688,0.385,-1.235
5689,-0.965,-0.855
5690,-0.785,-0.345
5691,-0.335,-0.105
5692,-0.135,-0.055
5693,-0.125,-0.065
5694,-0.125,-0.075
5695,-0.115,-0.075
5696,-0.115,-0.065
5697,-0.115,-0.055
5698,-0.105,-0.055
5699,-0.105,-0.035
5700,-0.105,-0.045
5701,-0.095,-0.025
5702,-0.085,-0.025
5703,-0.075,-0.015
5704,-0.065,-0.005
5705,-0.075,0.005
5706,-0.045,0.015
5707,-0.035,0.045
5708,-0.035,0.055
5709,0.015,0.085
5710,-0.025,0.095
5711,-0.025,0.105
5712,-0.045,0.125
5713,-0.055,0.115
5714,-0.075,0.105
5715,-0.095,0.105
5716,-0.125,0.085
5717,-0.145,0.055
5718,-0.145,0.035
5719,-0.125,0.035
5720,-0.085,0.035
5721,-0.055,0.015
5722,-0.045,-0.025
5723,-0.035,-0.035
5724,-0.035,-0.045
5725,-0.065,-0.065
5726,-0.065,-0.085
5727,-0.065,-0.085
5728,-0.055,-0.075
5729,-0.045,-0.075
5730,-0.045,-0.085
5731,-0.055,-0.085
5732,-0.045,-0.075
5733,-0.045,-0.075
5734,-0.035,-0.075
5735,-0.035,-0.065
5736,-0.045,-0.075
5737,-0.045,-0.095
5738,-0.045,-0.095
5739,-0.055,-0.085
5740,-0.045,-0.095
5741,-0.055,-0.105
5742,-0.065,-0.115
5743,-0.065,-0.095
5744,-0.035,-0.075
5745,-0.015,-0.045
5746,0.025,-0.045
5747,0.045,-0.035
5748,0.065,-0.045
5749,0.065,-0.085
5750,0.085,-0.055
5751,0.125,-0.055
5752,0.035,-0.125
5753,-0.015,-0.125
5754,-0.065,-0.145
5755,-0.105,-0.165
5756,-0.115,-0.165
5757,-0.115,-0.155
5758,-0.125,-0.175
5759,-0.125,-0.175
5760,-0.125,-0.175
5761,-0.105,-0.175
5762,-0.155,-0.135
5763,-0.115,-0.125
5764,0.185,-0.105
5765,1.185,-0.535
5766,1.865,-1.025
5767,0.165,-1.245
5768,-0.925,-0.685
5769,-0.565,-0.195
5770,-0.235,-0.045
5771,-0.135,-0.045
5772,-0.125,-0.065
5773,-0.125,-0.075
5774,-0.135,-0.065
5775,-0.125,-0.055
5776,-0.115,-0.045
5777,-0.115,-0.045
5778,-0.095,-0.035
5779,-0.095,-0.015
5780,-0.085,-0.015
5781,-0.075,-0.015
5782,-0.075,-0.005
5783,-0.055,0.015
5784,-0.055,0.035
5785,-0.045,0.045
5786,-0.045,0.055
5787,-0.035,0.085
5788,-0.025,0.105
5789,-0.025,0.105
5790,-0.035,0.135
5791,-0.025,0.155
5792,-0.035,0.145
5793,-0.055,0.135
5794,-0.075,0.115
5795,-0.095,0.125
5796,-0.095,0.115
5797,-0.125,0.085
5798,-0.065,0.075
5799,-0.045,0.065
5800,-0.025,0.045
5801,-0.025,0.015
5802,-0.025,-0.025
5803,-0.045,-0.065
5804,-0.045,-0.085
5805,-0.075,-0.085
5806,-0.055,-0.085
5807,-0.045,-0.075
5808,-0.045,-0.085
5809,-0.035,-0.085
5810,-0.025,-0.075
5811,-0.025,-0.065
5812,-0.025,-0.075
5813,-0.035,-0.085
5814,-0.025,-0.085
5815,-0.025,-0.075
5816,-0.035,-0.075
5817,-0.045,-0.095
5818,-0.055,-0.095
5819,-0.045,-0.085
5820,-0.035,-0.095
5821,-0.055,-0.095
5822,-0.055,-0.105
5823,-0.055,-0.105
5824,-0.065,-0.105
5825,-0.075,-0.095
5826,-0.045,-0.075
5827,-0.005,-0.035
5828,0.025,-0.025
5829,0.045,-0.025
5830,0.055,-0.045
5831,0.095,-0.035
5832,0.105,-0.035
5833,0.115,-0.035
5834,0.115,-0.075
5835,0.005,-0.115
5836,-0.035,-0.125
5837,-0.085,-0.155
5838,-0.095,-0.155
5839,-0.095,-0.145
5840,-0.115,-0.155
5841,-0.125,-0.165
5842,-0.115,-0.155
5843,-0.105,-0.155
5844,-0.095,-0.135
5845,-0.165,-0.115
5846,0.035,-0.065
5847,0.835,-0.335
5848,1.975,-0.745
5849,0.715,-1.295
5850,-0.895,-0.925
5851,-0.615,-0.215
5852,-0.295,-0.095
5853,-0.165,-0.065
5854,-0.125,-0.055
5855,-0.105,-0.055
5856,-0.125,-0.055
5857,-0.125,-0.045
5858,-0.105,-0.035
5859,-0.095,-0.025
5860,-0.095,-0.015
5861,-0.085,-0.015
5862,-0.085,-0.015
5863,-0.075,0.005
5864,-0.055,0.015
5865,-0.045,0.005
5866,-0.045,0.015
5867,-0.025,0.035
5868,-0.015,0.055
5869,-0.025,0.075
5870,-0.015,0.075
5871,-0.005,0.115
5872,-0.005,0.125
5873,-0.035,0.125
5874,-0.035,0.125
5875,-0.075,0.115
5876,-0.085,0.085
5877,-0.105,0.075
5878,-0.095,0.055
5879,-0.085,0.055
5880,-0.055,0.045
5881,-0.015,0.035
5882,0.015,0.015
5883,0.005,-0.005
5884,-0.005,-0.035
5885,-0.015,-0.075
5886,-0.025,-0.085
5887,-0.025,-0.085
5888,-0.035,-0.085
5889,-0.035,-0.075
5890,-0.035,-0.085
5891,0.025,0.255
5892,0.375,0.415
5893,-0.175,-0.115
5894,-0.015,-0.065
5895,-0.005,-0.075
5896,-0.005,-0.075
5897,0.015,-0.075
5898,0.005,-0.075
5899,-0.005,-0.075
5900,-0.015,-0.085
5901,-0.015,-0.085
5902,-0.015,-0.085
5903,0.005,-0.085
5904,-0.015,-0.085
5905,-0.015,-0.095
5906,-0.025,-0.095
5907,-0.045,-0.085
5908,-0.025,-0.085
5909,-0.035,-0.085
5910,-0.005,-0.055
5911,0.025,-0.035
5912,0.025,-0.015
5913,0.065,-0.025
5914,0.105,-0.025
5915,0.125,-0.035
5916,0.145,-0.025
5917,0.135,-0.065
5918,0.035,-0.095
5919,0.005,-0.095
5920,-0.045,-0.115
5921,-0.085,-0.145
5922,-0.075,-0.145
5923,-0.085,-0.135
5924,-0.075,-0.135
5925,-0.075,-0.145
5926,-0.075,-0.155
5927,-0.055,-0.135
5928,-0.115,-0.105
5929,0.015,-0.085
5930,0.565,-0.085
5931,1.645,-0.485
5932,1.125,-1.055
5933,-0.755,-1.025
5934,-0.865,-0.465
5935,-0.395,-0.155
5936,-0.135,-0.045
5937,-0.075,-0.035
5938,-0.085,-0.045
5939,-0.075,-0.045
5940,-0.095,-0.045
5941,-0.065,-0.035
5942,-0.055,-0.025
5943,-0.065,-0.025
5944,-0.065,-0.015
5945,-0.055,-0.005
5946,-0.045,0.005
5947,-0.045,0.015
5948,-0.025,0.015
5949,-0.025,0.025
5950,-0.005,0.055
5951,-0.005,0.065
5952,-0.005,0.065
5953,0.005,0.085
5954,-0.005,0.115
5955,0.015,0.135
5956,-0.025,0.125
5957,-0.045,0.125
5958,-0.055,0.125
5959,-0.065,0.115
5960,-0.095,0.085
5961,-0.115,0.065
5962,-0.115,0.045
5963,-0.075,0.055
5964,-0.035,0.055
5965,-0.005,0.035
5966,0.015,0.015
5967,0.015,0.005
5968,0.015,-0.005
5969,-0.025,-0.055
5970,-0.015,-0.055
5971,0.005,-0.055
5972,0.005,-0.055
5973,0.005,-0.055
5974,-0.005,-0.055
5975,-0.045,-0.065
5976,0.025,-0.025
5977,0.015,-0.055
5978,0.025,-0.045
5979,0.025,-0.045
5980,0.035,-0.025
5981,0.015,-0.045
5982,0.025,-0.045
5983,0.035,-0.045
5984,0.005,-0.055
5985,0.015,-0.055
5986,0.015,-0.065
5987,-0.005,-0.065
5988,-0.005,-0.055
5989,-0.015,-0.075
5990,-0.015,-0.075
5991,-0.015,-0.065
5992,-0.005,-0.045
5993,0.035,-0.005
5994,0.065,-0.005
5995,0.085,0.005
5996,0.105,-0.005
5997,0.105,-0.025
5998,0.145,-0.015
5999,0.165,0.005
6000,0.125,-0.035
6001,0.035,-0.085
6002,0.005,-0.075
6003,-0.045,-0.095
6004,-0.065,-0.105
6005,-0.085,-0.115
6006,-0.085,-0.115
6007,-0.085,-0.105
6008,-0.075,-0.105
6009,-0.075,-0.105
6010,-0.065,-0.115
6011,-0.115,-0.075
6012,-0.015,-0.045
6013,0.335,-0.035
6014,1.105,-0.315
6015,1.925,-0.645
6016,0.315,-1.005
6017,-0.915,-0.775
6018,-0.635,-0.305
6019,-0.225,-0.035
6020,-0.095,0.025
6021,-0.075,0.015
6022,-0.085,0.005
6023,-0.085,0.015
6024,-0.075,0.015
6025,-0.075,0.025
6026,-0.075,0.025
6027,-0.055,0.045
6028,-0.065,0.045
6029,-0.055,0.055
6030,-0.035,0.065
6031,-0.025,0.065
6032,-0.015,0.085
6033,-0.015,0.085
6034,-0.005,0.105
6035,0.005,0.125
6036,0.005,0.145
6037,0.015,0.155
6038,0.015,0.165
6039,-0.005,0.175
6040,-0.025,0.185
6041,-0.055,0.165
6042,-0.065,0.155
6043,-0.065,0.155
6044,-0.085,0.125
6045,-0.085,0.105
6046,-0.065,0.105
6047,-0.025,0.105
6048,-0.045,0.085
6049,0.015,0.075
6050,0.035,0.055
6051,-0.015,0.005
6052,-0.035,-0.025
6053,-0.035,-0.045
6054,-0.105,-0.055
6055,-0.045,-0.045
6056,-0.025,-0.035
6057,-0.035,-0.045
6058,-0.025,-0.035
6059,-0.015,-0.025
6060,-0.005,-0.035
6061,-0.025,-0.045
6062,-0.025,-0.045
6063,-0.015,-0.035
6064,-0.005,-0.035
6065,-0.025,-0.045
6066,-0.035,-0.055
6067,-0.035,-0.055
6068,-0.015,-0.055
6069,-0.045,-0.065
6070,-0.035,-0.075
6071,-0.045,-0.075
6072,-0.055,-0.075
6073,-0.055,-0.085
6074,-0.055,-0.085
6075,-0.055,-0.065
6076,-0.045,-0.055
6077,-0.005,-0.025
6078,0.015,-0.005
6079,0.065,0.015
6080,0.085,-0.005
6081,0.075,-0.025
6082,0.105,-0.015
6083,0.145,-0.005
6084,0.105,-0.045
6085,0.015,-0.095
6086,-0.015,-0.095
6087,-0.075,-0.115
6088,-0.075,-0.105
6089,-0.095,-0.125
6090,-0.095,-0.125
6091,-0.095,-0.125
6092,-0.105,-0.115
6093,-0.105,-0.135
6094,-0.105,-0.145
6095,-0.105,-0.115
6096,-0.115,-0.075
6097,0.155,-0.025
6098,0.955,-0.385
6099,1.935,-0.885
6100,0.055,-1.275
6101,-0.935,-0.735
6102,-0.555,-0.215
6103,-0.205,-0.005
6104,-0.115,-0.005
6105,-0.115,-0.035
6106,-0.095,-0.035
6107,-0.105,-0.015
6108,-0.095,-0.005
6109,-0.105,-0.015
6110,-0.095,-0.005
6111,-0.075,0.005
6112,-0.085,0.005
6113,-0.075,0.025
6114,-0.075,0.025
6115,-0.065,0.045
6116,-0.035,0.075
6117,-0.025,0.065
6118,-0.025,0.085
6119,-0.015,0.115
6120,-0.015,0.125
6121,-0.015,0.145
6122,0.005,0.175
6123,-0.005,0.165
6124,-0.025,0.175
6125,-0.045,0.165
6126,-0.065,0.165
6127,-0.075,0.155
6128,-0.095,0.135
6129,-0.105,0.115
6130,-0.085,0.105
6131,-0.035,0.105
6132,-0.005,0.075
6133,0.005,0.025
6134,-0.005,-0.005
6135,-0.035,-0.025
6136,-0.045,-0.055
6137,-0.055,-0.055
6138,-0.035,-0.055
6139,-0.035,-0.045
6140,-0.045,-0.045
6141,-0.035,-0.045
6142,-0.015,-0.035
6143,-0.025,-0.035
6144,-0.045,-0.035
6145,-0.025,-0.035
6146,-0.025,-0.035
6147,-0.025,-0.025
6148,-0.035,-0.035
6149,-0.035,-0.045
6150,-0.035,-0.035
6151,-0.025,-0.025
6152,-0.035,-0.035
6153,-0.055,-0.035
6154,-0.055,-0.025
6155,-0.055,-0.025
6156,-0.065,-0.025
6157,-0.065,-0.025
6158,-0.055,-0.015
6159,-0.035,0.015
6160,-0.015,0.025
6161,0.015,0.025
6162,0.035,0.035
6163,0.065,0.045
6164,0.075,0.035
6165,0.095,0.025
6166,0.105,0.045
6167,0.125,0.035
6168,0.025,0.015
6169,-0.035,0.005
6170,-0.085,-0.015
6171,-0.115,-0.005
6172,-0.095,0.005
6173,-0.095,-0.005
6174,-0.105,0.005
6175,-0.105,0.005
6176,-0.105,-0.005
6177,-0.095,-0.005
6178,-0.125,0.005
6179,-0.115,0.015
6180,0.105,0.025
6181,0.895,-0.055
6182,1.935,-0.265
6183,0.435,-0.475
6184,-0.965,-0.375
6185,-0.785,-0.145
6186,-0.315,-0.005
6187,-0.135,0.035
6188,-0.135,0.025
6189,-0.115,0.025
6190,-0.125,0.025
6191,-0.105,0.035
6192,-0.105,0.025
6193,-0.115,0.025
6194,-0.105,0.025
6195,-0.095,0.045
6196,-0.085,0.045
6197,-0.065,0.045
6198,-0.045,0.055
6199,-0.045,0.075
6200,-0.055,0.055
6201,-0.055,0.055
6202,-0.045,0.065
6203,-0.035,0.075
6204,-0.015,0.095
6205,-0.025,0.105
6206,-0.045,0.105
6207,-0.055,0.105
6208,-0.075,0.115
6209,-0.095,0.095
6210,-0.115,0.085
6211,-0.155,0.065
6212,-0.155,0.055
6213,-0.135,0.045
6214,-0.095,0.045
6215,-0.045,0.035
6216,-0.035,0.005
6217,-0.025,-0.015
6218,-0.045,-0.045
6219,-0.045,-0.045
6220,-0.045,-0.065
6221,-0.055,-0.085
6222,-0.055,-0.085
6223,-0.065,-0.075
6224,-0.045,-0.085
6225,-0.035,-0.075
6226,-0.035,-0.075
6227,-0.035,-0.075
6228,-0.035,-0.095
6229,-0.045,-0.085
6230,-0.025,-0.085
6231,-0.045,-0.085
6232,-0.045,-0.095
6233,-0.055,-0.105
6234,-0.045,-0.105
6235,-0.055,-0.095
6236,-0.055,-0.105
6237,-0.065,-0.125
6238,-0.065,-0.115
6239,-0.075,-0.115
6240,-0.085,-0.115
6241,-0.065,-0.095
6242,-0.025,-0.065
6243,-0.005,-0.045
6244,0.025,-0.025
6245,0.035,-0.045
6246,0.055,-0.055
6247,0.095,-0.055
6248,0.105,-0.065
6249,0.095,-0.105
6250,0.005,-0.145
6251,-0.035,-0.135
6252,-0.095,-0.165
6253,-0.135,-0.185
6254,-0.125,-0.195
6255,-0.125,-0.185
6256,-0.135,-0.185
6257,-0.145,-0.195
6258,-0.145,-0.195
6259,-0.115,-0.185
6260,-0.135,-0.175
6261,-0.165,-0.155
6262,0.035,-0.125
6263,0.635,-0.295
6264,1.675,-0.725
6265,0.945,-1.245
6266,-0.775,-1.045
6267,-0.925,-0.475
6268,-0.435,-0.165
6269,-0.175,-0.075
6270,-0.135,-0.095
6271,-0.135,-0.095
6272,-0.135,-0.085
6273,-0.135,-0.075
6274,-0.115,-0.075
6275,-0.135,-0.085
6276,-0.115,-0.075
6277,-0.105,-0.065
6278,-0.085,-0.055
6279,-0.095,-0.035
6280,-0.085,-0.035
6281,-0.075,-0.025
6282,-0.065,-0.025
6283,-0.045,0.005
6284,-0.045,0.015
6285,-0.045,0.025
6286,-0.025,0.045
6287,-0.025,0.065
6288,-0.055,0.085
6289,-0.065,0.095
6290,-0.085,0.065
6291,-0.105,0.065
6292,-0.135,0.045
6293,-0.145,0.015
6294,-0.155,-0.005
6295,-0.155,-0.015
6296,-0.115,-0.015
6297,-0.065,-0.025
6298,-0.045,-0.035
6299,-0.035,-0.055
6300,-0.035,-0.095
6301,-0.055,-0.125
6302,-0.055,-0.125
6303,-0.045,-0.125
6304,-0.045,-0.125
6305,-0.065,-0.135
6306,-0.065,-0.135
6307,-0.055,-0.115
6308,-0.045,-0.115
6309,-0.055,-0.125
6310,-0.055,-0.135
6311,-0.055,-0.105
6312,-0.045,-0.105
6313,-0.045,-0.115
6314,-0.045,-0.125
6315,-0.065,-0.125
6316,-0.065,-0.135
6317,-0.055,-0.135
6318,-0.055,-0.135
6319,-0.065,-0.135
6320,-0.085,-0.155
6321,-0.085,-0.145
6322,-0.075,-0.135
6323,-0.065,-0.095
6324,-0.025,-0.065
6325,-0.025,-0.075
6326,0.025,-0.065
6327,0.055,-0.055
6328,0.055,-0.075
6329,0.075,-0.065
6330,0.085,-0.075
6331,0.045,-0.125
6332,-0.025,-0.145
6333,-0.065,-0.145
6334,-0.115,-0.185
6335,-0.135,-0.185
6336,-0.145,-0.165
6337,-0.145,-0.185
6338,-0.145,-0.185
6339,-0.145,-0.185
6340,-0.135,-0.185
6341,-0.135,-0.185
6342,-0.165,-0.115
6343,0.025,-0.055
6344,0.615,-0.245
6345,1.715,-0.735
6346,1.155,-1.305
6347,-0.595,-1.195
6348,-0.915,-0.545
6349,-0.455,-0.115
6350,-0.195,-0.035
6351,-0.155,-0.035
6352,-0.145,-0.065
6353,-0.155,-0.065
6354,-0.155,-0.055
6355,-0.145,-0.035
6356,-0.155,-0.035
6357,-0.125,-0.025
6358,-0.135,-0.035
6359,-0.125,-0.015
6360,-0.105,-0.005
6361,-0.105,-0.005
6362,-0.095,0.015
6363,-0.085,0.035
6364,-0.075,0.055
6365,-0.055,0.045
6366,-0.055,0.085
6367,-0.045,0.105
6368,-0.035,0.125
6369,-0.025,0.125
6370,-0.045,0.145
6371,-0.055,0.145
6372,-0.075,0.145
6373,-0.085,0.105
6374,-0.095,0.105
6375,-0.115,0.095
6376,-0.115,0.065
6377,-0.085,0.065
6378,-0.045,0.045
6379,-0.025,0.035
6380,-0.015,-0.005
6381,-0.025,-0.055
6382,-0.055,-0.095
6383,-0.055,-0.105
6384,-0.055,-0.125
6385,-0.065,-0.135
6386,-0.065,-0.135
6387,-0.075,-0.115
6388,-0.065,-0.115
6389,-0.075,-0.105
6390,-0.065,-0.105
6391,-0.065,-0.115
6392,-0.045,-0.105
6393,-0.045,-0.115
6394,-0.055,-0.125
6395,-0.065,-0.125
6396,-0.055,-0.125
6397,-0.055,-0.125
6398,-0.075,-0.135
6399,-0.075,-0.125
6400,-0.075,-0.125
6401,-0.075,-0.135
6402,-0.075,-0.145
6403,-0.105,-0.125
6404,-0.065,-0.095
6405,-0.045,-0.075
6406,-0.005,-0.065
6407,0.015,-0.055
6408,0.045,-0.075
6409,0.045,-0.085
6410,0.075,-0.075
6411,0.075,-0.065
6412,0.085,-0.105
6413,-0.005,-0.145
6414,-0.025,-0.145
6415,-0.095,-0.165
6416,-0.135,-0.195
6417,-0.145,-0.195
6418,-0.145,-0.205
6419,-0.135,-0.195
6420,-0.155,-0.195
6421,-0.145,-0.195
6422,-0.125,-0.185
6423,-0.165,-0.175
6424,-0.145,-0.115
6425,0.105,-0.065
6426,0.755,-0.265
6427,1.905,-0.735
6428,0.845,-1.325
6429,-0.815,-1.065
6430,-0.855,-0.455
6431,-0.395,-0.125
6432,-0.175,-0.065
6433,-0.175,-0.095
6434,-0.175,-0.105
6435,-0.165,-0.105
6436,-0.155,-0.075
6437,-0.155,-0.075
6438,-0.155,-0.085
6439,-0.145,-0.085
6440,-0.135,-0.065
6441,-0.115,-0.055
6442,-0.125,-0.055
6443,-0.125,-0.055
6444,-0.095,-0.025
6445,-0.085,-0.005
6446,-0.085,-0.005
6447,-0.095,0.015
6448,-0.055,0.045
6449,-0.075,0.055
6450,-0.065,0.075
6451,-0.075,0.085
6452,-0.075,0.105
6453,-0.095,0.095
6454,-0.105,0.085
6455,-0.125,0.065
6456,-0.145,0.055
6457,-0.145,0.015
6458,-0.135,0.005
6459,-0.105,0.015
6460,-0.065,0.005
6461,-0.055,-0.035
6462,-0.045,-0.065
6463,-0.065,-0.105
6464,-0.095,-0.115
6465,-0.125,-0.135
6466,-0.095,-0.135
6467,-0.085,-0.125
6468,-0.105,-0.125
6469,-0.085,-0.125
6470,-0.095,-0.125
6471,-0.065,-0.115
6472,-0.085,-0.125
6473,-0.085,-0.125
6474,-0.085,-0.125
6475,-0.105,-0.125
6476,-0.075,-0.125
6477,-0.085,-0.135
6478,-0.105,-0.135
6479,-0.085,-0.125
6480,-0.105,-0.145
6481,-0.105,-0.145
6482,-0.095,-0.135
6483,-0.115,-0.115
6484,-0.075,-0.105
6485,-0.055,-0.085
6486,-0.015,-0.055
6487,0.015,-0.055
6488,0.015,-0.055
6489,0.055,-0.075
6490,0.095,-0.075
6491,0.075,-0.105
6492,-0.025,-0.135
6493,-0.075,-0.155
6494,-0.125,-0.175
6495,-0.135,-0.185
6496,-0.155,-0.185
6497,-0.155,-0.195
6498,-0.175,-0.195
6499,-0.165,-0.195
6500,-0.155,-0.185
6501,-0.155,-0.195
6502,-0.175,-0.175
6503,-0.215,-0.155
6504,-0.015,-0.105
6505,0.665,-0.305
6506,1.775,-0.755
6507,0.755,-1.165
6508,-0.795,-0.925
6509,-0.945,-0.445
