'sample interval','ECG1','ECG2'
'0.0078125 sec','mV','mV'
0,-0.325,-0.185
1,-0.395,-0.155
2,-0.255,-0.125
3,-0.335,-0.115
4,-0.375,-0.105
5,-0.335,-0.095
6,-0.285,-0.085
7,-0.275,-0.065
8,-0.245,-0.025
9,-0.215,-0.005
10,-0.215,0.035
11,-0.155,0.085
12,-0.075,0.125
13,-0.055,0.145
14,-0.005,0.165
15,0.105,0.185
16,0.115,0.185
17,0.085,0.165
18,0.115,0.135
19,0.095,0.075
20,0.065,0.015
21,0.015,-0.035
22,-0.055,-0.085
23,-0.095,-0.135
24,-0.125,-0.155
25,-0.225,-0.175
26,-0.255,-0.195
27,-0.215,-0.185
28,-0.215,-0.175
29,-0.225,-0.175
30,-0.265,-0.185
31,-0.275,-0.185
32,-0.255,-0.195
33,-0.225,-0.185
34,-0.235,-0.165
35,-0.255,-0.165
36,-0.245,-0.145
37,-0.185,-0.165
38,-0.145,-0.145
39,-0.135,-0.125
40,-0.115,-0.125
41,-0.135,-0.155
42,-0.135,-0.125
43,-0.145,-0.135
44,-0.165,-0.135
45,-0.115,-0.145
46,-0.095,-0.165
47,-0.085,-0.165
48,-0.125,-0.155
49,-0.125,-0.185
50,-0.175,-0.185
51,-0.095,-0.155
52,-0.085,-0.095
53,-0.075,-0.095
54,-0.005,-0.115
55,0.025,-0.145
56,0.025,-0.155
57,-0.005,-0.115
58,-0.005,-0.075
59,0.025,-0.085
60,0.075,-0.075
61,0.035,-0.155
62,0.075,-0.195
63,-0.035,-0.205
64,-0.125,-0.215
65,-0.025,-0.235
66,-0.125,-0.255
67,-0.145,-0.245
68,-0.135,-0.225
69,-0.125,-0.225
70,-0.145,-0.225
71,-0.135,-0.205
72,-0.125,-0.195
73,-0.135,-0.185
74,-0.085,-0.085
75,-0.105,0.415
76,-0.175,1.205
77,0.385,0.975
78,1.325,0.175
79,1.935,-0.895
80,1.455,-0.935
81,-0.075,-0.425
82,-0.505,-0.165
83,-0.305,-0.145
84,-0.145,-0.165
85,-0.115,-0.175
86,-0.135,-0.185
87,-0.125,-0.175
88,-0.175,-0.145
89,-0.135,-0.125
90,-0.075,-0.115
91,-0.105,-0.095
92,-0.135,-0.085
93,-0.105,-0.075
94,-0.095,-0.075
95,-0.055,-0.035
96,-0.035,-0.025
97,-0.005,-0.005
98,0.015,0.045
99,0.005,0.055
100,0.025,0.105
101,0.055,0.165
102,0.185,0.215
103,0.145,0.225
104,0.165,0.275
105,0.295,0.255
106,0.315,0.235
107,0.315,0.215
108,0.275,0.175
109,0.295,0.105
110,0.245,0.055
111,0.165,-0.035
112,0.135,-0.065
113,0.065,-0.135
114,-0.005,-0.155
115,-0.095,-0.155
116,-0.135,-0.165
117,-0.075,-0.175
118,-0.055,-0.185
119,-0.125,-0.175
120,-0.105,-0.175
121,-0.105,-0.185
122,-0.105,-0.175
123,-0.125,-0.185
124,-0.125,-0.175
125,-0.135,-0.175
126,-0.105,-0.155
127,-0.105,-0.155
128,-0.115,-0.155
129,-0.125,-0.145
130,-0.115,-0.135
131,-0.055,-0.135
132,-0.075,-0.145
133,-0.055,-0.155
134,-0.085,-0.155
135,-0.055,-0.155
136,-0.035,-0.155
137,-0.055,-0.155
138,-0.105,-0.155
139,-0.105,-0.155
140,-0.055,-0.155
141,-0.055,-0.175
142,-0.075,-0.165
143,-0.075,-0.165
144,-0.075,-0.165
145,-0.075,-0.165
146,-0.075,-0.185
147,-0.105,-0.175
148,-0.105,-0.165
149,-0.125,-0.135
150,-0.125,-0.095
151,-0.015,-0.095
152,0.045,-0.115
153,0.085,-0.155
154,0.065,-0.125
155,-0.015,-0.075
156,0.045,-0.065
157,0.145,-0.075
158,0.095,-0.105
159,0.105,-0.175
160,-0.005,-0.175
161,-0.055,-0.205
162,-0.085,-0.225
163,-0.135,-0.225
164,-0.145,-0.225
165,-0.165,-0.215
166,-0.185,-0.215
167,-0.115,-0.205
168,-0.135,-0.205
169,-0.155,-0.185
170,-0.115,-0.155
171,-0.115,-0.025
172,-0.195,0.565
173,-0.215,1.275
174,0.465,0.965
175,1.495,0.125
176,2.075,-0.955
177,1.475,-0.945
178,-0.035,-0.445
179,-0.515,-0.155
180,-0.355,-0.135
181,-0.205,-0.155
182,-0.165,-0.145
183,-0.205,-0.125
184,-0.175,-0.145
185,-0.155,-0.135
186,-0.145,-0.135
187,-0.145,-0.095
188,-0.125,-0.095
189,-0.105,-0.095
190,-0.095,-0.065
191,-0.095,-0.055
192,-0.075,-0.045
193,-0.025,-0.015
194,-0.035,0.005
195,-0.055,0.045
196,-0.055,0.065
197,0.015,0.105
198,0.035,0.145
199,0.085,0.205
200,0.135,0.265
201,0.195,0.285
202,0.215,0.295
203,0.265,0.285
204,0.315,0.245
205,0.305,0.245
206,0.285,0.195
207,0.315,0.125
208,0.245,0.045
209,0.135,-0.015
210,0.055,-0.075
211,0.005,-0.105
212,-0.035,-0.105
213,-0.105,-0.155
214,-0.095,-0.155
215,-0.125,-0.175
216,-0.155,-0.175
217,-0.115,-0.185
218,-0.155,-0.175
219,-0.175,-0.165
220,-0.145,-0.145
221,-0.175,-0.175
222,-0.135,-0.145
223,-0.135,-0.155
224,-0.135,-0.155
225,-0.135,-0.145
226,-0.095,-0.125
227,-0.125,-0.125
228,-0.065,-0.115
229,-0.105,-0.125
230,-0.135,-0.155
231,-0.115,-0.135
232,-0.115,-0.145
233,-0.125,-0.145
234,-0.065,-0.145
235,-0.095,-0.155
236,-0.085,-0.155
237,-0.095,-0.165
238,-0.115,-0.175
239,-0.115,-0.175
240,-0.115,-0.165
241,-0.125,-0.175
242,-0.095,-0.175
243,-0.145,-0.185
244,-0.185,-0.185
245,-0.145,-0.175
246,-0.125,-0.175
247,-0.105,-0.175
248,-0.115,-0.165
249,-0.075,-0.175
250,-0.145,-0.175
251,-0.115,-0.155
252,-0.065,-0.105
253,-0.165,-0.085
254,-0.065,-0.095
255,0.005,-0.115
256,0.055,-0.155
257,0.015,-0.115
258,-0.025,-0.075
259,0.085,-0.055
260,0.085,-0.075
261,0.035,-0.125
262,0.035,-0.155
263,-0.015,-0.145
264,-0.015,-0.185
265,-0.175,-0.225
266,-0.165,-0.205
267,-0.205,-0.185
268,-0.215,-0.215
269,-0.245,-0.215
270,-0.185,-0.205
271,-0.145,-0.195
272,-0.165,-0.185
273,-0.145,-0.145
274,-0.135,-0.015
275,-0.295,0.565
276,-0.265,1.305
277,0.475,0.935
278,1.535,0.095
279,2.115,-0.985
280,1.345,-0.885
281,-0.235,-0.405
282,-0.615,-0.155
283,-0.405,-0.105
284,-0.255,-0.165
285,-0.195,-0.165
286,-0.185,-0.155
287,-0.165,-0.145
288,-0.195,-0.135
289,-0.155,-0.105
290,-0.165,-0.105
291,-0.215,-0.095
292,-0.165,-0.065
293,-0.115,-0.085
294,-0.075,-0.055
295,-0.115,-0.025
296,-0.065,-0.005
297,-0.045,0.025
298,-0.055,0.065
299,-0.045,0.095
300,-0.015,0.135
301,0.015,0.175
302,0.065,0.235
303,0.155,0.275
304,0.195,0.295
305,0.235,0.305
306,0.215,0.285
307,0.255,0.275
308,0.325,0.265
309,0.335,0.215
310,0.265,0.145
311,0.205,0.105
312,0.095,0.055
313,-0.025,0.005
314,0.035,-0.015
315,0.015,-0.035
316,-0.075,-0.055
317,-0.125,-0.055
318,-0.105,-0.075
319,-0.135,-0.085
320,-0.145,-0.085
321,-0.195,-0.105
322,-0.105,-0.115
323,-0.115,-0.135
324,-0.125,-0.135
325,-0.065,-0.155
326,-0.135,-0.175
327,-0.135,-0.195
328,-0.065,-0.195
329,-0.045,-0.215
330,-0.075,-0.205
331,-0.025,-0.195
332,-0.065,-0.205
333,-0.065,-0.215
334,-0.055,-0.215
335,-0.045,-0.225
336,-0.075,-0.235
337,-0.065,-0.225
338,-0.065,-0.245
339,-0.095,-0.265
340,-0.045,-0.275
341,-0.015,-0.255
342,-0.055,-0.275
343,-0.045,-0.255
344,-0.065,-0.285
345,-0.035,-0.275
346,-0.035,-0.245
347,-0.045,-0.255
348,-0.075,-0.255
349,-0.095,-0.235
350,-0.085,-0.265
351,-0.055,-0.255
352,-0.015,-0.255
353,-0.055,-0.265
354,-0.035,-0.255
355,-0.025,-0.245
356,-0.075,-0.195
357,-0.025,-0.175
358,0.075,-0.175
359,0.115,-0.175
360,0.105,-0.185
361,0.065,-0.185
362,0.055,-0.135
363,0.105,-0.145
364,0.095,-0.145
365,0.115,-0.175
366,0.145,-0.235
367,0.065,-0.235
368,0.015,-0.255
369,-0.005,-0.295
370,-0.045,-0.305
371,-0.095,-0.235
372,-0.145,-0.285
373,-0.105,-0.265
374,-0.075,-0.255
375,-0.075,-0.215
376,-0.045,-0.195
377,-0.105,-0.175
378,-0.025,0.135
379,-0.105,1.005
380,0.105,1.215
381,0.955,0.475
382,1.725,-0.675
383,1.755,-1.105
384,0.475,-0.625
385,-0.355,-0.235
386,-0.405,-0.175
387,-0.175,-0.175
388,-0.085,-0.155
389,-0.125,-0.165
390,-0.095,-0.165
391,-0.105,-0.135
392,-0.125,-0.125
393,-0.095,-0.105
394,-0.095,-0.095
395,-0.065,-0.095
396,-0.095,-0.075
397,-0.075,-0.055
398,-0.085,-0.035
399,-0.095,-0.015
400,-0.005,0.025
401,0.025,0.055
402,0.005,0.085
403,-0.005,0.115
404,-0.015,0.155
405,0.055,0.215
406,0.105,0.245
407,0.195,0.295
408,0.255,0.335
409,0.265,0.305
410,0.235,0.275
411,0.215,0.245
412,0.225,0.235
413,0.305,0.135
414,0.285,0.055
415,0.185,0.025
416,0.085,-0.045
417,-0.025,-0.095
418,-0.095,-0.135
419,-0.115,-0.145
420,-0.105,-0.145
421,-0.155,-0.165
422,-0.135,-0.165
423,-0.185,-0.175
424,-0.235,-0.145
425,-0.155,-0.165
426,-0.145,-0.155
427,-0.235,-0.135
428,-0.225,-0.125
429,-0.195,-0.145
430,-0.195,-0.145
431,-0.125,-0.135
432,-0.115,-0.135
433,-0.185,-0.145
434,-0.125,-0.145
435,-0.095,-0.125
436,-0.075,-0.115
437,-0.135,-0.145
438,-0.155,-0.135
439,-0.195,-0.145
440,-0.195,-0.135
441,-0.155,-0.145
442,-0.125,-0.165
443,-0.125,-0.155
444,-0.165,-0.165
445,-0.225,-0.165
446,-0.215,-0.175
447,-0.125,-0.175
448,-0.115,-0.155
449,-0.105,-0.165
450,-0.135,-0.155
451,-0.185,-0.175
452,-0.185,-0.165
453,-0.195,-0.165
454,-0.175,-0.135
455,-0.215,-0.085
456,-0.145,-0.065
457,-0.045,-0.095
458,-0.015,-0.135
459,0.005,-0.135
460,0.025,-0.065
461,0.015,-0.045
462,0.045,-0.055
463,-0.025,-0.075
464,0.065,-0.135
465,-0.025,-0.165
466,-0.135,-0.175
467,-0.155,-0.195
468,-0.195,-0.215
469,-0.175,-0.195
470,-0.225,-0.195
471,-0.215,-0.215
472,-0.205,-0.195
473,-0.205,-0.185
474,-0.185,-0.155
475,-0.195,-0.135
476,-0.175,-0.005
477,-0.255,0.545
478,-0.285,1.265
479,0.395,1.045
480,1.385,0.205
481,2.075,-0.905
482,1.325,-0.865
483,-0.255,-0.425
484,-0.655,-0.165
485,-0.425,-0.125
486,-0.275,-0.145
487,-0.275,-0.155
488,-0.265,-0.115
489,-0.245,-0.135
490,-0.235,-0.115
491,-0.225,-0.105
492,-0.205,-0.075
493,-0.215,-0.045
494,-0.205,0.005
495,-0.165,0.015
496,-0.175,0.035
497,-0.165,0.065
498,-0.175,0.085
499,-0.165,0.105
500,-0.105,0.145
501,-0.105,0.165
502,-0.125,0.225
503,-0.095,0.285
504,-0.005,0.325
505,0.005,0.345
506,0.085,0.385
507,0.145,0.405
508,0.155,0.375
509,0.155,0.355
510,0.225,0.345
511,0.215,0.285
512,0.115,0.225
513,0.035,0.115
514,-0.055,0.045
515,-0.075,-0.005
516,-0.115,-0.055
517,-0.175,-0.085
518,-0.235,-0.105
519,-0.275,-0.105
520,-0.295,-0.105
521,-0.345,-0.125
522,-0.355,-0.135
523,-0.325,-0.145
524,-0.345,-0.125
525,-0.345,-0.115
526,-0.365,-0.105
527,-0.255,-0.105
528,-0.275,-0.105
529,-0.315,-0.105
530,-0.335,-0.105
531,-0.265,-0.105
532,-0.265,-0.105
533,-0.305,-0.125
534,-0.285,-0.095
535,-0.275,-0.115
536,-0.355,-0.135
537,-0.275,-0.135
538,-0.245,-0.105
539,-0.265,-0.135
540,-0.345,-0.145
541,-0.305,-0.155
542,-0.315,-0.155
543,-0.345,-0.155
544,-0.295,-0.155
545,-0.305,-0.135
546,-0.325,-0.145
547,-0.325,-0.115
548,-0.305,-0.075
549,-0.205,-0.095
550,-0.125,-0.115
551,-0.185,-0.125
552,-0.155,-0.105
553,-0.215,-0.055
554,-0.165,-0.035
555,-0.105,-0.055
556,-0.125,-0.065
557,-0.115,-0.135
558,-0.125,-0.165
559,-0.195,-0.165
560,-0.295,-0.205
561,-0.305,-0.205
562,-0.265,-0.215
563,-0.235,-0.215
564,-0.225,-0.195
565,-0.235,-0.195
566,-0.255,-0.185
567,-0.175,-0.155
568,-0.195,-0.115
569,-0.175,0.015
570,-0.295,0.565
571,-0.305,1.295
572,0.345,1.035
573,1.185,0.245
574,1.635,-0.895
575,1.015,-0.915
576,-0.065,-0.475
577,-0.355,-0.155
578,-0.265,-0.115
579,-0.135,-0.135
580,-0.065,-0.115
581,-0.055,-0.135
582,-0.045,-0.125
583,-0.015,-0.105
584,0.015,-0.095
585,0.005,-0.075
586,0.045,-0.055
587,0.095,-0.065
588,0.075,-0.035
589,0.075,-0.015
590,0.065,-0.015
591,0.065,0.015
592,0.135,0.045
593,0.135,0.065
594,0.145,0.105
595,0.135,0.165
596,0.195,0.225
597,0.195,0.255
598,0.275,0.305
599,0.295,0.325
600,0.305,0.325
601,0.315,0.295
602,0.345,0.285
603,0.315,0.255
604,0.305,0.205
605,0.265,0.115
606,0.275,0.035
607,0.235,-0.015
608,0.195,-0.055
609,0.145,-0.095
610,0.105,-0.105
611,0.055,-0.125
612,-0.005,-0.095
613,-0.025,-0.145
614,-0.005,-0.145
615,-0.045,-0.135
616,-0.085,-0.115
617,-0.015,-0.115
618,-0.015,-0.105
619,-0.015,-0.085
620,-0.065,-0.085
621,-0.055,-0.105
622,-0.065,-0.105
623,0.015,-0.075
624,-0.015,-0.085
625,-0.065,-0.085
626,-0.075,-0.095
627,-0.055,-0.085
628,-0.075,-0.105
629,-0.065,-0.105
630,-0.075,-0.105
631,-0.065,-0.115
632,-0.095,-0.125
633,-0.115,-0.135
634,-0.075,-0.125
635,-0.085,-0.135
636,-0.075,-0.125
637,-0.115,-0.135
638,-0.165,-0.105
639,-0.145,-0.055
640,-0.045,-0.065
641,0.015,-0.075
642,0.025,-0.115
643,0.025,-0.115
644,0.025,-0.045
645,0.005,-0.025
646,0.035,-0.065
647,0.025,-0.065
648,0.035,-0.125
649,0.035,-0.165
650,-0.105,-0.185
651,-0.115,-0.195
652,-0.165,-0.195
653,-0.175,-0.205
654,-0.255,-0.205
655,-0.235,-0.195
656,-0.155,-0.165
657,-0.125,-0.175
658,-0.235,-0.165
659,-0.225,-0.135
660,-0.095,-0.005
661,-0.205,0.565
662,-0.275,1.355
663,0.465,1.015
664,1.525,0.155
665,2.185,-0.995
666,1.255,-0.935
667,-0.205,-0.465
668,-0.555,-0.145
669,-0.425,-0.135
670,-0.245,-0.155
671,-0.155,-0.155
672,-0.215,-0.135
673,-0.185,-0.135
674,-0.155,-0.135
675,-0.155,-0.115
676,-0.135,-0.095
677,-0.145,-0.075
678,-0.105,-0.085
679,-0.115,-0.085
680,-0.115,-0.025
681,-0.035,-0.035
682,-0.025,-0.015
683,-0.015,0.025
684,-0.035,0.055
685,-0.005,0.085
686,0.005,0.135
687,0.095,0.175
688,0.125,0.245
689,0.165,0.285
690,0.215,0.295
691,0.305,0.295
692,0.315,0.315
693,0.365,0.305
694,0.335,0.235
695,0.305,0.185
696,0.315,0.115
697,0.295,0.035
698,0.235,-0.035
699,0.155,-0.085
700,0.105,-0.115
701,0.105,-0.155
702,0.085,-0.155
703,0.095,-0.155
704,0.045,-0.145
705,0.045,-0.165
706,0.075,-0.175
707,0.075,-0.155
708,0.085,-0.165
709,0.095,-0.175
710,0.115,-0.155
711,0.135,-0.145
712,0.165,-0.125
713,0.175,-0.145
714,0.185,-0.135
715,0.205,-0.125
716,0.215,-0.135
717,0.205,-0.155
718,0.215,-0.145
719,0.215,-0.135
720,0.215,-0.145
721,0.235,-0.145
722,0.235,-0.175
723,0.235,-0.145
724,0.255,-0.165
725,0.245,-0.145
726,0.245,-0.165
727,0.255,-0.115
728,0.255,-0.095
729,0.285,-0.085
730,0.275,-0.145
731,0.285,-0.175
732,0.285,-0.095
733,0.265,-0.075
734,0.285,-0.065
735,0.295,-0.085
736,0.305,-0.135
737,0.285,-0.185
738,0.265,-0.195
739,0.245,-0.225
740,0.235,-0.235
741,0.225,-0.235
742,0.205,-0.235
743,0.205,-0.235
744,0.195,-0.215
745,0.205,-0.225
746,0.195,-0.215
747,0.185,-0.205
748,0.205,-0.155
749,0.195,0.125
750,0.125,0.915
751,0.185,1.365
752,0.545,0.715
753,0.945,-0.455
754,1.015,-1.115
755,0.465,-0.785
756,0.025,-0.315
757,-0.055,-0.155
758,0.015,-0.185
759,0.065,-0.165
760,0.055,-0.175
761,0.025,-0.175
762,0.005,-0.155
763,0.015,-0.165
764,0.005,-0.145
765,-0.015,-0.145
766,-0.015,-0.135
767,0.005,-0.115
768,0.005,-0.085
769,-0.005,-0.075
770,-0.025,-0.045
771,-0.005,-0.035
772,-0.035,0.005
773,-0.035,0.035
774,0.005,0.075
775,-0.005,0.105
776,0.025,0.185
777,0.085,0.225
778,0.135,0.245
779,0.185,0.295
780,0.205,0.305
781,0.195,0.275
782,0.185,0.255
783,0.205,0.215
784,0.265,0.145
785,0.225,0.065
786,0.175,-0.005
787,0.055,-0.085
788,-0.045,-0.105
789,-0.105,-0.155
790,-0.075,-0.175
791,-0.155,-0.175
792,-0.195,-0.185
793,-0.225,-0.175
794,-0.215,-0.195
795,-0.185,-0.185
796,-0.225,-0.175
797,-0.215,-0.165
798,-0.195,-0.175
799,-0.205,-0.155
800,-0.195,-0.145
801,-0.175,-0.155
802,-0.195,-0.155
803,-0.185,-0.155
804,-0.195,-0.145
805,-0.195,-0.155
806,-0.185,-0.165
807,-0.175,-0.165
808,-0.155,-0.155
809,-0.195,-0.165
810,-0.195,-0.175
811,-0.215,-0.185
812,-0.195,-0.185
813,-0.205,-0.175
814,-0.195,-0.115
815,-0.225,-0.095
816,-0.095,-0.115
817,-0.155,-0.145
818,-0.085,-0.155
819,-0.075,-0.115
820,-0.175,-0.045
821,-0.005,-0.085
822,0.005,-0.105
823,-0.025,-0.135
824,-0.025,-0.185
825,-0.105,-0.185
826,-0.215,-0.225
827,-0.265,-0.255
828,-0.255,-0.225
829,-0.285,-0.255
830,-0.265,-0.245
831,-0.225,-0.245
832,-0.245,-0.225
833,-0.225,-0.205
834,-0.295,-0.205
835,-0.245,-0.195
836,-0.225,-0.075
837,-0.285,0.505
838,-0.365,1.325
839,0.245,1.055
840,1.295,0.145
841,1.855,-1.025
842,1.205,-0.935
843,-0.115,-0.445
844,-0.565,-0.155
845,-0.395,-0.165
846,-0.335,-0.185
847,-0.255,-0.175
848,-0.235,-0.165
849,-0.275,-0.175
850,-0.235,-0.155
851,-0.225,-0.135
852,-0.215,-0.105
853,-0.185,-0.145
854,-0.185,-0.115
855,-0.195,-0.095
856,-0.145,-0.095
857,-0.165,-0.045
858,-0.135,-0.035
859,-0.125,0.005
860,-0.145,0.025
861,-0.135,0.065
862,-0.055,0.105
863,-0.025,0.165
864,0.005,0.205
865,0.025,0.245
866,0.095,0.265
867,0.145,0.275
868,0.155,0.265
869,0.125,0.255
870,0.215,0.235
871,0.185,0.165
872,0.135,0.085
873,0.105,-0.005
874,0.045,-0.055
875,-0.055,-0.095
876,-0.065,-0.135
877,-0.115,-0.165
878,-0.115,-0.175
879,-0.145,-0.185
880,-0.195,-0.185
881,-0.165,-0.215
882,-0.135,-0.195
883,-0.165,-0.195
884,-0.195,-0.165
885,-0.185,-0.165
886,-0.155,-0.155
887,-0.175,-0.165
888,-0.175,-0.145
889,-0.155,-0.145
890,-0.125,-0.155
891,-0.125,-0.165
892,-0.125,-0.155
893,-0.145,-0.145
894,-0.155,-0.165
895,-0.175,-0.175
896,-0.145,-0.185
897,-0.135,-0.175
898,-0.145,-0.165
899,-0.165,-0.165
900,-0.195,-0.175
901,-0.225,-0.175
902,-0.235,-0.125
903,-0.165,-0.095
904,-0.125,-0.105
905,-0.135,-0.165
906,-0.075,-0.155
907,-0.115,-0.115
908,-0.155,-0.055
909,-0.025,-0.085
910,-0.035,-0.095
911,-0.075,-0.165
912,-0.135,-0.185
913,-0.175,-0.205
914,-0.275,-0.245
915,-0.305,-0.245
916,-0.325,-0.225
917,-0.315,-0.265
918,-0.315,-0.245
919,-0.325,-0.225
920,-0.245,-0.205
921,-0.295,-0.195
922,-0.365,-0.185
923,-0.305,-0.135
924,-0.285,0.255
925,-0.475,1.115
926,-0.065,1.275
927,1.065,0.555
928,2.005,-0.695
929,1.735,-1.055
930,0.075,-0.625
931,-0.705,-0.225
932,-0.615,-0.145
933,-0.445,-0.175
934,-0.285,-0.155
935,-0.295,-0.165
936,-0.345,-0.155
937,-0.365,-0.155
938,-0.305,-0.145
939,-0.255,-0.125
940,-0.265,-0.125
941,-0.275,-0.105
942,-0.245,-0.105
943,-0.215,-0.075
944,-0.175,-0.065
945,-0.215,-0.035
946,-0.135,-0.005
947,-0.195,0.025
948,-0.165,0.055
949,-0.195,0.095
950,-0.125,0.135
951,-0.045,0.185
952,-0.015,0.225
953,0.055,0.275
954,0.085,0.275
955,0.145,0.265
956,0.165,0.265
957,0.175,0.245
958,0.185,0.185
959,0.115,0.125
960,0.145,0.055
961,0.025,-0.015
962,-0.025,-0.085
963,-0.125,-0.125
964,-0.135,-0.165
965,-0.195,-0.175
966,-0.225,-0.195
967,-0.225,-0.185
968,-0.205,-0.185
969,-0.245,-0.185
970,-0.295,-0.165
971,-0.205,-0.185
972,-0.215,-0.175
973,-0.235,-0.155
974,-0.235,-0.135
975,-0.195,-0.145
976,-0.245,-0.145
977,-0.215,-0.145
978,-0.175,-0.145
979,-0.225,-0.155
980,-0.215,-0.155
981,-0.165,-0.165
982,-0.155,-0.175
983,-0.185,-0.175
984,-0.195,-0.175
985,-0.245,-0.185
986,-0.205,-0.185
987,-0.245,-0.175
988,-0.205,-0.185
989,-0.245,-0.175
990,-0.245,-0.115
991,-0.185,-0.115
992,-0.145,-0.145
993,-0.105,-0.175
994,-0.065,-0.165
995,-0.085,-0.095
996,-0.095,-0.085
997,-0.095,-0.105
998,-0.005,-0.135
999,-0.035,-0.205
1000,-0.115,-0.205
1001,-0.215,-0.235
1002,-0.245,-0.265
1003,-0.285,-0.255
1004,-0.275,-0.265
1005,-0.345,-0.275
1006,-0.325,-0.255
1007,-0.255,-0.245
1008,-0.255,-0.255
1009,-0.335,-0.245
1010,-0.245,-0.195
1011,-0.195,-0.155
1012,-0.315,0.235
1013,-0.475,1.095
1014,-0.105,1.275
1015,0.975,0.555
1016,1.945,-0.715
1017,1.815,-1.115
1018,0.235,-0.655
1019,-0.605,-0.255
1020,-0.525,-0.165
1021,-0.375,-0.185
1022,-0.345,-0.205
1023,-0.295,-0.185
1024,-0.255,-0.175
1025,-0.295,-0.165
1026,-0.275,-0.165
1027,-0.245,-0.155
1028,-0.255,-0.125
1029,-0.235,-0.135
1030,-0.205,-0.125
1031,-0.175,-0.105
1032,-0.165,-0.075
1033,-0.175,-0.065
1034,-0.175,-0.035
1035,-0.155,-0.005
1036,-0.115,0.045
1037,-0.075,0.075
1038,-0.095,0.105
1039,-0.085,0.155
1040,0.025,0.225
1041,0.085,0.245
1042,0.085,0.245
1043,0.135,0.235
1044,0.145,0.235
1045,0.155,0.225
1046,0.195,0.145
1047,0.135,0.105
1048,0.135,0.035
1049,0.045,-0.035
1050,-0.015,-0.095
1051,-0.085,-0.145
1052,-0.125,-0.185
1053,-0.135,-0.175
1054,-0.195,-0.205
1055,-0.215,-0.215
1056,-0.275,-0.215
1057,-0.255,-0.215
1058,-0.215,-0.215
1059,-0.235,-0.195
1060,-0.255,-0.175
1061,-0.245,-0.185
1062,-0.275,-0.185
1063,-0.255,-0.175
1064,-0.165,-0.165
1065,-0.195,-0.185
1066,-0.225,-0.175
1067,-0.235,-0.175
1068,-0.195,-0.175
1069,-0.205,-0.205
1070,-0.225,-0.195
1071,-0.185,-0.195
1072,-0.245,-0.205
1073,-0.275,-0.225
1074,-0.235,-0.215
1075,-0.235,-0.205
1076,-0.225,-0.195
1077,-0.265,-0.145
1078,-0.215,-0.155
1079,-0.175,-0.165
1080,-0.175,-0.195
1081,-0.175,-0.195
1082,-0.195,-0.135
1083,-0.135,-0.115
1084,-0.075,-0.115
1085,-0.045,-0.155
1086,-0.085,-0.225
1087,-0.215,-0.225
1088,-0.255,-0.255
1089,-0.305,-0.275
1090,-0.345,-0.275
1091,-0.375,-0.265
1092,-0.345,-0.275
1093,-0.325,-0.275
1094,-0.355,-0.265
1095,-0.335,-0.255
1096,-0.295,-0.235
1097,-0.295,-0.215
1098,-0.295,-0.165
1099,-0.415,0.285
1100,-0.495,1.135
1101,-0.105,1.245
1102,0.935,0.535
1103,1.885,-0.695
1104,1.725,-1.085
1105,0.135,-0.685
1106,-0.725,-0.285
1107,-0.675,-0.185
1108,-0.385,-0.195
1109,-0.335,-0.205
1110,-0.395,-0.205
1111,-0.325,-0.205
1112,-0.285,-0.195
1113,-0.345,-0.165
1114,-0.285,-0.155
1115,-0.315,-0.135
1116,-0.315,-0.125
1117,-0.315,-0.125
1118,-0.255,-0.115
1119,-0.225,-0.085
1120,-0.205,-0.065
1121,-0.195,-0.045
1122,-0.195,-0.015
1123,-0.175,0.005
1124,-0.145,0.045
1125,-0.155,0.095
1126,-0.095,0.145
1127,0.085,0.195
1128,0.005,0.215
1129,0.015,0.205
1130,0.085,0.235
1131,0.115,0.215
1132,0.135,0.185
1133,0.155,0.135
1134,0.175,0.085
1135,0.135,0.025
1136,0.035,-0.025
1137,-0.015,-0.085
1138,-0.065,-0.135
1139,-0.115,-0.155
1140,-0.145,-0.185
1141,-0.175,-0.195
1142,-0.195,-0.215
1143,-0.185,-0.215
1144,-0.155,-0.195
1145,-0.195,-0.205
1146,-0.225,-0.205
1147,-0.125,-0.175
1148,-0.195,-0.165
1149,-0.165,-0.165
1150,-0.135,-0.165
1151,-0.165,-0.155
1152,-0.135,-0.155
1153,-0.115,-0.165
1154,-0.115,-0.165
1155,-0.135,-0.165
1156,-0.115,-0.155
1157,-0.105,-0.165
1158,-0.085,-0.165
1159,-0.135,-0.185
1160,-0.145,-0.185
1161,-0.135,-0.185
1162,-0.115,-0.175
1163,-0.135,-0.185
1164,-0.165,-0.125
1165,-0.165,-0.125
1166,-0.115,-0.125
1167,-0.065,-0.155
1168,-0.035,-0.165
1169,-0.035,-0.135
1170,-0.045,-0.085
1171,-0.065,-0.105
1172,-0.055,-0.085
1173,0.005,-0.145
1174,0.035,-0.195
1175,-0.135,-0.215
1176,-0.215,-0.245
1177,-0.215,-0.265
1178,-0.245,-0.255
1179,-0.235,-0.255
1180,-0.245,-0.255
1181,-0.265,-0.225
1182,-0.185,-0.225
1183,-0.235,-0.205
1184,-0.205,-0.185
1185,-0.215,-0.145
1186,-0.275,0.235
1187,-0.395,1.145
1188,-0.005,1.265
1189,1.035,0.485
1190,1.905,-0.775
1191,1.725,-1.095
1192,0.285,-0.635
1193,-0.525,-0.235
1194,-0.495,-0.175
1195,-0.335,-0.185
1196,-0.265,-0.185
1197,-0.235,-0.185
1198,-0.275,-0.175
1199,-0.255,-0.175
1200,-0.195,-0.155
1201,-0.185,-0.165
1202,-0.175,-0.145
1203,-0.195,-0.125
1204,-0.175,-0.115
1205,-0.175,-0.095
1206,-0.145,-0.075
1207,-0.145,-0.065
1208,-0.075,-0.015
1209,-0.075,-0.005
1210,-0.085,0.035
1211,-0.055,0.075
1212,-0.005,0.125
1213,-0.025,0.165
1214,0.035,0.205
1215,0.065,0.245
1216,0.125,0.245
1217,0.155,0.245
1218,0.185,0.245
1219,0.225,0.215
1220,0.225,0.165
1221,0.195,0.105
1222,0.175,0.045
1223,0.155,-0.025
1224,0.085,-0.055
1225,0.005,-0.115
1226,-0.065,-0.145
1227,-0.105,-0.165
1228,-0.125,-0.185
1229,-0.145,-0.195
1230,-0.175,-0.185
1231,-0.135,-0.185
1232,-0.145,-0.185
1233,-0.165,-0.175
1234,-0.155,-0.165
1235,-0.065,-0.175
1236,-0.175,-0.165
1237,-0.135,-0.155
1238,-0.095,-0.155
1239,-0.135,-0.155
1240,-0.135,-0.145
1241,-0.085,-0.155
1242,-0.125,-0.155
1243,-0.075,-0.155
1244,-0.065,-0.155
1245,-0.075,-0.165
1246,-0.125,-0.185
1247,-0.135,-0.185
1248,-0.115,-0.175
1249,-0.125,-0.175
1250,-0.115,-0.165
1251,-0.125,-0.155
1252,-0.105,-0.095
1253,-0.025,-0.115
1254,-0.085,-0.145
1255,-0.045,-0.175
1256,0.005,-0.125
1257,-0.025,-0.075
1258,0.025,-0.075
1259,0.075,-0.075
1260,0.085,-0.115
1261,0.065,-0.185
1262,-0.035,-0.185
1263,-0.125,-0.215
1264,-0.145,-0.245
1265,-0.195,-0.245
1266,-0.205,-0.245
1267,-0.185,-0.235
1268,-0.225,-0.235
1269,-0.225,-0.235
1270,-0.185,-0.225
1271,-0.145,-0.195
1272,-0.175,-0.165
1273,-0.155,-0.025
1274,-0.185,0.755
1275,-0.215,1.415
1276,0.605,0.905
1277,1.705,-0.245
1278,2.115,-1.155
1279,0.875,-0.785
1280,-0.355,-0.325
1281,-0.565,-0.155
1282,-0.325,-0.175
1283,-0.235,-0.185
1284,-0.185,-0.175
1285,-0.185,-0.165
1286,-0.185,-0.155
1287,-0.195,-0.145
1288,-0.155,-0.135
1289,-0.145,-0.125
1290,-0.155,-0.125
1291,-0.195,-0.115
1292,-0.135,-0.085
1293,-0.125,-0.085
1294,-0.085,-0.065
1295,-0.075,-0.045
1296,-0.075,-0.005
1297,-0.065,0.025
1298,-0.005,0.065
1299,-0.035,0.095
1300,0.025,0.145
1301,0.075,0.205
1302,0.115,0.225
1303,0.175,0.255
1304,0.165,0.255
1305,0.165,0.255
1306,0.235,0.225
1307,0.265,0.205
1308,0.225,0.165
1309,0.235,0.065
1310,0.195,-0.015
1311,0.095,-0.065
1312,0.085,-0.105
1313,0.025,-0.135
1314,-0.065,-0.155
1315,-0.105,-0.165
1316,-0.135,-0.185
1317,-0.135,-0.185
1318,-0.175,-0.185
1319,-0.125,-0.185
1320,-0.095,-0.175
1321,-0.145,-0.165
1322,-0.115,-0.145
1323,-0.125,-0.145
1324,-0.055,-0.125
1325,-0.025,-0.135
1326,-0.095,-0.115
1327,-0.065,-0.105
1328,-0.065,-0.105
1329,-0.095,-0.095
1330,-0.055,-0.105
1331,-0.095,-0.095
1332,-0.065,-0.095
1333,-0.045,-0.095
1334,-0.095,-0.105
1335,-0.095,-0.085
1336,-0.025,-0.085
1337,-0.055,-0.085
1338,-0.065,-0.075
1339,-0.085,-0.055
1340,-0.075,-0.025
1341,0.005,-0.025
1342,0.045,-0.045
1343,0.025,-0.055
1344,0.045,-0.025
1345,-0.025,0.015
1346,0.045,0.005
1347,0.125,-0.005
1348,0.125,-0.035
1349,0.095,-0.075
1350,0.005,-0.085
1351,-0.065,-0.115
1352,-0.105,-0.125
1353,-0.125,-0.135
1354,-0.135,-0.145
1355,-0.195,-0.135
1356,-0.085,-0.115
1357,-0.155,-0.125
1358,-0.175,-0.115
1359,-0.155,-0.105
1360,-0.115,-0.075
1361,-0.125,0.045
1362,-0.235,0.555
1363,-0.205,1.105
1364,0.705,0.755
1365,1.735,-0.065
1366,2.105,-0.845
1367,0.825,-0.635
1368,-0.365,-0.255
1369,-0.485,-0.135
1370,-0.305,-0.135
1371,-0.205,-0.145
1372,-0.225,-0.135
1373,-0.185,-0.135
1374,-0.145,-0.135
1375,-0.155,-0.125
1376,-0.165,-0.105
1377,-0.125,-0.115
1378,-0.135,-0.095
1379,-0.115,-0.085
1380,-0.115,-0.065
1381,-0.065,-0.045
1382,-0.105,-0.015
1383,-0.055,-0.005
1384,-0.055,0.035
1385,-0.035,0.065
1386,-0.025,0.095
1387,-0.005,0.145
1388,0.055,0.205
1389,0.125,0.225
1390,0.175,0.245
1391,0.135,0.265
1392,0.215,0.265
1393,0.255,0.235
1394,0.235,0.215
1395,0.255,0.195
1396,0.285,0.135
1397,0.185,0.045
1398,0.145,-0.015
1399,0.055,-0.075
1400,0.055,-0.115
1401,-0.045,-0.135
1402,-0.095,-0.165
1403,-0.105,-0.175
1404,-0.115,-0.185
1405,-0.115,-0.185
1406,-0.105,-0.195
1407,-0.105,-0.175
1408,-0.095,-0.145
1409,-0.115,-0.155
1410,-0.125,-0.165
1411,-0.115,-0.145
1412,-0.125,-0.155
1413,-0.075,-0.155
1414,-0.115,-0.145
1415,-0.065,-0.155
1416,-0.035,-0.145
1417,-0.085,-0.155
1418,-0.085,-0.155
1419,-0.085,-0.165
1420,-0.085,-0.165
1421,-0.085,-0.175
1422,-0.085,-0.175
1423,-0.105,-0.165
1424,-0.105,-0.165
1425,-0.105,-0.145
1426,-0.085,-0.095
1427,-0.035,-0.105
1428,-0.005,-0.125
1429,-0.005,-0.155
1430,0.015,-0.135
1431,0.005,-0.075
1432,0.025,-0.065
1433,0.035,-0.075
1434,0.045,-0.115
1435,0.095,-0.185
1436,-0.005,-0.195
1437,-0.065,-0.215
1438,-0.125,-0.235
1439,-0.115,-0.235
1440,-0.175,-0.255
1441,-0.185,-0.245
1442,-0.205,-0.235
1443,-0.195,-0.225
1444,-0.135,-0.215
1445,-0.135,-0.215
1446,-0.165,-0.175
1447,-0.125,-0.105
1448,-0.215,0.385
1449,-0.355,1.265
1450,0.175,1.215
1451,1.275,0.375
1452,2.095,-0.925
1453,1.665,-0.995
1454,0.055,-0.505
1455,-0.535,-0.175
1456,-0.355,-0.155
1457,-0.215,-0.185
1458,-0.195,-0.185
1459,-0.175,-0.165
1460,-0.165,-0.165
1461,-0.165,-0.155
1462,-0.155,-0.145
1463,-0.175,-0.135
1464,-0.125,-0.125
1465,-0.145,-0.105
1466,-0.105,-0.085
1467,-0.075,-0.075
1468,-0.075,-0.065
1469,-0.095,-0.035
1470,-0.075,-0.015
1471,-0.035,0.035
1472,0.035,0.075
1473,0.015,0.095
1474,-0.025,0.145
1475,0.015,0.205
1476,0.135,0.235
1477,0.175,0.255
1478,0.245,0.245
1479,0.265,0.245
1480,0.215,0.225
1481,0.245,0.185
1482,0.285,0.135
1483,0.245,0.085
1484,0.205,0.025
1485,0.095,-0.035
1486,0.065,-0.085
1487,0.015,-0.135
1488,-0.055,-0.165
1489,-0.115,-0.175
1490,-0.095,-0.185
1491,-0.085,-0.205
1492,-0.115,-0.195
1493,-0.135,-0.195
1494,-0.155,-0.185
1495,-0.175,-0.185
1496,-0.105,-0.175
1497,-0.065,-0.155
1498,-0.055,-0.155
1499,-0.135,-0.155
1500,-0.065,-0.155
1501,-0.095,-0.145
1502,-0.075,-0.145
1503,-0.055,-0.155
1504,-0.085,-0.155
1505,-0.085,-0.165
1506,-0.105,-0.175
1507,-0.095,-0.155
1508,-0.035,-0.175
1509,-0.055,-0.175
1510,-0.085,-0.165
1511,-0.105,-0.165
1512,-0.145,-0.125
1513,-0.095,-0.095
1514,0.035,-0.125
1515,-0.005,-0.165
1516,0.005,-0.155
1517,-0.035,-0.115
1518,-0.005,-0.075
1519,0.075,-0.095
1520,0.085,-0.095
1521,0.055,-0.195
1522,0.015,-0.215
1523,-0.025,-0.225
1524,-0.115,-0.265
1525,-0.155,-0.245
1526,-0.135,-0.265
1527,-0.245,-0.265
1528,-0.165,-0.245
1529,-0.165,-0.245
1530,-0.185,-0.245
1531,-0.175,-0.225
1532,-0.135,-0.195
1533,-0.155,-0.175
1534,-0.175,0.215
1535,-0.295,1.095
1536,0.105,1.285
1537,1.085,0.565
1538,1.925,-0.685
1539,1.865,-1.065
1540,0.385,-0.585
1541,-0.475,-0.235
1542,-0.425,-0.195
1543,-0.215,-0.215
1544,-0.175,-0.195
1545,-0.185,-0.205
1546,-0.175,-0.195
1547,-0.145,-0.185
1548,-0.135,-0.165
1549,-0.105,-0.165
1550,-0.115,-0.145
1551,-0.115,-0.135
1552,-0.115,-0.115
1553,-0.095,-0.105
1554,-0.075,-0.085
1555,-0.055,-0.065
1556,-0.045,-0.045
1557,-0.035,-0.005
1558,-0.025,0.025
1559,-0.035,0.075
1560,0.055,0.125
1561,0.065,0.155
1562,0.085,0.195
1563,0.155,0.225
1564,0.175,0.235
1565,0.205,0.205
1566,0.225,0.195
1567,0.225,0.165
1568,0.215,0.105
1569,0.205,0.045
1570,0.155,-0.035
1571,0.065,-0.085
1572,0.015,-0.115
1573,-0.045,-0.175
1574,-0.085,-0.195
1575,-0.115,-0.205
1576,-0.175,-0.205
1577,-0.175,-0.215
1578,-0.155,-0.235
1579,-0.185,-0.215
1580,-0.155,-0.215
1581,-0.175,-0.215
1582,-0.175,-0.195
1583,-0.135,-0.185
1584,-0.165,-0.185
1585,-0.185,-0.175
1586,-0.145,-0.175
1587,-0.155,-0.165
1588,-0.125,-0.165
1589,-0.175,-0.175
1590,-0.175,-0.185
1591,-0.135,-0.185
1592,-0.145,-0.195
1593,-0.215,-0.195
1594,-0.205,-0.205
1595,-0.125,-0.205
1596,-0.115,-0.175
1597,-0.225,-0.145
1598,-0.235,-0.135
1599,-0.125,-0.165
1600,-0.095,-0.185
1601,-0.115,-0.185
1602,-0.135,-0.145
1603,-0.135,-0.105
1604,-0.075,-0.125
1605,-0.085,-0.135
1606,-0.075,-0.205
1607,-0.105,-0.235
1608,-0.205,-0.245
1609,-0.275,-0.285
1610,-0.295,-0.285
1611,-0.355,-0.275
1612,-0.355,-0.285
1613,-0.345,-0.295
1614,-0.335,-0.285
1615,-0.335,-0.275
1616,-0.325,-0.255
1617,-0.325,-0.245
1618,-0.295,-0.195
1619,-0.315,0.235
1620,-0.505,1.125
1621,-0.125,1.175
1622,1.005,0.385
1623,1.855,-0.895
1624,1.475,-1.015
1625,-0.105,-0.575
1626,-0.685,-0.265
1627,-0.645,-0.225
1628,-0.465,-0.245
1629,-0.365,-0.245
1630,-0.355,-0.255
1631,-0.365,-0.245
1632,-0.375,-0.225
1633,-0.375,-0.215
1634,-0.315,-0.205
1635,-0.305,-0.185
1636,-0.285,-0.165
1637,-0.265,-0.155
1638,-0.305,-0.155
1639,-0.285,-0.145
1640,-0.255,-0.115
1641,-0.255,-0.095
1642,-0.235,-0.065
1643,-0.215,-0.015
1644,-0.195,0.005
1645,-0.225,0.045
1646,-0.135,0.095
1647,-0.075,0.125
1648,-0.045,0.145
1649,-0.045,0.155
1650,-0.005,0.135
1651,0.015,0.115
1652,-0.025,0.075
1653,-0.005,0.025
1654,-0.015,-0.025
1655,-0.055,-0.095
1656,-0.115,-0.145
1657,-0.205,-0.185
1658,-0.235,-0.215
1659,-0.305,-0.235
1660,-0.305,-0.245
1661,-0.305,-0.245
1662,-0.375,-0.245
1663,-0.415,-0.265
1664,-0.395,-0.255
1665,-0.445,-0.245
1666,-0.385,-0.235
1667,-0.365,-0.245
1668,-0.365,-0.225
1669,-0.355,-0.225
1670,-0.355,-0.215
1671,-0.345,-0.205
1672,-0.335,-0.205
1673,-0.335,-0.225
1674,-0.355,-0.205
1675,-0.305,-0.205
1676,-0.315,-0.205
1677,-0.315,-0.205
1678,-0.345,-0.155
1679,-0.305,-0.145
1680,-0.255,-0.165
1681,-0.255,-0.185
1682,-0.245,-0.215
1683,-0.215,-0.195
1684,-0.215,-0.145
1685,-0.245,-0.145
1686,-0.195,-0.135
1687,-0.095,-0.165
1688,-0.135,-0.225
1689,-0.265,-0.255
1690,-0.305,-0.285
1691,-0.365,-0.315
1692,-0.395,-0.315
1693,-0.405,-0.315
1694,-0.385,-0.325
1695,-0.395,-0.355
1696,-0.385,-0.365
1697,-0.375,-0.345
1698,-0.325,-0.315
1699,-0.385,-0.295
1700,-0.375,-0.205
1701,-0.365,0.215
1702,-0.555,0.955
1703,-0.065,0.885
1704,1.025,0.125
1705,1.855,-0.885
1706,1.495,-0.965
1707,-0.045,-0.625
1708,-0.655,-0.335
1709,-0.655,-0.275
1710,-0.475,-0.295
1711,-0.425,-0.265
1712,-0.355,-0.255
1713,-0.375,-0.255
1714,-0.385,-0.255
1715,-0.355,-0.235
1716,-0.325,-0.215
1717,-0.325,-0.215
1718,-0.315,-0.215
1719,-0.315,-0.185
1720,-0.295,-0.185
1721,-0.255,-0.165
1722,-0.265,-0.145
1723,-0.235,-0.125
1724,-0.265,-0.085
1725,-0.255,-0.055
1726,-0.205,-0.025
1727,-0.135,0.025
1728,-0.135,0.065
1729,-0.135,0.085
1730,-0.025,0.095
1731,0.045,0.115
1732,0.055,0.105
1733,0.055,0.075
1734,0.065,0.045
1735,0.045,0.005
1736,0.065,-0.045
1737,0.005,-0.105
1738,-0.075,-0.135
1739,-0.155,-0.175
1740,-0.205,-0.185
1741,-0.235,-0.205
1742,-0.335,-0.205
1743,-0.345,-0.215
1744,-0.235,-0.225
1745,-0.255,-0.225
1746,-0.265,-0.225
1747,-0.285,-0.215
1748,-0.235,-0.215
1749,-0.295,-0.225
1750,-0.315,-0.195
1751,-0.255,-0.195
1752,-0.275,-0.165
1753,-0.255,-0.175
1754,-0.255,-0.175
1755,-0.255,-0.145
1756,-0.195,-0.135
1757,-0.205,-0.165
1758,-0.215,-0.145
1759,-0.165,-0.145
1760,-0.155,-0.095
1761,-0.145,-0.075
1762,-0.015,-0.105
1763,-0.115,-0.145
1764,-0.125,-0.135
1765,-0.095,-0.095
1766,-0.095,-0.085
1767,-0.105,-0.075
1768,-0.035,-0.095
1769,-0.005,-0.155
1770,-0.075,-0.185
1771,-0.175,-0.205
1772,-0.255,-0.225
1773,-0.235,-0.235
1774,-0.225,-0.245
1775,-0.275,-0.225
1776,-0.235,-0.215
1777,-0.285,-0.215
1778,-0.285,-0.205
1779,-0.305,-0.185
1780,-0.265,-0.175
1781,-0.205,-0.135
1782,-0.215,0.135
1783,-0.425,0.805
1784,-0.115,1.065
1785,1.005,0.425
1786,2.005,-0.515
1787,2.125,-0.905
1788,0.405,-0.605
1789,-0.585,-0.275
1790,-0.555,-0.145
1791,-0.305,-0.145
1792,-0.265,-0.165
1793,-0.245,-0.165
1794,-0.235,-0.155
1795,-0.215,-0.165
1796,-0.205,-0.145
1797,-0.195,-0.135
1798,-0.195,-0.135
1799,-0.235,-0.115
1800,-0.175,-0.115
1801,-0.115,-0.095
1802,-0.125,-0.085
1803,-0.085,-0.055
1804,-0.085,-0.025
1805,-0.065,-0.025
1806,-0.085,0.005
1807,-0.075,0.025
1808,-0.035,0.085
1809,0.005,0.115
1810,0.065,0.145
1811,0.115,0.185
1812,0.185,0.175
1813,0.225,0.175
1814,0.225,0.145
1815,0.255,0.145
1816,0.255,0.105
1817,0.225,0.045
1818,0.135,-0.005
1819,0.145,-0.055
1820,0.065,-0.085
1821,-0.015,-0.115
1822,-0.045,-0.145
1823,-0.035,-0.145
1824,-0.045,-0.125
1825,-0.075,-0.155
1826,-0.055,-0.145
1827,-0.055,-0.135
1828,-0.045,-0.145
1829,-0.025,-0.145
1830,-0.035,-0.145
1831,-0.055,-0.125
1832,0.005,-0.115
1833,0.025,-0.105
1834,0.025,-0.105
1835,0.025,-0.095
1836,0.065,-0.095
1837,0.065,-0.105
1838,0.085,-0.095
1839,0.095,-0.085
1840,0.105,-0.085
1841,0.115,-0.085
1842,0.145,-0.075
1843,0.135,-0.035
1844,0.145,-0.015
1845,0.175,-0.025
1846,0.205,-0.075
1847,0.235,-0.095
1848,0.215,-0.055
1849,0.215,-0.025
1850,0.245,-0.035
1851,0.265,-0.035
1852,0.245,-0.075
1853,0.255,-0.105
1854,0.235,-0.125
1855,0.165,-0.145
1856,0.185,-0.165
1857,0.175,-0.165
1858,0.175,-0.155
1859,0.185,-0.165
1860,0.185,-0.145
1861,0.175,-0.085
1862,0.185,-0.055
1863,0.185,-0.035
1864,0.195,-0.005
1865,0.215,0.155
1866,0.155,0.685
1867,0.165,1.235
1868,0.525,0.805
1869,0.905,0.035
1870,1.045,-0.785
1871,0.625,-0.615
1872,0.105,-0.195
1873,0.055,-0.005
1874,0.135,-0.005
1875,0.135,-0.025
1876,0.145,-0.025
1877,0.155,-0.025
1878,0.145,-0.015
1879,0.135,-0.005
1880,0.145,0.005
1881,0.135,0.015
1882,0.145,0.015
1883,0.125,0.015
1884,0.115,0.035
1885,0.155,0.055
1886,0.135,0.065
1887,0.115,0.085
1888,0.115,0.095
1889,0.115,0.115
1890,0.105,0.145
1891,0.135,0.185
1892,0.155,0.225
1893,0.155,0.255
1894,0.155,0.295
1895,0.185,0.315
1896,0.205,0.305
1897,0.225,0.295
1898,0.235,0.275
1899,0.235,0.245
1900,0.255,0.185
1901,0.185,0.115
1902,0.145,0.065
1903,0.085,0.005
1904,0.035,-0.005
1905,-0.005,-0.035
1906,-0.075,-0.045
1907,-0.105,-0.065
1908,-0.115,-0.055
1909,-0.165,-0.065
1910,-0.155,-0.065
1911,-0.175,-0.065
1912,-0.185,-0.065
1913,-0.195,-0.075
1914,-0.185,-0.075
1915,-0.185,-0.055
1916,-0.195,-0.055
1917,-0.205,-0.055
1918,-0.195,-0.065
1919,-0.185,-0.045
1920,-0.165,-0.025
1921,-0.175,-0.025
1922,-0.225,-0.025
1923,-0.175,-0.025
1924,-0.175,-0.025
1925,-0.215,-0.035
1926,-0.175,-0.025
1927,-0.145,-0.045
1928,-0.165,-0.035
1929,-0.195,-0.045
1930,-0.165,-0.055
1931,-0.185,-0.015
1932,-0.185,0.025
1933,-0.155,0.025
1934,-0.065,-0.015
1935,-0.075,-0.035
1936,-0.085,-0.015
1937,-0.155,0.015
1938,-0.105,0.045
1939,-0.075,0.045
1940,-0.095,0.025
1941,-0.055,-0.055
1942,-0.075,-0.085
1943,-0.175,-0.085
1944,-0.205,-0.115
1945,-0.265,-0.115
1946,-0.335,-0.135
1947,-0.305,-0.125
1948,-0.295,-0.125
1949,-0.305,-0.125
1950,-0.285,-0.115
1951,-0.315,-0.095
1952,-0.295,-0.075
1953,-0.265,-0.035
1954,-0.275,0.265
1955,-0.395,0.975
1956,-0.095,1.105
1957,1.015,0.395
1958,1.845,-0.515
1959,1.935,-0.935
1960,0.335,-0.435
1961,-0.565,-0.105
1962,-0.565,-0.045
1963,-0.355,-0.075
1964,-0.295,-0.065
1965,-0.305,-0.065
1966,-0.295,-0.065
1967,-0.305,-0.055
1968,-0.265,-0.055
1969,-0.245,-0.045
1970,-0.235,-0.025
1971,-0.255,-0.025
1972,-0.245,-0.005
1973,-0.245,-0.005
1974,-0.225,0.025
1975,-0.175,0.045
1976,-0.185,0.055
1977,-0.175,0.085
1978,-0.155,0.105
1979,-0.125,0.125
1980,-0.125,0.185
1981,-0.085,0.225
1982,-0.025,0.265
1983,0.015,0.295
1984,0.035,0.295
1985,0.105,0.275
1986,0.135,0.265
1987,0.115,0.245
1988,0.145,0.195
1989,0.135,0.115
1990,0.085,0.055
1991,-0.015,0.015
1992,-0.015,-0.035
1993,-0.145,-0.075
1994,-0.205,-0.085
1995,-0.235,-0.105
1996,-0.275,-0.105
1997,-0.275,-0.125
1998,-0.315,-0.125
1999,-0.305,-0.105
2000,-0.285,-0.115
2001,-0.285,-0.115
2002,-0.265,-0.115
2003,-0.295,-0.115
2004,-0.285,-0.105
2005,-0.295,-0.105
2006,-0.315,-0.105
2007,-0.295,-0.105
2008,-0.295,-0.105
2009,-0.265,-0.105
2010,-0.275,-0.115
2011,-0.285,-0.095
2012,-0.265,-0.095
2013,-0.245,-0.095
2014,-0.235,-0.125
2015,-0.245,-0.115
2016,-0.195,-0.085
2017,-0.255,-0.105
2018,-0.275,-0.135
2019,-0.265,-0.115
2020,-0.275,-0.125
2021,-0.255,-0.135
2022,-0.235,-0.135
2023,-0.255,-0.135
2024,-0.285,-0.135
2025,-0.315,-0.145
2026,-0.275,-0.145
2027,-0.275,-0.155
2028,-0.255,-0.145
2029,-0.235,-0.155
2030,-0.295,-0.155
2031,-0.245,-0.115
2032,-0.305,-0.045
2033,-0.205,-0.055
2034,-0.125,-0.105
2035,-0.115,-0.125
2036,-0.165,-0.115
2037,-0.195,-0.075
2038,-0.145,-0.055
2039,-0.115,-0.075
2040,-0.135,-0.085
2041,-0.095,-0.145
2042,-0.155,-0.165
2043,-0.185,-0.175
2044,-0.275,-0.195
2045,-0.295,-0.215
2046,-0.345,-0.225
2047,-0.365,-0.205
2048,-0.345,-0.205
2049,-0.335,-0.195
2050,-0.315,-0.185
2051,-0.325,-0.185
2052,-0.285,-0.155
2053,-0.275,-0.065
2054,-0.355,0.415
2055,-0.425,1.065
2056,0.165,0.785
2057,1.405,0.005
2058,2.055,-0.895
2059,1.695,-0.845
2060,-0.175,-0.365
2061,-0.775,-0.125
2062,-0.535,-0.115
2063,-0.325,-0.135
2064,-0.345,-0.145
2065,-0.385,-0.145
2066,-0.305,-0.125
2067,-0.335,-0.125
2068,-0.315,-0.115
2069,-0.315,-0.105
2070,-0.305,-0.105
2071,-0.255,-0.085
2072,-0.255,-0.075
2073,-0.285,-0.065
2074,-0.295,-0.055
2075,-0.235,-0.015
2076,-0.215,-0.005
2077,-0.195,0.015
2078,-0.165,0.035
2079,-0.155,0.065
2080,-0.105,0.125
2081,-0.095,0.165
2082,-0.055,0.205
2083,0.005,0.235
2084,0.085,0.265
2085,0.095,0.245
2086,0.135,0.235
2087,0.205,0.225
2088,0.205,0.185
2089,0.165,0.125
2090,0.165,0.065
2091,0.105,-0.005
2092,0.025,-0.045
2093,-0.085,-0.095
2094,-0.115,-0.125
2095,-0.135,-0.145
2096,-0.165,-0.145
2097,-0.205,-0.155
2098,-0.215,-0.165
2099,-0.225,-0.155
2100,-0.225,-0.165
2101,-0.225,-0.165
2102,-0.245,-0.155
2103,-0.195,-0.155
2104,-0.205,-0.165
2105,-0.205,-0.175
2106,-0.175,-0.165
2107,-0.165,-0.155
2108,-0.185,-0.145
2109,-0.175,-0.165
2110,-0.185,-0.155
2111,-0.185,-0.155
2112,-0.175,-0.155
2113,-0.175,-0.165
2114,-0.145,-0.165
2115,-0.095,-0.165
2116,-0.145,-0.165
2117,-0.105,-0.165
2118,-0.105,-0.175
2119,-0.165,-0.175
2120,-0.135,-0.175
2121,-0.145,-0.185
2122,-0.095,-0.195
2123,-0.145,-0.205
2124,-0.145,-0.185
2125,-0.145,-0.195
2126,-0.185,-0.205
2127,-0.175,-0.195
2128,-0.165,-0.205
2129,-0.145,-0.215
2130,-0.125,-0.205
2131,-0.135,-0.185
2132,-0.145,-0.115
2133,-0.095,-0.105
2134,-0.035,-0.135
2135,-0.025,-0.175
2136,-0.015,-0.175
2137,-0.035,-0.135
2138,-0.065,-0.095
2139,0.005,-0.105
2140,0.025,-0.105
2141,0.035,-0.165
2142,-0.005,-0.205
2143,-0.065,-0.215
2144,-0.115,-0.245
2145,-0.145,-0.255
2146,-0.175,-0.245
2147,-0.205,-0.245
2148,-0.185,-0.235
2149,-0.195,-0.245
2150,-0.195,-0.235
2151,-0.155,-0.215
2152,-0.165,-0.195
2153,-0.145,-0.145
2154,-0.175,0.225
2155,-0.305,1.005
2156,0.045,1.035
2157,1.025,0.265
2158,1.785,-0.745
2159,1.835,-1.025
2160,0.545,-0.525
2161,-0.335,-0.195
2162,-0.375,-0.145
2163,-0.225,-0.165
2164,-0.145,-0.165
2165,-0.185,-0.165
2166,-0.205,-0.165
2167,-0.175,-0.165
2168,-0.145,-0.145
2169,-0.135,-0.145
2170,-0.125,-0.135
2171,-0.125,-0.105
2172,-0.125,-0.095
2173,-0.095,-0.095
2174,-0.075,-0.075
2175,-0.075,-0.035
2176,-0.075,-0.025
2177,-0.075,-0.005
2178,-0.025,0.025
2179,0.005,0.045
2180,0.015,0.085
2181,0.045,0.135
2182,0.085,0.185
2183,0.125,0.205
2184,0.185,0.245
2185,0.225,0.245
2186,0.265,0.225
2187,0.265,0.205
2188,0.275,0.195
2189,0.285,0.135
2190,0.265,0.065
2191,0.235,-0.015
2192,0.155,-0.075
2193,0.105,-0.135
2194,0.095,-0.165
2195,0.035,-0.175
2196,0.025,-0.175
2197,-0.025,-0.195
2198,-0.035,-0.205
2199,-0.005,-0.205
2200,-0.005,-0.195
2201,-0.015,-0.195
2202,0.015,-0.175
2203,-0.005,-0.185
2204,0.005,-0.175
2205,0.015,-0.175
2206,0.045,-0.175
2207,0.065,-0.175
2208,0.075,-0.165
2209,0.105,-0.165
2210,0.095,-0.165
2211,0.085,-0.165
2212,0.125,-0.155
2213,0.115,-0.155
2214,0.125,-0.165
2215,0.125,-0.165
2216,0.115,-0.165
2217,0.125,-0.175
2218,0.115,-0.175
2219,0.135,-0.185
2220,0.145,-0.185
2221,0.135,-0.185
2222,0.135,-0.195
2223,0.155,-0.195
2224,0.135,-0.195
2225,0.105,-0.195
2226,0.135,-0.195
2227,0.135,-0.205
2228,0.125,-0.195
2229,0.125,-0.195
2230,0.135,-0.205
2231,0.135,-0.205
2232,0.135,-0.185
2233,0.125,-0.185
2234,0.105,-0.115
2235,0.145,-0.105
2236,0.175,-0.135
2237,0.195,-0.165
2238,0.195,-0.175
2239,0.165,-0.115
2240,0.145,-0.065
2241,0.165,-0.095
2242,0.165,-0.085
2243,0.165,-0.135
2244,0.175,-0.195
2245,0.095,-0.205
2246,0.045,-0.225
2247,0.045,-0.235
2248,0.035,-0.225
2249,0.005,-0.245
2250,0.005,-0.235
2251,-0.025,-0.215
2252,0.005,-0.205
2253,-0.025,-0.195
2254,-0.025,-0.165
2255,-0.005,-0.015
2256,-0.075,0.615
2257,-0.125,1.195
2258,0.385,0.715
2259,1.255,-0.185
2260,1.745,-1.035
2261,1.045,-0.785
2262,-0.125,-0.315
2263,-0.325,-0.145
2264,-0.175,-0.155
2265,-0.105,-0.165
2266,-0.075,-0.155
2267,-0.095,-0.135
2268,-0.095,-0.145
2269,-0.085,-0.145
2270,-0.105,-0.155
2271,-0.125,-0.125
2272,-0.055,-0.105
2273,-0.075,-0.085
2274,-0.065,-0.075
2275,-0.055,-0.065
2276,-0.075,-0.045
2277,-0.075,-0.035
2278,-0.055,-0.005
2279,-0.015,0.025
2280,0.005,0.065
2281,-0.015,0.105
2282,0.035,0.145
2283,0.095,0.185
2284,0.115,0.225
2285,0.145,0.255
2286,0.235,0.255
2287,0.255,0.275
2288,0.255,0.255
2289,0.225,0.215
2290,0.205,0.175
2291,0.225,0.095
2292,0.185,0.025
2293,0.135,-0.045
2294,0.085,-0.105
2295,0.005,-0.135
2296,-0.065,-0.155
2297,-0.105,-0.175
2298,-0.105,-0.185
2299,-0.115,-0.175
2300,-0.185,-0.175
2301,-0.175,-0.195
2302,-0.215,-0.185
2303,-0.155,-0.165
2304,-0.175,-0.175
2305,-0.165,-0.175
2306,-0.165,-0.155
2307,-0.145,-0.155
2308,-0.135,-0.145
2309,-0.155,-0.155
2310,-0.105,-0.155
2311,-0.095,-0.135
2312,-0.105,-0.125
2313,-0.085,-0.135
2314,-0.125,-0.145
2315,-0.145,-0.145
2316,-0.135,-0.135
2317,-0.135,-0.155
2318,-0.135,-0.155
2319,-0.135,-0.165
2320,-0.095,-0.165
2321,-0.115,-0.165
2322,-0.145,-0.175
2323,-0.145,-0.185
2324,-0.125,-0.175
2325,-0.115,-0.175
2326,-0.155,-0.185
2327,-0.165,-0.165
2328,-0.145,-0.165
2329,-0.165,-0.175
2330,-0.155,-0.185
2331,-0.175,-0.125
2332,-0.145,-0.075
2333,-0.005,-0.105
2334,-0.005,-0.155
2335,-0.015,-0.165
2336,-0.005,-0.115
2337,-0.015,-0.075
2338,0.005,-0.085
2339,0.045,-0.095
2340,0.035,-0.145
2341,-0.045,-0.185
2342,-0.095,-0.185
2343,-0.115,-0.215
2344,-0.155,-0.245
2345,-0.195,-0.245
2346,-0.235,-0.245
2347,-0.215,-0.225
2348,-0.235,-0.195
2349,-0.235,-0.215
2350,-0.175,-0.215
2351,-0.175,-0.185
2352,-0.145,-0.095
2353,-0.215,0.355
2354,-0.425,1.145
2355,0.205,1.055
2356,1.265,0.185
2357,1.985,-0.955
2358,1.465,-0.925
2359,-0.165,-0.405
2360,-0.605,-0.145
2361,-0.395,-0.155
2362,-0.255,-0.175
2363,-0.265,-0.165
2364,-0.255,-0.165
2365,-0.215,-0.145
2366,-0.205,-0.155
2367,-0.225,-0.135
2368,-0.225,-0.125
2369,-0.185,-0.105
2370,-0.155,-0.085
2371,-0.205,-0.085
2372,-0.205,-0.065
2373,-0.165,-0.065
2374,-0.155,-0.055
2375,-0.125,-0.015
2376,-0.135,0.005
2377,-0.105,0.035
2378,-0.065,0.075
2379,-0.055,0.115
2380,0.025,0.165
2381,0.055,0.205
2382,0.085,0.265
2383,0.145,0.275
2384,0.185,0.285
2385,0.155,0.265
2386,0.225,0.245
2387,0.155,0.215
2388,0.175,0.155
2389,0.135,0.075
2390,0.125,0.005
2391,0.035,-0.055
2392,0.005,-0.095
2393,-0.075,-0.135
2394,-0.115,-0.155
2395,-0.145,-0.165
2396,-0.135,-0.165
2397,-0.155,-0.165
2398,-0.255,-0.165
2399,-0.215,-0.165
2400,-0.205,-0.165
2401,-0.185,-0.155
2402,-0.195,-0.135
2403,-0.185,-0.135
2404,-0.175,-0.125
2405,-0.155,-0.115
2406,-0.145,-0.115
2407,-0.115,-0.125
2408,-0.125,-0.125
2409,-0.135,-0.125
2410,-0.125,-0.145
2411,-0.115,-0.125
2412,-0.115,-0.135
2413,-0.235,-0.135
2414,-0.215,-0.155
2415,-0.125,-0.165
2416,-0.115,-0.165
2417,-0.165,-0.175
2418,-0.175,-0.185
2419,-0.135,-0.185
2420,-0.135,-0.185
2421,-0.165,-0.185
2422,-0.165,-0.185
2423,-0.145,-0.185
2424,-0.155,-0.135
2425,-0.135,-0.075
2426,-0.065,-0.125
2427,-0.085,-0.155
2428,-0.025,-0.155
2429,-0.055,-0.105
2430,-0.135,-0.055
2431,-0.035,-0.065
2432,0.045,-0.065
2433,0.055,-0.135
2434,0.025,-0.185
2435,-0.095,-0.185
2436,-0.115,-0.225
2437,-0.155,-0.225
2438,-0.205,-0.245
2439,-0.255,-0.235
2440,-0.225,-0.235
2441,-0.215,-0.225
2442,-0.165,-0.195
2443,-0.195,-0.185
2444,-0.225,-0.165
2445,-0.225,-0.075
2446,-0.225,0.425
2447,-0.385,1.215
2448,0.085,1.115
2449,1.195,0.265
2450,1.975,-0.925
2451,1.505,-0.965
2452,0.035,-0.485
2453,-0.595,-0.165
2454,-0.465,-0.135
2455,-0.285,-0.165
2456,-0.235,-0.155
2457,-0.245,-0.165
2458,-0.245,-0.145
2459,-0.255,-0.145
2460,-0.265,-0.135
2461,-0.275,-0.115
2462,-0.215,-0.115
2463,-0.155,-0.085
2464,-0.195,-0.065
2465,-0.235,-0.065
2466,-0.125,-0.045
2467,-0.125,-0.015
2468,-0.205,-0.005
2469,-0.125,0.025
2470,-0.075,0.025
2471,-0.065,0.105
2472,-0.035,0.125
2473,-0.025,0.195
2474,-0.045,0.225
2475,0.055,0.265
2476,0.085,0.305
2477,0.125,0.315
2478,0.195,0.345
2479,0.195,0.345
2480,0.155,0.325
2481,0.175,0.245
2482,0.145,0.175
2483,0.115,0.115
2484,0.055,0.025
2485,-0.015,0.005
2486,-0.055,-0.035
2487,-0.115,-0.055
2488,-0.185,-0.045
2489,-0.125,-0.065
2490,-0.165,-0.085
2491,-0.185,-0.075
2492,-0.215,-0.065
2493,-0.305,-0.065
2494,-0.225,-0.055
2495,-0.125,-0.045
2496,-0.095,-0.005
2497,-0.135,-0.005
2498,-0.185,-0.015
2499,-0.195,-0.015
2500,-0.145,-0.035
2501,-0.095,-0.025
2502,-0.085,-0.045
2503,-0.125,-0.025
2504,-0.145,-0.045
2505,-0.105,-0.065
2506,-0.115,-0.065
2507,-0.095,-0.075
2508,-0.125,-0.075
2509,-0.145,-0.085
2510,-0.125,-0.095
2511,-0.135,-0.085
2512,-0.095,-0.095
2513,-0.125,-0.095
2514,-0.135,-0.065
2515,-0.145,-0.025
2516,-0.015,-0.035
2517,0.005,-0.075
2518,0.035,-0.115
2519,0.015,-0.065
2520,-0.015,-0.025
2521,-0.015,-0.035
2522,0.085,-0.065
2523,0.085,-0.125
2524,0.025,-0.175
2525,-0.005,-0.215
2526,-0.085,-0.305
2527,-0.205,-0.315
2528,-0.165,-0.285
2529,-0.155,-0.295
2530,-0.155,-0.275
2531,-0.165,-0.245
2532,-0.195,-0.255
2533,-0.235,-0.255
2534,-0.155,-0.235
2535,-0.145,-0.165
2536,-0.195,0.295
2537,-0.385,1.135
2538,0.135,1.095
2539,1.145,0.315
2540,1.985,-0.925
2541,1.655,-1.055
2542,0.125,-0.605
2543,-0.515,-0.275
2544,-0.395,-0.225
2545,-0.255,-0.285
2546,-0.225,-0.275
2547,-0.225,-0.275
2548,-0.165,-0.265
2549,-0.185,-0.255
2550,-0.185,-0.245
2551,-0.215,-0.255
2552,-0.175,-0.225
2553,-0.175,-0.245
2554,-0.175,-0.215
2555,-0.205,-0.215
2556,-0.075,-0.195
2557,-0.135,-0.195
2558,-0.175,-0.145
2559,-0.105,-0.085
2560,-0.005,-0.115
2561,-0.035,-0.065
2562,-0.225,0.005
2563,0.065,0.095
2564,0.155,0.105
2565,0.115,0.115
2566,0.095,0.105
2567,0.105,0.115
2568,0.135,0.125
2569,0.145,0.085
2570,0.155,0.025
2571,0.145,-0.035
2572,0.115,-0.105
2573,0.075,-0.155
2574,0.005,-0.225
2575,-0.055,-0.225
2576,-0.105,-0.265
2577,-0.145,-0.265
2578,-0.205,-0.275
2579,-0.165,-0.275
2580,-0.185,-0.275
2581,-0.215,-0.305
2582,-0.195,-0.285
2583,-0.185,-0.265
2584,-0.245,-0.255
2585,-0.175,-0.235
2586,-0.135,-0.225
2587,-0.135,-0.225
2588,-0.175,-0.235
2589,-0.145,-0.225
2590,-0.135,-0.215
2591,-0.135,-0.215
2592,-0.165,-0.245
2593,-0.185,-0.235
2594,-0.205,-0.235
2595,-0.215,-0.235
2596,-0.155,-0.245
2597,-0.195,-0.235
2598,-0.185,-0.235
2599,-0.195,-0.205
2600,-0.215,-0.125
2601,-0.165,-0.155
2602,-0.115,-0.195
2603,-0.115,-0.235
2604,-0.125,-0.185
2605,-0.145,-0.145
2606,-0.125,-0.125
2607,-0.115,-0.115
2608,-0.075,-0.155
2609,-0.075,-0.205
2610,-0.145,-0.255
2611,-0.225,-0.285
2612,-0.255,-0.295
2613,-0.305,-0.295
2614,-0.395,-0.305
2615,-0.325,-0.295
2616,-0.315,-0.275
2617,-0.325,-0.285
2618,-0.355,-0.285
2619,-0.315,-0.255
2620,-0.295,-0.215
2621,-0.275,0.005
2622,-0.395,0.655
2623,-0.345,1.235
2624,0.385,0.705
2625,1.355,-0.325
2626,1.795,-1.105
2627,0.745,-0.785
2628,-0.375,-0.345
2629,-0.575,-0.205
2630,-0.435,-0.225
2631,-0.325,-0.235
2632,-0.345,-0.195
2633,-0.305,-0.205
2634,-0.245,-0.195
2635,-0.275,-0.185
2636,-0.275,-0.175
2637,-0.205,-0.155
2638,-0.215,-0.135
2639,-0.175,-0.145
2640,-0.145,-0.105
2641,-0.165,-0.095
2642,-0.145,-0.095
2643,-0.115,-0.065
2644,-0.155,-0.005
2645,-0.045,0.015
2646,-0.025,0.045
2647,-0.045,0.095
2648,-0.005,0.145
2649,0.015,0.165
2650,0.045,0.215
2651,0.095,0.245
2652,0.115,0.235
2653,0.145,0.225
2654,0.155,0.195
2655,0.125,0.175
2656,0.155,0.115
2657,0.135,0.025
2658,0.105,-0.035
2659,0.085,-0.085
2660,-0.005,-0.125
2661,-0.045,-0.145
2662,-0.025,-0.165
2663,-0.045,-0.165
2664,-0.055,-0.165
2665,-0.095,-0.185
2666,-0.095,-0.175
2667,-0.095,-0.165
2668,-0.115,-0.145
2669,-0.115,-0.145
2670,-0.125,-0.145
2671,-0.105,-0.135
2672,-0.075,-0.125
2673,-0.075,-0.145
2674,-0.145,-0.125
2675,-0.085,-0.135
2676,-0.075,-0.105
2677,-0.105,-0.125
2678,-0.095,-0.145
2679,-0.135,-0.135
2680,-0.115,-0.135
2681,-0.105,-0.125
2682,-0.145,-0.065
2683,-0.145,-0.055
2684,-0.035,-0.095
2685,0.005,-0.115
2686,-0.045,-0.135
2687,-0.105,-0.095
2688,-0.075,-0.025
2689,-0.015,-0.055
2690,-0.005,-0.055
2691,0.005,-0.135
2692,-0.035,-0.165
2693,-0.115,-0.185
2694,-0.165,-0.215
2695,-0.215,-0.235
2696,-0.285,-0.205
2697,-0.245,-0.215
2698,-0.215,-0.215
2699,-0.255,-0.215
2700,-0.235,-0.205
2701,-0.235,-0.185
2702,-0.235,-0.155
2703,-0.205,-0.075
2704,-0.265,0.455
2705,-0.435,1.215
2706,0.175,1.005
2707,1.255,0.205
2708,1.975,-0.875
2709,1.425,-0.885
2710,-0.095,-0.405
2711,-0.545,-0.145
2712,-0.435,-0.115
2713,-0.305,-0.165
2714,-0.255,-0.165
2715,-0.355,-0.135
2716,-0.265,-0.125
2717,-0.215,-0.125
2718,-0.195,-0.135
2719,-0.255,-0.115
2720,-0.265,-0.105
2721,-0.195,-0.085
2722,-0.225,-0.075
2723,-0.215,-0.065
2724,-0.165,-0.055
2725,-0.175,-0.035
2726,-0.165,-0.005
2727,-0.145,0.015
2728,-0.175,0.075
2729,-0.115,0.125
2730,-0.055,0.165
2731,-0.015,0.185
2732,-0.025,0.235
2733,0.015,0.255
2734,0.105,0.255
2735,0.135,0.245
2736,0.105,0.245
2737,0.125,0.215
2738,0.155,0.165
2739,0.065,0.105
2740,0.055,0.035
2741,0.035,-0.005
2742,0.055,-0.065
2743,-0.075,-0.085
2744,-0.135,-0.115
2745,-0.145,-0.145
2746,-0.195,-0.135
2747,-0.185,-0.125
2748,-0.175,-0.135
2749,-0.225,-0.115
2750,-0.185,-0.135
2751,-0.175,-0.135
2752,-0.165,-0.095
2753,-0.155,-0.105
2754,-0.135,-0.105
2755,-0.105,-0.105
2756,-0.115,-0.095
2757,-0.105,-0.075
2758,-0.085,-0.105
2759,-0.095,-0.105
2760,-0.105,-0.085
2761,-0.095,-0.085
2762,-0.055,-0.055
2763,-0.075,-0.015
2764,-0.025,-0.015
2765,0.035,-0.065
2766,0.025,-0.105
2767,0.005,-0.095
2768,0.015,-0.015
2769,0.015,-0.015
2770,0.075,-0.025
2771,0.095,-0.035
2772,0.055,-0.135
2773,0.035,-0.155
2774,-0.065,-0.165
2775,-0.105,-0.195
2776,-0.145,-0.185
2777,-0.165,-0.185
2778,-0.165,-0.185
2779,-0.115,-0.185
2780,-0.125,-0.175
2781,-0.145,-0.165
2782,-0.095,-0.165
2783,-0.095,-0.135
2784,-0.145,-0.075
2785,-0.135,0.455
2786,-0.195,1.235
2787,0.255,1.095
2788,1.075,0.365
2789,1.585,-0.785
2790,1.325,-0.895
2791,0.295,-0.445
2792,-0.125,-0.135
2793,-0.085,-0.135
2794,0.025,-0.155
2795,0.055,-0.155
2796,0.105,-0.135
2797,0.135,-0.145
2798,0.145,-0.135
2799,0.165,-0.135
2800,0.185,-0.085
2801,0.205,-0.115
2802,0.225,-0.075
2803,0.245,-0.105
2804,0.255,-0.055
2805,0.275,-0.035
2806,0.265,-0.035
2807,0.295,0.005
2808,0.305,0.035
2809,0.305,0.065
2810,0.305,0.115
2811,0.335,0.145
2812,0.345,0.195
2813,0.345,0.225
2814,0.355,0.225
2815,0.355,0.245
2816,0.375,0.245
2817,0.365,0.205
2818,0.365,0.205
2819,0.375,0.165
2820,0.385,0.115
2821,0.375,0.025
2822,0.365,-0.035
2823,0.355,-0.065
2824,0.365,-0.085
2825,0.365,-0.135
2826,0.355,-0.145
2827,0.355,-0.155
2828,0.355,-0.125
2829,0.345,-0.135
2830,0.355,-0.125
2831,0.355,-0.125
2832,0.365,-0.105
2833,0.355,-0.115
2834,0.355,-0.115
2835,0.355,-0.095
2836,0.355,-0.085
2837,0.365,-0.095
2838,0.355,-0.105
2839,0.355,-0.105
2840,0.355,-0.095
2841,0.355,-0.065
2842,0.355,-0.025
2843,0.355,-0.015
2844,0.355,-0.045
2845,0.355,-0.105
2846,0.355,-0.095
2847,0.345,-0.045
2848,0.345,-0.025
2849,0.355,-0.045
2850,0.345,-0.075
2851,0.335,-0.145
2852,0.335,-0.145
2853,0.325,-0.145
2854,0.325,-0.205
2855,0.315,-0.225
2856,0.305,-0.215
2857,0.295,-0.225
2858,0.295,-0.215
2859,0.285,-0.205
2860,0.295,-0.205
2861,0.295,-0.165
2862,0.285,-0.125
2863,0.315,-0.045
2864,0.245,0.635
2865,0.235,1.255
2866,0.365,0.885
2867,0.565,0.025
2868,0.685,-0.965
2869,0.505,-0.765
2870,0.245,-0.295
2871,0.165,-0.105
2872,0.205,-0.145
2873,0.225,-0.165
2874,0.215,-0.125
2875,0.195,-0.135
2876,0.185,-0.115
2877,0.165,-0.105
2878,0.185,-0.105
2879,0.165,-0.115
2880,0.185,-0.095
2881,0.165,-0.065
2882,0.145,-0.055
2883,0.145,-0.035
2884,0.145,-0.025
2885,0.145,0.005
2886,0.085,0.025
2887,0.115,0.055
2888,0.135,0.045
2889,0.125,0.105
2890,0.115,0.175
2891,0.165,0.205
2892,0.165,0.225
2893,0.175,0.245
2894,0.185,0.235
2895,0.185,0.215
2896,0.145,0.205
2897,0.175,0.165
2898,0.215,0.125
2899,0.145,0.085
2900,0.185,0.025
2901,0.105,-0.045
2902,0.005,-0.065
2903,-0.035,-0.075
2904,0.055,-0.085
2905,-0.065,-0.135
2906,-0.095,-0.135
2907,-0.145,-0.125
2908,-0.105,-0.135
2909,-0.095,-0.135
2910,-0.105,-0.125
2911,-0.085,-0.125
2912,-0.135,-0.085
2913,-0.155,-0.115
2914,-0.125,-0.115
2915,-0.095,-0.105
2916,-0.095,-0.105
2917,-0.125,-0.125
2918,-0.145,-0.095
2919,-0.225,-0.085
2920,-0.085,-0.025
2921,-0.055,-0.035
2922,-0.065,-0.075
2923,-0.075,-0.095
2924,-0.025,-0.095
2925,-0.055,-0.095
2926,-0.085,-0.055
2927,-0.075,-0.075
2928,-0.055,-0.065
2929,-0.055,-0.125
2930,-0.055,-0.165
2931,-0.125,-0.175
2932,-0.215,-0.195
2933,-0.225,-0.225
2934,-0.265,-0.235
2935,-0.285,-0.225
2936,-0.325,-0.195
2937,-0.335,-0.205
2938,-0.325,-0.195
2939,-0.245,-0.185
2940,-0.225,-0.175
2941,-0.255,-0.135
2942,-0.305,0.345
2943,-0.475,1.135
2944,0.005,1.045
2945,1.035,0.285
2946,1.795,-0.835
2947,1.395,-0.825
2948,0.035,-0.385
2949,-0.485,-0.155
2950,-0.395,-0.155
2951,-0.305,-0.165
2952,-0.295,-0.175
2953,-0.265,-0.185
2954,-0.265,-0.185
2955,-0.265,-0.165
2956,-0.235,-0.135
2957,-0.235,-0.135
2958,-0.205,-0.125
2959,-0.225,-0.105
2960,-0.265,-0.085
2961,-0.205,-0.075
2962,-0.175,-0.055
2963,-0.175,-0.025
2964,-0.205,-0.005
2965,-0.185,0.025
2966,-0.145,0.045
2967,-0.155,0.085
2968,-0.115,0.135
2969,-0.135,0.155
2970,-0.095,0.185
2971,-0.055,0.195
2972,-0.025,0.215
2973,-0.005,0.205
2974,-0.025,0.175
2975,-0.015,0.155
2976,0.005,0.125
2977,-0.005,0.065
2978,-0.055,-0.005
2979,-0.125,-0.025
2980,-0.155,-0.005
2981,-0.165,0.035
2982,-0.225,0.015
2983,-0.265,0.015
2984,-0.285,0.025
2985,-0.325,0.025
2986,-0.355,0.015
2987,-0.365,0.035
2988,-0.295,0.025
2989,-0.305,0.045
2990,-0.305,-0.005
2991,-0.305,0.005
2992,-0.305,0.045
2993,-0.315,0.045
2994,-0.295,0.025
2995,-0.315,0.035
2996,-0.265,0.045
2997,-0.265,0.055
2998,-0.275,0.105
2999,-0.225,0.115
3000,-0.185,0.065
3001,-0.195,0.035
3002,-0.195,0.025
3003,-0.165,0.065
3004,-0.175,0.085
3005,-0.165,0.065
3006,-0.165,0.045
3007,-0.155,-0.005
3008,-0.205,-0.035
3009,-0.255,-0.065
3010,-0.325,-0.095
3011,-0.345,-0.105
3012,-0.365,-0.105
3013,-0.435,-0.105
3014,-0.355,-0.105
3015,-0.355,-0.105
3016,-0.365,-0.095
3017,-0.355,-0.085
3018,-0.375,-0.085
3019,-0.355,-0.005
3020,-0.455,0.685
3021,-0.515,1.405
3022,0.135,0.975
3023,1.105,0.065
3024,1.545,-0.905
3025,0.705,-0.695
3026,-0.355,-0.235
3027,-0.605,-0.065
3028,-0.505,-0.065
3029,-0.465,-0.095
3030,-0.405,-0.105
3031,-0.425,-0.105
3032,-0.425,-0.075
3033,-0.395,-0.065
3034,-0.405,-0.065
3035,-0.465,-0.055
3036,-0.435,-0.035
3037,-0.405,-0.045
3038,-0.415,-0.045
3039,-0.425,-0.015
3040,-0.425,0.005
3041,-0.405,0.015
3042,-0.425,0.045
3043,-0.385,0.075
3044,-0.395,0.085
3045,-0.365,0.135
3046,-0.355,0.165
3047,-0.315,0.205
3048,-0.275,0.235
3049,-0.225,0.215
3050,-0.225,0.205
3051,-0.235,0.205
3052,-0.205,0.185
3053,-0.195,0.155
3054,-0.185,0.115
3055,-0.215,0.065
3056,-0.275,0.005
3057,-0.295,-0.045
3058,-0.375,-0.085
3059,-0.465,-0.105
3060,-0.445,-0.125
3061,-0.445,-0.135
3062,-0.455,-0.135
3063,-0.475,-0.145
3064,-0.485,-0.125
3065,-0.505,-0.135
3066,-0.475,-0.135
3067,-0.475,-0.115
3068,-0.475,-0.095
3069,-0.435,-0.095
3070,-0.405,-0.095
3071,-0.435,-0.095
3072,-0.355,-0.085
3073,-0.405,-0.095
3074,-0.385,-0.045
3075,-0.365,-0.005
3076,-0.315,-0.035
3077,-0.275,-0.055
3078,-0.255,-0.105
3079,-0.265,-0.075
3080,-0.355,-0.015
3081,-0.255,-0.025
3082,-0.235,-0.045
3083,-0.215,-0.065
3084,-0.195,-0.115
3085,-0.375,-0.155
3086,-0.355,-0.175
3087,-0.395,-0.195
3088,-0.475,-0.195
3089,-0.475,-0.205
3090,-0.445,-0.215
3091,-0.455,-0.195
3092,-0.465,-0.195
3093,-0.435,-0.195
3094,-0.435,-0.165
3095,-0.445,-0.165
3096,-0.415,-0.055
3097,-0.555,0.605
3098,-0.635,1.255
3099,0.295,0.825
3100,1.505,-0.055
3101,1.995,-0.955
3102,0.765,-0.735
3103,-0.605,-0.295
3104,-0.725,-0.135
3105,-0.485,-0.145
3106,-0.375,-0.165
3107,-0.405,-0.165
3108,-0.435,-0.135
3109,-0.395,-0.145
3110,-0.365,-0.135
3111,-0.355,-0.125
3112,-0.375,-0.105
3113,-0.335,-0.105
3114,-0.345,-0.085
3115,-0.305,-0.075
3116,-0.325,-0.055
3117,-0.265,-0.055
3118,-0.295,-0.035
3119,-0.215,0.025
3120,-0.225,0.055
3121,-0.215,0.065
3122,-0.225,0.085
3123,-0.165,0.135
3124,-0.095,0.175
3125,-0.095,0.175
3126,-0.065,0.185
3127,-0.045,0.175
3128,0.015,0.175
3129,-0.015,0.145
3130,-0.015,0.105
3131,0.005,0.065
3132,-0.005,0.005
3133,-0.085,-0.045
3134,-0.115,-0.095
3135,-0.155,-0.135
3136,-0.215,-0.155
3137,-0.215,-0.165
3138,-0.255,-0.185
3139,-0.275,-0.185
3140,-0.275,-0.175
3141,-0.285,-0.185
3142,-0.315,-0.175
3143,-0.295,-0.175
3144,-0.265,-0.165
3145,-0.255,-0.155
3146,-0.215,-0.145
3147,-0.195,-0.145
3148,-0.215,-0.135
3149,-0.235,-0.145
3150,-0.185,-0.125
3151,-0.205,-0.075
3152,-0.145,-0.075
3153,-0.095,-0.125
3154,-0.075,-0.145
3155,-0.085,-0.155
3156,-0.115,-0.105
3157,-0.115,-0.085
3158,-0.105,-0.105
3159,-0.045,-0.105
3160,-0.075,-0.155
3161,-0.085,-0.195
3162,-0.175,-0.225
3163,-0.205,-0.265
3164,-0.235,-0.275
3165,-0.265,-0.285
3166,-0.315,-0.285
3167,-0.345,-0.265
3168,-0.295,-0.275
3169,-0.305,-0.285
3170,-0.335,-0.275
3171,-0.295,-0.255
3172,-0.355,-0.255
3173,-0.275,0.025
3174,-0.445,0.825
3175,-0.345,1.105
3176,0.775,0.475
3177,1.745,-0.555
3178,1.865,-1.045
3179,0.425,-0.685
3180,-0.515,-0.295
3181,-0.555,-0.225
3182,-0.365,-0.245
3183,-0.335,-0.245
3184,-0.315,-0.235
3185,-0.325,-0.225
3186,-0.315,-0.245
3187,-0.345,-0.215
3188,-0.325,-0.185
3189,-0.235,-0.195
3190,-0.255,-0.195
3191,-0.265,-0.185
3192,-0.245,-0.155
3193,-0.225,-0.135
3194,-0.225,-0.125
3195,-0.205,-0.105
3196,-0.215,-0.075
3197,-0.185,-0.055
3198,-0.165,-0.025
3199,-0.145,0.015
3200,-0.085,0.065
3201,0.005,0.065
3202,0.005,0.105
3203,-0.005,0.105
3204,0.035,0.095
3205,0.045,0.065
3206,0.095,0.045
3207,0.055,0.005
3208,0.075,-0.055
3209,0.025,-0.115
3210,-0.015,-0.155
3211,-0.105,-0.185
3212,-0.125,-0.225
3213,-0.085,-0.235
3214,-0.135,-0.255
3215,-0.195,-0.245
3216,-0.155,-0.235
3217,-0.155,-0.245
3218,-0.185,-0.235
3219,-0.165,-0.245
3220,-0.115,-0.215
3221,-0.135,-0.215
3222,-0.155,-0.215
3223,-0.125,-0.195
3224,-0.095,-0.195
3225,-0.085,-0.205
3226,-0.085,-0.205
3227,-0.085,-0.175
3228,-0.085,-0.125
3229,-0.055,-0.115
3230,0.005,-0.155
3231,-0.005,-0.185
3232,-0.005,-0.185
3233,-0.005,-0.145
3234,0.005,-0.105
3235,0.035,-0.135
3236,0.005,-0.125
3237,0.025,-0.195
3238,-0.015,-0.235
3239,-0.055,-0.245
3240,-0.115,-0.275
3241,-0.155,-0.295
3242,-0.205,-0.295
3243,-0.245,-0.285
3244,-0.195,-0.285
3245,-0.205,-0.285
3246,-0.205,-0.275
3247,-0.205,-0.255
3248,-0.225,-0.245
3249,-0.125,-0.185
3250,-0.235,0.455
3251,-0.375,1.205
3252,0.245,0.845
3253,1.315,-0.095
3254,1.835,-1.035
3255,1.005,-0.845
3256,-0.085,-0.405
3257,-0.395,-0.205
3258,-0.255,-0.215
3259,-0.185,-0.225
3260,-0.115,-0.215
3261,-0.135,-0.215
3262,-0.115,-0.205
3263,-0.105,-0.205
3264,-0.125,-0.195
3265,-0.095,-0.185
3266,-0.095,-0.185
3267,-0.085,-0.165
3268,-0.055,-0.145
3269,-0.065,-0.135
3270,-0.055,-0.105
3271,-0.065,-0.095
3272,-0.045,-0.075
3273,-0.015,-0.055
3274,-0.005,-0.005
3275,-0.025,0.035
3276,0.015,0.075
3277,0.035,0.095
3278,0.045,0.125
3279,0.085,0.145
3280,0.125,0.165
3281,0.095,0.145
3282,0.145,0.135
3283,0.145,0.125
3284,0.155,0.085
3285,0.145,0.005
3286,0.115,-0.045
3287,0.085,-0.085
3288,0.005,-0.125
3289,-0.055,-0.165
3290,-0.075,-0.175
3291,-0.075,-0.185
3292,-0.125,-0.205
3293,-0.145,-0.215
3294,-0.175,-0.225
3295,-0.165,-0.195
3296,-0.145,-0.185
3297,-0.145,-0.195
3298,-0.165,-0.185
3299,-0.115,-0.165
3300,-0.085,-0.165
3301,-0.115,-0.155
3302,-0.135,-0.155
3303,-0.125,-0.145
3304,-0.055,-0.135
3305,-0.115,-0.095
3306,-0.135,-0.055
3307,-0.005,-0.095
3308,0.025,-0.115
3309,-0.005,-0.165
3310,-0.025,-0.105
3311,-0.045,-0.075
3312,-0.045,-0.085
3313,0.045,-0.085
3314,0.025,-0.115
3315,0.025,-0.185
3316,-0.065,-0.205
3317,-0.095,-0.225
3318,-0.205,-0.235
3319,-0.225,-0.255
3320,-0.225,-0.265
3321,-0.225,-0.255
3322,-0.255,-0.245
3323,-0.285,-0.225
3324,-0.245,-0.215
3325,-0.285,-0.205
3326,-0.145,-0.245
3327,-0.195,0.065
3328,-0.435,0.995
3329,-0.075,1.195
3330,1.075,0.515
3331,2.015,-0.685
3332,1.725,-0.965
3333,0.095,-0.545
3334,-0.555,-0.215
3335,-0.415,-0.155
3336,-0.235,-0.155
3337,-0.215,-0.175
3338,-0.205,-0.175
3339,-0.235,-0.165
3340,-0.225,-0.155
3341,-0.205,-0.165
3342,-0.225,-0.145
3343,-0.155,-0.135
3344,-0.165,-0.105
3345,-0.145,-0.105
3346,-0.115,-0.085
3347,-0.125,-0.065
3348,-0.125,-0.025
3349,-0.145,-0.025
3350,-0.095,0.005
3351,-0.065,0.055
3352,-0.075,0.075
3353,0.015,0.125
3354,0.035,0.145
3355,0.055,0.195
3356,0.085,0.185
3357,0.105,0.165
3358,0.105,0.175
3359,0.135,0.145
3360,0.145,0.125
3361,0.115,0.065
3362,0.105,0.005
3363,0.065,-0.045
3364,-0.005,-0.055
3365,-0.055,-0.115
3366,-0.095,-0.135
3367,-0.105,-0.145
3368,-0.105,-0.155
3369,-0.135,-0.165
3370,-0.175,-0.165
3371,-0.205,-0.165
3372,-0.175,-0.155
3373,-0.115,-0.155
3374,-0.135,-0.145
3375,-0.175,-0.135
3376,-0.165,-0.125
3377,-0.115,-0.135
3378,-0.145,-0.125
3379,-0.115,-0.135
3380,-0.105,-0.125
3381,-0.105,-0.105
3382,-0.135,-0.095
3383,-0.095,-0.055
3384,-0.025,-0.055
3385,-0.025,-0.075
3386,0.015,-0.115
3387,-0.015,-0.135
3388,-0.075,-0.065
3389,-0.065,-0.055
3390,-0.005,-0.075
3391,0.045,-0.085
3392,0.055,-0.145
3393,-0.015,-0.185
3394,-0.105,-0.205
3395,-0.155,-0.225
3396,-0.215,-0.235
3397,-0.265,-0.235
3398,-0.205,-0.235
3399,-0.205,-0.225
3400,-0.265,-0.215
3401,-0.255,-0.225
3402,-0.215,-0.215
3403,-0.205,-0.185
3404,-0.155,-0.165
3405,-0.235,0.285
3406,-0.445,1.195
3407,0.085,1.135
3408,1.225,0.375
3409,2.045,-0.825
3410,1.615,-0.945
3411,0.115,-0.505
3412,-0.505,-0.185
3413,-0.405,-0.155
3414,-0.285,-0.165
3415,-0.255,-0.165
3416,-0.175,-0.165
3417,-0.195,-0.155
3418,-0.215,-0.135
3419,-0.215,-0.125
3420,-0.195,-0.135
3421,-0.205,-0.135
3422,-0.185,-0.115
3423,-0.145,-0.105
3424,-0.145,-0.075
3425,-0.125,-0.075
3426,-0.105,-0.055
3427,-0.095,-0.025
3428,-0.125,-0.005
3429,-0.095,0.035
3430,-0.045,0.075
3431,-0.005,0.115
3432,-0.005,0.155
3433,0.045,0.175
3434,0.095,0.195
3435,0.065,0.185
3436,0.095,0.195
3437,0.105,0.175
3438,0.145,0.155
3439,0.175,0.095
3440,0.115,0.045
3441,0.085,-0.015
3442,0.035,-0.065
3443,-0.065,-0.095
3444,-0.045,-0.125
3445,-0.095,-0.145
3446,-0.165,-0.165
3447,-0.135,-0.165
3448,-0.155,-0.165
3449,-0.165,-0.175
3450,-0.155,-0.175
3451,-0.175,-0.155
3452,-0.115,-0.145
3453,-0.115,-0.135
3454,-0.185,-0.135
3455,-0.165,-0.125
3456,-0.085,-0.125
3457,-0.105,-0.125
3458,-0.125,-0.135
3459,-0.105,-0.115
3460,-0.085,-0.105
3461,-0.115,-0.135
3462,-0.155,-0.115
3463,-0.105,-0.085
3464,-0.065,-0.045
3465,-0.025,-0.075
3466,-0.015,-0.105
3467,-0.015,-0.125
3468,-0.045,-0.095
3469,-0.115,-0.055
3470,-0.005,-0.055
3471,0.025,-0.065
3472,0.055,-0.105
3473,-0.045,-0.175
3474,-0.095,-0.185
3475,-0.135,-0.195
3476,-0.175,-0.235
3477,-0.275,-0.225
3478,-0.295,-0.205
3479,-0.275,-0.235
3480,-0.235,-0.205
3481,-0.255,-0.215
3482,-0.255,-0.215
3483,-0.265,-0.195
3484,-0.255,-0.175
3485,-0.245,-0.015
3486,-0.405,0.675
3487,-0.365,1.315
3488,0.745,0.805
3489,1.835,-0.165
3490,2.105,-1.015
3491,0.685,-0.765
3492,-0.535,-0.335
3493,-0.625,-0.165
3494,-0.415,-0.175
3495,-0.285,-0.185
3496,-0.315,-0.185
3497,-0.305,-0.165
3498,-0.295,-0.165
3499,-0.255,-0.155
3500,-0.255,-0.145
3501,-0.195,-0.135
3502,-0.225,-0.125
3503,-0.235,-0.105
3504,-0.275,-0.095
3505,-0.275,-0.095
3506,-0.175,-0.065
3507,-0.135,-0.045
3508,-0.165,-0.045
3509,-0.165,-0.015
3510,-0.155,0.025
3511,-0.115,0.075
3512,-0.045,0.085
3513,-0.015,0.135
3514,0.035,0.165
3515,0.085,0.155
3516,0.045,0.155
3517,0.055,0.135
3518,0.115,0.105
3519,0.105,0.105
3520,0.115,0.025
3521,0.075,-0.025
3522,-0.005,-0.065
3523,-0.065,-0.115
3524,-0.085,-0.155
3525,-0.095,-0.155
3526,-0.175,-0.175
3527,-0.155,-0.185
3528,-0.205,-0.185
3529,-0.205,-0.195
3530,-0.135,-0.195
3531,-0.135,-0.185
3532,-0.165,-0.165
3533,-0.175,-0.155
3534,-0.185,-0.155
3535,-0.105,-0.135
3536,-0.095,-0.135
3537,-0.105,-0.125
3538,-0.105,-0.135
3539,-0.105,-0.135
3540,-0.065,-0.135
3541,-0.065,-0.145
3542,-0.065,-0.145
3543,-0.095,-0.135
3544,-0.095,-0.115
3545,-0.115,-0.095
3546,-0.075,-0.075
3547,-0.005,-0.085
3548,-0.005,-0.135
3549,0.045,-0.145
3550,-0.005,-0.085
3551,0.005,-0.055
3552,0.085,-0.075
3553,0.055,-0.075
3554,0.055,-0.145
3555,0.035,-0.155
3556,-0.065,-0.185
3557,-0.105,-0.235
3558,-0.155,-0.255
3559,-0.165,-0.225
3560,-0.255,-0.225
3561,-0.245,-0.235
3562,-0.105,-0.245
3563,-0.135,-0.205
3564,-0.155,-0.225
3565,-0.175,-0.175
3566,-0.125,-0.155
3567,-0.175,0.205
3568,-0.395,1.055
3569,0.035,1.275
3570,1.175,0.555
3571,2.075,-0.635
3572,2.005,-1.055
3573,0.325,-0.585
3574,-0.505,-0.195
3575,-0.415,-0.145
3576,-0.175,-0.155
3577,-0.165,-0.165
3578,-0.135,-0.175
3579,-0.095,-0.145
3580,-0.125,-0.145
3581,-0.155,-0.125
3582,-0.155,-0.135
3583,-0.095,-0.115
3584,-0.085,-0.095
3585,-0.105,-0.075
3586,-0.075,-0.075
3587,-0.055,-0.055
3588,-0.045,-0.035
3589,-0.035,-0.015
3590,-0.035,0.025
3591,0.035,0.035
3592,-0.045,0.095
3593,-0.025,0.135
3594,0.035,0.155
3595,0.105,0.205
3596,0.115,0.225
3597,0.165,0.235
3598,0.215,0.205
3599,0.225,0.205
3600,0.225,0.195
3601,0.235,0.135
3602,0.195,0.095
3603,0.165,0.015
3604,0.125,-0.025
3605,-0.035,-0.065
3606,0.005,-0.115
3607,0.015,-0.135
3608,-0.035,-0.145
3609,-0.065,-0.155
3610,-0.095,-0.165
3611,-0.125,-0.155
3612,-0.095,-0.155
3613,-0.115,-0.165
3614,-0.115,-0.155
3615,-0.165,-0.115
3616,-0.085,-0.115
3617,-0.065,-0.125
3618,-0.065,-0.115
3619,-0.025,-0.105
3620,-0.035,-0.105
3621,-0.025,-0.105
3622,-0.045,-0.105
3623,-0.045,-0.125
3624,-0.055,-0.115
3625,-0.065,-0.115
3626,-0.065,-0.115
3627,-0.065,-0.085
3628,-0.035,-0.055
3629,-0.065,-0.055
3630,0.025,-0.085
3631,0.065,-0.105
3632,0.095,-0.095
3633,0.055,-0.035
3634,0.055,-0.035
3635,0.075,-0.045
3636,0.095,-0.065
3637,0.055,-0.135
3638,0.015,-0.155
3639,-0.035,-0.195
3640,-0.065,-0.195
3641,-0.145,-0.215
3642,-0.195,-0.195
3643,-0.215,-0.195
3644,-0.145,-0.205
3645,-0.125,-0.195
3646,-0.155,-0.175
3647,-0.195,-0.155
3648,-0.145,-0.135
3649,-0.095,-0.065
3650,-0.165,0.435
3651,-0.315,1.255
3652,0.125,1.265
3653,1.145,0.485
3654,2.005,-0.695
3655,1.695,-0.885
3656,0.155,-0.445
3657,-0.485,-0.095
3658,-0.425,-0.045
3659,-0.255,-0.055
3660,-0.185,-0.065
3661,-0.175,-0.065
3662,-0.165,-0.065
3663,-0.185,-0.055
3664,-0.175,-0.035
3665,-0.155,-0.025
3666,-0.125,-0.025
3667,-0.135,-0.005
3668,-0.155,0.005
3669,-0.145,0.025
3670,-0.105,0.035
3671,-0.075,0.035
3672,-0.065,0.065
3673,-0.075,0.085
3674,-0.045,0.105
3675,-0.055,0.145
3676,0.005,0.195
3677,0.045,0.225
3678,0.055,0.265
3679,0.085,0.295
3680,0.115,0.285
3681,0.155,0.295
3682,0.185,0.255
3683,0.165,0.245
3684,0.125,0.225
3685,0.195,0.155
3686,0.135,0.095
3687,0.055,0.035
3688,0.005,-0.005
3689,-0.055,-0.045
3690,-0.085,-0.075
3691,-0.105,-0.085
3692,-0.155,-0.085
3693,-0.185,-0.095
3694,-0.185,-0.095
3695,-0.195,-0.095
3696,-0.155,-0.095
3697,-0.135,-0.085
3698,-0.135,-0.075
3699,-0.135,-0.075
3700,-0.145,-0.055
3701,-0.145,-0.065
3702,-0.115,-0.075
3703,-0.105,-0.055
3704,-0.105,-0.065
3705,-0.105,-0.065
3706,-0.095,-0.075
3707,-0.095,-0.075
3708,-0.125,-0.075
3709,-0.135,-0.085
3710,-0.135,-0.055
3711,-0.105,-0.025
3712,-0.055,-0.035
3713,-0.015,-0.065
3714,-0.005,-0.085
3715,-0.035,-0.045
3716,-0.045,0.005
3717,-0.005,-0.005
3718,0.055,-0.005
3719,0.015,-0.075
3720,-0.005,-0.125
3721,-0.075,-0.125
3722,-0.135,-0.155
3723,-0.175,-0.175
3724,-0.215,-0.175
3725,-0.195,-0.175
3726,-0.205,-0.175
3727,-0.215,-0.175
3728,-0.185,-0.155
3729,-0.185,-0.145
3730,-0.185,-0.125
3731,-0.215,-0.085
3732,-0.195,0.225
3733,-0.305,1.005
3734,-0.065,1.235
3735,0.795,0.575
3736,1.655,-0.415
3737,1.685,-0.945
3738,0.425,-0.645
3739,-0.345,-0.255
3740,-0.415,-0.115
3741,-0.305,-0.125
3742,-0.205,-0.135
3743,-0.145,-0.125
3744,-0.145,-0.115
3745,-0.155,-0.115
3746,-0.115,-0.095
3747,-0.105,-0.095
3748,-0.085,-0.095
3749,-0.075,-0.075
3750,-0.085,-0.065
3751,-0.075,-0.055
3752,-0.055,-0.045
3753,-0.055,-0.015
3754,-0.055,0.005
3755,-0.015,0.035
3756,0.005,0.065
3757,0.025,0.095
3758,0.045,0.115
3759,0.065,0.145
3760,0.065,0.185
3761,0.085,0.205
3762,0.165,0.185
3763,0.135,0.185
3764,0.135,0.195
3765,0.165,0.175
3766,0.165,0.135
3767,0.165,0.095
3768,0.125,0.035
3769,0.085,-0.015
3770,0.025,-0.045
3771,-0.035,-0.075
3772,-0.055,-0.085
3773,-0.055,-0.115
3774,-0.055,-0.135
3775,-0.125,-0.125
3776,-0.145,-0.135
3777,-0.135,-0.135
3778,-0.145,-0.125
3779,-0.155,-0.115
3780,-0.135,-0.105
3781,-0.145,-0.105
3782,-0.135,-0.095
3783,-0.095,-0.085
3784,-0.075,-0.065
3785,-0.105,-0.065
3786,-0.085,-0.075
3787,-0.105,-0.075
3788,-0.115,-0.065
3789,-0.105,-0.075
3790,-0.085,-0.085
3791,-0.145,-0.065
3792,-0.185,-0.005
3793,-0.075,-0.025
3794,-0.025,-0.055
3795,0.005,-0.075
3796,-0.015,-0.075
3797,-0.045,-0.025
3798,-0.025,-0.005
3799,0.015,-0.025
3800,0.035,-0.035
3801,0.015,-0.105
3802,-0.045,-0.125
3803,-0.205,-0.135
3804,-0.195,-0.185
3805,-0.195,-0.175
3806,-0.235,-0.195
3807,-0.245,-0.195
3808,-0.265,-0.185
3809,-0.275,-0.185
3810,-0.255,-0.185
3811,-0.245,-0.165
3812,-0.225,-0.145
3813,-0.175,-0.045
3814,-0.305,0.495
3815,-0.425,1.255
3816,0.345,0.935
3817,1.515,0.125
3818,2.165,-0.915
3819,1.365,-0.855
3820,-0.255,-0.355
3821,-0.605,-0.115
3822,-0.395,-0.125
3823,-0.245,-0.155
3824,-0.225,-0.125
3825,-0.245,-0.115
3826,-0.225,-0.115
3827,-0.195,-0.115
3828,-0.205,-0.105
3829,-0.215,-0.095
3830,-0.165,-0.075
3831,-0.135,-0.065
3832,-0.155,-0.055
3833,-0.145,-0.035
3834,-0.155,-0.015
3835,-0.145,0.005
3836,-0.045,0.035
3837,-0.035,0.045
3838,-0.035,0.085
3839,0.015,0.125
3840,0.045,0.175
3841,0.055,0.205
3842,0.105,0.245
3843,0.135,0.265
3844,0.155,0.255
3845,0.185,0.225
3846,0.235,0.225
3847,0.195,0.205
3848,0.235,0.145
3849,0.215,0.095
3850,0.135,0.025
3851,0.085,-0.025
3852,0.095,-0.055
3853,0.025,-0.085
3854,-0.015,-0.095
3855,-0.085,-0.115
3856,-0.085,-0.115
3857,-0.105,-0.125
3858,-0.105,-0.125
3859,-0.125,-0.125
3860,-0.125,-0.095
3861,-0.075,-0.115
3862,-0.065,-0.105
3863,-0.085,-0.105
3864,-0.055,-0.105
3865,-0.085,-0.085
3866,-0.115,-0.085
3867,-0.045,-0.075
3868,0.005,-0.075
3869,-0.005,-0.085
3870,-0.005,-0.085
3871,-0.035,-0.085
3872,-0.025,-0.085
3873,-0.055,-0.105
3874,-0.035,-0.085
3875,-0.025,-0.025
3876,-0.015,-0.015
3877,0.045,-0.045
3878,0.065,-0.095
3879,0.065,-0.105
3880,0.005,-0.025
3881,0.055,-0.005
3882,0.085,-0.025
3883,0.075,-0.035
3884,0.125,-0.085
3885,0.075,-0.125
3886,-0.025,-0.165
3887,-0.075,-0.185
3888,-0.135,-0.195
3889,-0.125,-0.205
3890,-0.185,-0.205
3891,-0.205,-0.185
3892,-0.155,-0.185
3893,-0.175,-0.175
3894,-0.155,-0.165
3895,-0.135,-0.145
3896,-0.095,-0.045
3897,-0.215,0.435
3898,-0.355,1.195
3899,0.325,1.025
3900,1.505,0.185
3901,2.195,-0.895
3902,1.495,-0.915
3903,-0.145,-0.425
3904,-0.595,-0.125
3905,-0.375,-0.115
3906,-0.185,-0.135
3907,-0.175,-0.115
3908,-0.165,-0.115
3909,-0.195,-0.105
3910,-0.165,-0.115
3911,-0.135,-0.115
3912,-0.165,-0.075
3913,-0.125,-0.075
3914,-0.115,-0.065
3915,-0.095,-0.045
3916,-0.105,-0.025
3917,-0.035,-0.015
3918,-0.045,0.005
3919,-0.065,0.025
3920,-0.085,0.055
3921,-0.035,0.085
3922,0.005,0.135
3923,0.035,0.175
3924,0.085,0.225
3925,0.115,0.245
3926,0.115,0.275
3927,0.205,0.275
3928,0.225,0.265
3929,0.245,0.245
3930,0.205,0.215
3931,0.195,0.175
3932,0.215,0.115
3933,0.215,0.045
3934,0.075,-0.005
3935,0.005,-0.065
3936,-0.035,-0.085
3937,-0.015,-0.115
3938,-0.035,-0.115
3939,-0.115,-0.115
3940,-0.085,-0.115
3941,-0.085,-0.135
3942,-0.115,-0.125
3943,-0.115,-0.115
3944,-0.125,-0.105
3945,-0.105,-0.125
3946,-0.085,-0.115
3947,-0.095,-0.085
3948,-0.065,-0.085
3949,-0.075,-0.095
3950,-0.075,-0.085
3951,-0.055,-0.085
3952,-0.055,-0.085
3953,-0.035,-0.095
3954,-0.085,-0.075
3955,-0.085,-0.095
3956,-0.085,-0.095
3957,-0.125,-0.095
3958,-0.095,-0.055
3959,-0.025,-0.015
3960,0.015,-0.055
3961,0.015,-0.095
3962,0.045,-0.115
3963,0.045,-0.055
3964,0.015,-0.015
3965,0.065,-0.015
3966,0.075,-0.025
3967,0.065,-0.065
3968,0.065,-0.125
3969,-0.035,-0.155
3970,-0.175,-0.185
3971,-0.165,-0.205
3972,-0.205,-0.215
3973,-0.245,-0.195
3974,-0.205,-0.205
3975,-0.215,-0.205
3976,-0.225,-0.195
3977,-0.215,-0.165
3978,-0.235,-0.175
3979,-0.185,-0.145
3980,-0.155,0.065
3981,-0.325,0.775
3982,-0.205,1.365
3983,0.735,0.795
3984,1.765,-0.145
3985,2.105,-1.075
3986,0.915,-0.785
3987,-0.425,-0.295
3988,-0.595,-0.135
3989,-0.335,-0.155
3990,-0.235,-0.175
3991,-0.255,-0.165
3992,-0.265,-0.155
3993,-0.185,-0.155
3994,-0.165,-0.145
3995,-0.195,-0.125
3996,-0.175,-0.135
3997,-0.205,-0.115
3998,-0.175,-0.105
3999,-0.175,-0.095
4000,-0.175,-0.065
4001,-0.175,-0.055
4002,-0.165,-0.035
4003,-0.125,-0.025
4004,-0.135,0.025
4005,-0.125,0.025
4006,-0.055,0.085
4007,-0.025,0.105
4008,0.015,0.165
4009,0.045,0.195
4010,0.015,0.195
4011,0.085,0.195
4012,0.115,0.195
4013,0.125,0.165
4014,0.125,0.155
4015,0.105,0.105
4016,0.075,0.045
4017,0.035,-0.015
4018,-0.055,-0.075
4019,-0.105,-0.125
4020,-0.105,-0.155
4021,-0.145,-0.175
4022,-0.235,-0.195
4023,-0.225,-0.195
4024,-0.215,-0.185
4025,-0.225,-0.165
4026,-0.295,-0.205
4027,-0.295,-0.185
4028,-0.255,-0.165
4029,-0.245,-0.185
4030,-0.225,-0.175
4031,-0.225,-0.175
4032,-0.235,-0.165
4033,-0.225,-0.165
4034,-0.195,-0.175
4035,-0.195,-0.165
4036,-0.195,-0.175
4037,-0.205,-0.175
4038,-0.235,-0.165
4039,-0.185,-0.185
4040,-0.195,-0.185
4041,-0.225,-0.135
4042,-0.175,-0.105
4043,-0.135,-0.155
4044,-0.105,-0.185
4045,-0.095,-0.205
4046,-0.175,-0.125
4047,-0.115,-0.075
4048,-0.075,-0.095
4049,-0.045,-0.125
4050,-0.025,-0.185
4051,-0.075,-0.225
4052,-0.225,-0.225
4053,-0.225,-0.265
4054,-0.305,-0.265
4055,-0.335,-0.265
4056,-0.345,-0.255
4057,-0.345,-0.275
4058,-0.395,-0.255
4059,-0.345,-0.225
4060,-0.275,-0.235
4061,-0.255,-0.205
4062,-0.265,-0.155
4063,-0.315,0.215
4064,-0.515,1.035
4065,-0.105,1.145
4066,1.075,0.355
4067,2.015,-0.745
4068,1.625,-0.985
4069,-0.065,-0.625
4070,-0.725,-0.265
4071,-0.675,-0.175
4072,-0.405,-0.195
4073,-0.285,-0.205
4074,-0.295,-0.185
4075,-0.295,-0.165
4076,-0.295,-0.145
4077,-0.315,-0.145
4078,-0.285,-0.135
4079,-0.275,-0.145
4080,-0.235,-0.125
4081,-0.225,-0.115
4082,-0.215,-0.105
4083,-0.235,-0.095
4084,-0.175,-0.065
4085,-0.145,-0.045
4086,-0.165,-0.025
4087,-0.145,0.015
4088,-0.055,0.055
4089,-0.055,0.075
4090,-0.045,0.125
4091,-0.015,0.155
4092,0.025,0.175
4093,0.075,0.185
4094,0.085,0.185
4095,0.075,0.165
4096,0.085,0.145
4097,0.135,0.115
4098,0.145,0.045
4099,0.085,-0.005
4100,0.025,-0.065
4101,-0.055,-0.065
4102,-0.055,-0.125
4103,-0.075,-0.145
4104,-0.115,-0.165
4105,-0.215,-0.165
4106,-0.205,-0.145
4107,-0.135,-0.155
4108,-0.135,-0.155
4109,-0.145,-0.145
4110,-0.135,-0.155
4111,-0.125,-0.145
4112,-0.125,-0.125
4113,-0.115,-0.115
4114,-0.095,-0.115
4115,-0.105,-0.105
4116,-0.115,-0.095
4117,-0.105,-0.105
4118,-0.075,-0.105
4119,-0.055,-0.115
4120,-0.055,-0.115
4121,-0.095,-0.115
4122,-0.085,-0.115
4123,-0.065,-0.115
4124,-0.115,-0.115
4125,-0.085,-0.095
4126,-0.105,-0.085
4127,-0.115,-0.035
4128,-0.045,-0.045
4129,-0.025,-0.075
4130,0.005,-0.105
4131,0.045,-0.065
4132,-0.005,-0.015
4133,0.095,-0.005
4134,0.055,-0.015
4135,0.015,-0.085
4136,0.045,-0.135
4137,-0.015,-0.135
4138,-0.095,-0.165
4139,-0.175,-0.185
4140,-0.195,-0.185
4141,-0.215,-0.195
4142,-0.175,-0.175
4143,-0.165,-0.155
4144,-0.205,-0.155
4145,-0.195,-0.165
4146,-0.185,-0.135
4147,-0.155,-0.085
4148,-0.165,0.215
4149,-0.345,0.985
4150,-0.025,1.285
4151,1.005,0.595
4152,1.955,-0.475
4153,2.065,-1.045
4154,0.475,-0.605
4155,-0.495,-0.175
4156,-0.485,-0.115
4157,-0.285,-0.135
4158,-0.195,-0.145
4159,-0.225,-0.135
4160,-0.215,-0.135
4161,-0.155,-0.135
4162,-0.185,-0.125
4163,-0.185,-0.105
4164,-0.145,-0.075
4165,-0.115,-0.085
4166,-0.105,-0.075
4167,-0.125,-0.065
4168,-0.115,-0.035
4169,-0.115,-0.045
4170,-0.095,-0.005
4171,-0.045,0.035
4172,-0.085,0.045
4173,-0.045,0.095
4174,0.025,0.145
4175,0.045,0.185
4176,0.045,0.225
4177,0.105,0.235
4178,0.175,0.255
4179,0.195,0.265
4180,0.195,0.245
4181,0.185,0.205
4182,0.185,0.185
4183,0.225,0.145
4184,0.185,0.065
4185,0.165,-0.005
4186,0.125,-0.045
4187,0.005,-0.075
4188,-0.085,-0.115
4189,-0.095,-0.125
4190,-0.085,-0.135
4191,-0.135,-0.145
4192,-0.145,-0.145
4193,-0.135,-0.145
4194,-0.085,-0.135
4195,-0.115,-0.135
4196,-0.135,-0.125
4197,-0.115,-0.125
4198,-0.095,-0.125
4199,-0.075,-0.115
4200,-0.085,-0.105
4201,-0.105,-0.115
4202,-0.085,-0.105
4203,-0.085,-0.105
4204,-0.055,-0.105
4205,-0.095,-0.125
4206,-0.115,-0.125
4207,-0.095,-0.115
4208,-0.095,-0.115
4209,-0.125,-0.125
4210,-0.075,-0.125
4211,-0.115,-0.105
4212,-0.125,-0.045
4213,-0.055,-0.055
4214,-0.025,-0.085
4215,0.025,-0.105
4216,0.015,-0.095
4217,-0.025,-0.035
4218,-0.025,-0.025
4219,0.025,-0.035
4220,0.055,-0.045
4221,0.045,-0.125
4222,-0.035,-0.125
4223,-0.095,-0.135
4224,-0.165,-0.165
4225,-0.235,-0.155
4226,-0.195,-0.155
4227,-0.215,-0.145
4228,-0.235,-0.145
4229,-0.235,-0.135
4230,-0.235,-0.135
4231,-0.215,-0.105
4232,-0.235,-0.085
4233,-0.205,0.085
4234,-0.345,0.675
4235,-0.255,1.085
4236,0.795,0.625
4237,1.895,-0.165
4238,2.135,-0.745
4239,0.695,-0.525
4240,-0.575,-0.175
4241,-0.685,-0.055
4242,-0.405,-0.065
4243,-0.255,-0.065
4244,-0.265,-0.065
4245,-0.265,-0.065
4246,-0.285,-0.055
4247,-0.265,-0.055
4248,-0.295,-0.045
4249,-0.275,-0.055
4250,-0.225,-0.035
4251,-0.205,-0.045
4252,-0.225,-0.035
4253,-0.225,-0.025
4254,-0.225,-0.015
4255,-0.195,0.015
4256,-0.195,0.025
4257,-0.185,0.045
4258,-0.185,0.065
4259,-0.105,0.095
4260,-0.075,0.125
4261,-0.075,0.155
4262,-0.035,0.165
4263,0.005,0.205
4264,0.055,0.205
4265,0.055,0.195
4266,0.065,0.175
4267,0.055,0.145
4268,0.075,0.105
4269,0.045,0.055
4270,-0.045,0.015
4271,-0.085,-0.025
4272,-0.085,-0.065
4273,-0.135,-0.115
4274,-0.205,-0.155
4275,-0.235,-0.175
4276,-0.245,-0.175
4277,-0.275,-0.155
4278,-0.295,-0.155
4279,-0.305,-0.175
4280,-0.315,-0.175
4281,-0.305,-0.175
4282,-0.285,-0.165
4283,-0.285,-0.175
4284,-0.275,-0.165
4285,-0.315,-0.165
4286,-0.305,-0.165
4287,-0.245,-0.165
4288,-0.255,-0.165
4289,-0.255,-0.155
4290,-0.315,-0.165
4291,-0.285,-0.165
4292,-0.235,-0.175
4293,-0.265,-0.185
4294,-0.295,-0.185
4295,-0.245,-0.165
4296,-0.255,-0.125
4297,-0.225,-0.125
4298,-0.205,-0.145
4299,-0.195,-0.185
4300,-0.205,-0.175
4301,-0.235,-0.125
4302,-0.165,-0.085
4303,-0.135,-0.095
4304,-0.105,-0.125
4305,-0.125,-0.205
4306,-0.215,-0.215
4307,-0.295,-0.235
4308,-0.325,-0.255
4309,-0.355,-0.265
4310,-0.385,-0.275
4311,-0.395,-0.275
4312,-0.365,-0.255
4313,-0.365,-0.245
4314,-0.345,-0.255
4315,-0.355,-0.235
4316,-0.315,-0.205
4317,-0.315,-0.075
4318,-0.445,0.465
4319,-0.445,1.185
4320,0.275,0.865
4321,1.345,-0.035
4322,1.865,-0.995
4323,0.775,-0.835
4324,-0.425,-0.445
4325,-0.625,-0.235
4326,-0.525,-0.205
4327,-0.395,-0.225
4328,-0.335,-0.215
4329,-0.345,-0.205
4330,-0.305,-0.195
4331,-0.335,-0.195
4332,-0.305,-0.165
4333,-0.265,-0.145
4334,-0.255,-0.145
4335,-0.265,-0.135
4336,-0.245,-0.135
4337,-0.225,-0.115
4338,-0.215,-0.095
4339,-0.215,-0.085
4340,-0.225,-0.065
4341,-0.155,-0.035
4342,-0.095,-0.005
4343,-0.105,0.035
4344,-0.085,0.065
4345,-0.065,0.105
4346,-0.025,0.125
4347,0.035,0.145
4348,0.045,0.125
4349,0.065,0.135
4350,0.065,0.105
4351,0.085,0.075
4352,0.075,0.035
4353,0.065,-0.015
4354,0.035,-0.065
4355,0.025,-0.105
4356,-0.045,-0.135
4357,-0.145,-0.155
4358,-0.195,-0.175
4359,-0.155,-0.175
4360,-0.165,-0.185
4361,-0.185,-0.205
4362,-0.185,-0.195
4363,-0.205,-0.185
4364,-0.205,-0.195
4365,-0.215,-0.185
4366,-0.185,-0.175
4367,-0.145,-0.165
4368,-0.145,-0.145
4369,-0.145,-0.145
4370,-0.175,-0.145
4371,-0.125,-0.135
4372,-0.135,-0.135
4373,-0.135,-0.145
4374,-0.115,-0.145
4375,-0.135,-0.145
4376,-0.125,-0.155
4377,-0.135,-0.165
4378,-0.125,-0.145
4379,-0.135,-0.145
4380,-0.105,-0.115
4381,-0.095,-0.095
4382,-0.055,-0.125
4383,-0.045,-0.145
4384,-0.025,-0.155
4385,-0.035,-0.105
4386,-0.075,-0.075
4387,0.005,-0.065
4388,0.075,-0.075
4389,0.065,-0.165
4390,-0.025,-0.185
4391,-0.105,-0.215
4392,-0.155,-0.235
4393,-0.195,-0.255
4394,-0.205,-0.235
4395,-0.205,-0.245
4396,-0.195,-0.235
4397,-0.235,-0.225
4398,-0.195,-0.225
4399,-0.205,-0.215
4400,-0.185,-0.175
4401,-0.125,-0.085
4402,-0.215,0.395
4403,-0.345,1.165
4404,0.375,1.005
4405,1.555,0.165
4406,2.225,-0.835
4407,1.675,-0.995
4408,-0.045,-0.465
4409,-0.585,-0.175
4410,-0.365,-0.155
4411,-0.205,-0.175
4412,-0.165,-0.175
4413,-0.155,-0.165
4414,-0.135,-0.155
4415,-0.175,-0.145
4416,-0.155,-0.135
4417,-0.115,-0.135
4418,-0.115,-0.115
4419,-0.125,-0.105
4420,-0.075,-0.095
4421,-0.085,-0.075
4422,-0.075,-0.065
4423,-0.025,-0.035
4424,-0.015,-0.015
4425,-0.005,0.005
4426,0.015,0.025
4427,0.025,0.095
4428,0.035,0.115
4429,0.085,0.165
4430,0.155,0.205
4431,0.195,0.225
4432,0.265,0.225
4433,0.275,0.205
4434,0.295,0.185
4435,0.255,0.175
4436,0.225,0.145
4437,0.245,0.065
4438,0.225,0.005
4439,0.195,-0.055
4440,0.145,-0.095
4441,0.075,-0.135
4442,0.005,-0.155
4443,-0.025,-0.165
4444,-0.045,-0.175
4445,-0.075,-0.185
4446,-0.075,-0.195
4447,-0.075,-0.195
4448,-0.075,-0.185
4449,-0.025,-0.175
4450,-0.005,-0.185
4451,-0.005,-0.175
4452,-0.045,-0.175
4453,-0.035,-0.155
4454,-0.005,-0.155
4455,-0.025,-0.155
4456,-0.005,-0.155
4457,-0.005,-0.145
4458,-0.005,-0.165
4459,-0.015,-0.145
4460,0.015,-0.155
4461,0.015,-0.165
4462,0.025,-0.165
4463,0.005,-0.145
4464,0.005,-0.095
4465,0.015,-0.085
4466,0.085,-0.105
4467,0.105,-0.135
4468,0.135,-0.145
4469,0.105,-0.115
4470,0.085,-0.075
4471,0.135,-0.075
4472,0.185,-0.065
4473,0.165,-0.135
4474,0.125,-0.185
4475,0.055,-0.195
4476,-0.015,-0.235
4477,-0.065,-0.245
4478,-0.065,-0.255
4479,-0.045,-0.245
4480,-0.045,-0.235
4481,-0.055,-0.255
4482,-0.025,-0.235
4483,-0.045,-0.205
4484,-0.005,-0.195
4485,-0.005,-0.165
4486,-0.035,0.135
4487,-0.145,0.945
4488,0.125,1.245
4489,0.995,0.425
4490,1.725,-0.695
4491,1.585,-1.085
4492,0.295,-0.585
4493,-0.285,-0.235
4494,-0.205,-0.175
4495,-0.045,-0.175
4496,0.005,-0.195
4497,0.025,-0.185
4498,0.025,-0.185
4499,0.005,-0.185
4500,0.035,-0.175
4501,0.055,-0.155
4502,0.065,-0.145
4503,0.025,-0.135
4504,0.025,-0.115
4505,0.055,-0.105
4506,0.075,-0.085
4507,0.055,-0.065
4508,0.045,-0.045
4509,0.045,-0.015
4510,0.085,0.015
4511,0.095,0.045
4512,0.105,0.085
4513,0.135,0.135
4514,0.155,0.165
4515,0.165,0.195
4516,0.205,0.195
4517,0.265,0.205
4518,0.265,0.185
4519,0.215,0.165
4520,0.245,0.125
4521,0.245,0.065
4522,0.195,0.015
4523,0.145,-0.055
4524,0.115,-0.105
4525,0.045,-0.155
4526,-0.015,-0.175
4527,-0.075,-0.195
4528,-0.105,-0.205
4529,-0.115,-0.195
4530,-0.145,-0.225
4531,-0.125,-0.205
4532,-0.135,-0.205
4533,-0.115,-0.215
4534,-0.105,-0.215
4535,-0.105,-0.195
4536,-0.105,-0.195
4537,-0.125,-0.185
4538,-0.115,-0.165
4539,-0.065,-0.185
4540,-0.085,-0.165
4541,-0.085,-0.175
4542,-0.105,-0.185
4543,-0.105,-0.185
4544,-0.105,-0.175
4545,-0.085,-0.185
4546,-0.085,-0.195
4547,-0.095,-0.195
4548,-0.095,-0.185
4549,-0.115,-0.175
4550,-0.125,-0.125
4551,-0.085,-0.115
4552,-0.015,-0.145
4553,-0.015,-0.185
4554,-0.005,-0.185
4555,-0.035,-0.115
4556,-0.015,-0.085
4557,0.045,-0.105
4558,0.025,-0.125
4559,0.025,-0.205
4560,-0.075,-0.235
4561,-0.145,-0.255
4562,-0.185,-0.275
4563,-0.205,-0.285
4564,-0.245,-0.275
4565,-0.255,-0.285
4566,-0.255,-0.285
4567,-0.255,-0.255
4568,-0.245,-0.255
4569,-0.245,-0.255
4570,-0.255,-0.235
4571,-0.215,-0.115
4572,-0.295,0.455
4573,-0.305,1.235
4574,0.385,0.935
4575,1.365,0.035
4576,1.885,-1.045
4577,1.105,-0.985
4578,-0.235,-0.475
4579,-0.615,-0.225
4580,-0.505,-0.205
4581,-0.355,-0.235
4582,-0.345,-0.245
4583,-0.345,-0.235
4584,-0.335,-0.235
4585,-0.355,-0.235
4586,-0.385,-0.215
4587,-0.355,-0.195
4588,-0.305,-0.185
4589,-0.305,-0.185
4590,-0.365,-0.175
4591,-0.345,-0.165
4592,-0.285,-0.135
4593,-0.285,-0.115
4594,-0.275,-0.085
4595,-0.275,-0.075
4596,-0.255,-0.045
4597,-0.225,-0.005
4598,-0.185,0.025
4599,-0.185,0.065
4600,-0.165,0.105
4601,-0.105,0.125
4602,-0.055,0.125
4603,-0.015,0.105
4604,-0.025,0.095
4605,-0.015,0.085
4606,-0.015,0.045
4607,-0.095,-0.005
4608,-0.075,-0.065
4609,-0.135,-0.125
4610,-0.155,-0.175
4611,-0.205,-0.205
4612,-0.245,-0.225
4613,-0.335,-0.235
4614,-0.345,-0.255
4615,-0.335,-0.255
4616,-0.335,-0.245
4617,-0.355,-0.245
4618,-0.355,-0.245
4619,-0.335,-0.225
4620,-0.345,-0.215
4621,-0.295,-0.205
4622,-0.305,-0.215
4623,-0.305,-0.205
4624,-0.265,-0.195
4625,-0.275,-0.205
4626,-0.275,-0.195
4627,-0.295,-0.205
4628,-0.275,-0.195
4629,-0.245,-0.215
4630,-0.315,-0.205
4631,-0.295,-0.215
4632,-0.245,-0.215
4633,-0.265,-0.175
4634,-0.255,-0.145
4635,-0.215,-0.165
4636,-0.185,-0.175
4637,-0.155,-0.205
4638,-0.205,-0.175
4639,-0.235,-0.135
4640,-0.185,-0.115
4641,-0.135,-0.135
4642,-0.125,-0.185
4643,-0.115,-0.225
4644,-0.195,-0.235
4645,-0.275,-0.265
4646,-0.335,-0.285
4647,-0.385,-0.295
4648,-0.385,-0.285
4649,-0.385,-0.285
4650,-0.385,-0.285
4651,-0.405,-0.275
4652,-0.395,-0.265
4653,-0.375,-0.255
4654,-0.345,-0.235
4655,-0.275,-0.115
4656,-0.375,0.435
4657,-0.515,1.185
4658,0.285,0.835
4659,1.455,-0.045
4660,2.115,-1.025
4661,0.885,-0.875
4662,-0.505,-0.445
4663,-0.725,-0.205
4664,-0.485,-0.195
4665,-0.395,-0.215
4666,-0.325,-0.225
4667,-0.345,-0.205
4668,-0.315,-0.185
4669,-0.315,-0.175
4670,-0.305,-0.175
4671,-0.285,-0.165
4672,-0.245,-0.155
4673,-0.265,-0.135
4674,-0.265,-0.125
4675,-0.255,-0.115
4676,-0.205,-0.095
4677,-0.175,-0.075
4678,-0.165,-0.055
4679,-0.125,-0.015
4680,-0.105,0.025
4681,-0.095,0.055
4682,-0.075,0.095
4683,-0.035,0.135
4684,0.025,0.175
4685,0.075,0.175
4686,0.105,0.155
4687,0.075,0.145
4688,0.135,0.125
4689,0.165,0.095
4690,0.125,0.055
4691,0.105,0.005
4692,0.065,-0.055
4693,0.015,-0.105
4694,-0.045,-0.135
4695,-0.055,-0.145
4696,-0.075,-0.165
4697,-0.115,-0.185
4698,-0.165,-0.175
4699,-0.155,-0.175
4700,-0.145,-0.175
4701,-0.155,-0.175
4702,-0.145,-0.175
4703,-0.165,-0.175
4704,-0.135,-0.165
4705,-0.105,-0.145
4706,-0.075,-0.135
4707,-0.095,-0.135
4708,-0.095,-0.135
4709,-0.075,-0.135
4710,-0.085,-0.135
4711,-0.075,-0.135
4712,-0.035,-0.125
4713,-0.075,-0.145
4714,-0.075,-0.145
4715,-0.085,-0.145
4716,-0.045,-0.135
4717,-0.045,-0.145
4718,-0.055,-0.145
4719,-0.085,-0.085
4720,-0.005,-0.075
4721,-0.005,-0.115
4722,0.025,-0.135
4723,0.005,-0.125
4724,0.005,-0.075
4725,0.035,-0.065
4726,0.105,-0.065
4727,0.095,-0.085
4728,0.115,-0.155
4729,-0.015,-0.175
4730,-0.065,-0.205
4731,-0.115,-0.225
4732,-0.145,-0.225
4733,-0.165,-0.235
4734,-0.185,-0.225
4735,-0.205,-0.235
4736,-0.165,-0.195
4737,-0.145,-0.205
4738,-0.145,-0.185
4739,-0.125,-0.155
4740,-0.105,-0.035
4741,-0.225,0.535
4742,-0.265,1.235
4743,0.555,0.885
4744,1.615,-0.005
4745,2.185,-0.975
4746,1.235,-0.845
4747,-0.275,-0.355
4748,-0.585,-0.165
4749,-0.365,-0.165
4750,-0.215,-0.175
4751,-0.205,-0.165
4752,-0.165,-0.155
4753,-0.195,-0.165
4754,-0.155,-0.145
4755,-0.165,-0.145
4756,-0.155,-0.125
4757,-0.135,-0.115
4758,-0.135,-0.095
4759,-0.125,-0.105
4760,-0.145,-0.075
4761,-0.125,-0.055
4762,-0.095,-0.015
4763,-0.065,-0.015
4764,-0.055,0.005
4765,-0.075,0.045
4766,-0.025,0.095
4767,0.005,0.145
4768,0.045,0.175
4769,0.035,0.195
4770,0.105,0.235
4771,0.175,0.225
4772,0.225,0.205
4773,0.215,0.195
4774,0.175,0.175
4775,0.215,0.155
4776,0.205,0.065
4777,0.125,-0.015
4778,0.075,-0.065
4779,0.035,-0.105
4780,-0.055,-0.135
4781,-0.105,-0.145
4782,-0.105,-0.175
4783,-0.115,-0.175
4784,-0.135,-0.175
4785,-0.125,-0.195
4786,-0.225,-0.175
4787,-0.155,-0.155
4788,-0.165,-0.145
4789,-0.125,-0.175
4790,-0.175,-0.155
4791,-0.165,-0.145
4792,-0.105,-0.145
4793,-0.075,-0.135
4794,-0.065,-0.145
4795,-0.105,-0.135
4796,-0.095,-0.135
4797,-0.075,-0.145
4798,-0.115,-0.135
4799,-0.115,-0.155
4800,-0.075,-0.145
4801,-0.065,-0.155
4802,-0.145,-0.155
4803,-0.085,-0.165
4804,-0.105,-0.135
4805,-0.115,-0.075
4806,-0.055,-0.085
4807,-0.035,-0.105
4808,-0.005,-0.115
4809,-0.005,-0.155
4810,-0.055,-0.095
4811,-0.005,-0.055
4812,0.035,-0.045
4813,0.015,-0.075
4814,0.065,-0.145
4815,-0.015,-0.185
4816,-0.065,-0.175
4817,-0.145,-0.195
4818,-0.195,-0.215
4819,-0.225,-0.245
4820,-0.195,-0.235
4821,-0.215,-0.225
4822,-0.255,-0.205
4823,-0.195,-0.205
4824,-0.205,-0.185
4825,-0.195,-0.185
4826,-0.185,-0.115
4827,-0.215,0.285
4828,-0.335,1.195
4829,0.235,1.185
4830,1.345,0.385
4831,2.105,-0.835
4832,1.605,-1.015
4833,-0.015,-0.535
4834,-0.615,-0.195
4835,-0.425,-0.145
4836,-0.275,-0.185
4837,-0.275,-0.185
4838,-0.235,-0.165
4839,-0.195,-0.165
4840,-0.195,-0.155
4841,-0.215,-0.145
4842,-0.215,-0.135
4843,-0.175,-0.115
4844,-0.175,-0.125
4845,-0.175,-0.095
4846,-0.155,-0.085
4847,-0.145,-0.055
4848,-0.145,-0.045
4849,-0.125,-0.035
4850,-0.115,-0.005
4851,-0.085,0.035
4852,-0.085,0.065
4853,-0.045,0.115
4854,-0.015,0.145
4855,0.005,0.185
4856,0.065,0.215
4857,0.125,0.225
4858,0.155,0.205
4859,0.165,0.175
4860,0.165,0.155
4861,0.165,0.115
4862,0.125,0.045
4863,0.095,-0.005
4864,0.045,-0.065
4865,-0.065,-0.115
4866,-0.095,-0.155
4867,-0.145,-0.165
4868,-0.185,-0.175
4869,-0.195,-0.205
4870,-0.215,-0.205
4871,-0.235,-0.215
4872,-0.215,-0.205
4873,-0.235,-0.205
4874,-0.205,-0.205
4875,-0.215,-0.195
4876,-0.255,-0.185
4877,-0.205,-0.185
4878,-0.195,-0.175
4879,-0.205,-0.165
4880,-0.195,-0.165
4881,-0.205,-0.175
4882,-0.175,-0.175
4883,-0.205,-0.165
4884,-0.235,-0.175
4885,-0.215,-0.185
4886,-0.185,-0.195
4887,-0.175,-0.195
4888,-0.205,-0.205
4889,-0.205,-0.195
4890,-0.235,-0.215
4891,-0.265,-0.215
4892,-0.255,-0.195
4893,-0.225,-0.155
4894,-0.185,-0.135
4895,-0.215,-0.165
4896,-0.155,-0.195
4897,-0.115,-0.205
4898,-0.165,-0.135
4899,-0.135,-0.105
4900,-0.095,-0.115
4901,-0.095,-0.135
4902,-0.105,-0.215
4903,-0.195,-0.235
4904,-0.245,-0.255
4905,-0.295,-0.285
4906,-0.385,-0.295
4907,-0.345,-0.265
4908,-0.345,-0.295
4909,-0.375,-0.285
4910,-0.365,-0.275
4911,-0.365,-0.255
4912,-0.355,-0.255
4913,-0.365,-0.215
4914,-0.315,-0.155
4915,-0.405,0.265
4916,-0.505,1.095
4917,0.125,1.095
4918,1.155,0.335
4919,2.005,-0.835
4920,1.375,-1.025
4921,-0.245,-0.615
4922,-0.775,-0.275
4923,-0.635,-0.195
4924,-0.435,-0.215
4925,-0.365,-0.225
4926,-0.355,-0.225
4927,-0.355,-0.215
4928,-0.365,-0.185
4929,-0.385,-0.195
4930,-0.375,-0.185
4931,-0.355,-0.155
4932,-0.295,-0.145
4933,-0.265,-0.145
4934,-0.265,-0.115
4935,-0.245,-0.115
4936,-0.225,-0.095
4937,-0.245,-0.055
4938,-0.215,-0.025
4939,-0.185,-0.005
4940,-0.155,0.035
4941,-0.135,0.085
4942,-0.095,0.105
4943,-0.045,0.135
4944,-0.015,0.165
4945,0.025,0.165
4946,0.035,0.165
4947,0.065,0.155
4948,0.075,0.135
4949,0.065,0.085
4950,0.085,0.045
4951,0.075,-0.005
4952,-0.005,-0.035
4953,-0.075,-0.125
4954,-0.135,-0.135
4955,-0.165,-0.145
4956,-0.185,-0.165
4957,-0.195,-0.175
4958,-0.215,-0.185
4959,-0.245,-0.185
4960,-0.255,-0.195
4961,-0.255,-0.185
4962,-0.205,-0.145
4963,-0.235,-0.155
4964,-0.245,-0.135
4965,-0.175,-0.135
4966,-0.135,-0.135
4967,-0.115,-0.125
4968,-0.135,-0.125
4969,-0.135,-0.125
4970,-0.145,-0.135
4971,-0.115,-0.115
4972,-0.095,-0.115
4973,-0.125,-0.115
4974,-0.135,-0.135
4975,-0.115,-0.165
4976,-0.105,-0.145
4977,-0.085,-0.145
4978,-0.125,-0.155
4979,-0.135,-0.145
4980,-0.125,-0.135
4981,-0.125,-0.115
4982,-0.105,-0.075
4983,-0.035,-0.095
4984,0.025,-0.105
4985,0.025,-0.155
4986,-0.025,-0.115
4987,-0.035,-0.055
4988,0.035,-0.055
4989,0.045,-0.055
4990,0.055,-0.125
4991,0.035,-0.175
4992,-0.095,-0.185
4993,-0.125,-0.215
4994,-0.185,-0.245
4995,-0.215,-0.235
4996,-0.195,-0.245
4997,-0.175,-0.235
4998,-0.235,-0.235
4999,-0.195,-0.205
5000,-0.135,-0.195
5001,-0.145,-0.175
5002,-0.135,-0.135
5003,-0.175,0.205
5004,-0.305,1.125
5005,0.235,1.275
5006,1.105,0.665
5007,1.705,-0.215
5008,1.925,-1.095
5009,0.655,-0.755
5010,-0.495,-0.295
5011,-0.475,-0.145
5012,-0.275,-0.165
5013,-0.225,-0.165
5014,-0.205,-0.175
5015,-0.205,-0.165
5016,-0.185,-0.145
5017,-0.175,-0.145
5018,-0.175,-0.145
5019,-0.155,-0.135
5020,-0.155,-0.115
5021,-0.135,-0.085
5022,-0.135,-0.085
5023,-0.125,-0.065
5024,-0.135,-0.045
5025,-0.115,-0.025
5026,-0.095,0.005
5027,-0.055,0.025
5028,0.005,0.075
5029,0.005,0.105
5030,0.045,0.155
5031,0.085,0.205
5032,0.135,0.245
5033,0.145,0.225
5034,0.165,0.225
5035,0.185,0.235
5036,0.225,0.205
5037,0.175,0.155
5038,0.185,0.085
5039,0.155,0.015
5040,0.105,-0.035
5041,0.025,-0.085
5042,-0.015,-0.135
5043,-0.055,-0.165
5044,-0.115,-0.165
5045,-0.155,-0.195
5046,-0.175,-0.195
5047,-0.145,-0.185
5048,-0.145,-0.195
5049,-0.165,-0.195
5050,-0.185,-0.195
5051,-0.195,-0.195
5052,-0.135,-0.175
5053,-0.175,-0.165
5054,-0.145,-0.165
5055,-0.135,-0.155
5056,-0.165,-0.155
5057,-0.105,-0.165
5058,-0.105,-0.155
5059,-0.095,-0.155
5060,-0.095,-0.155
5061,-0.095,-0.155
5062,-0.135,-0.165
5063,-0.105,-0.185
5064,-0.105,-0.165
5065,-0.105,-0.165
5066,-0.145,-0.165
5067,-0.145,-0.195
5068,-0.135,-0.185
5069,-0.125,-0.175
5070,-0.125,-0.135
5071,-0.115,-0.115
5072,-0.045,-0.125
5073,-0.035,-0.155
5074,-0.005,-0.175
5075,-0.025,-0.115
5076,-0.055,-0.075
5077,0.015,-0.105
5078,0.035,-0.095
5079,0.005,-0.135
5080,0.015,-0.205
5081,-0.065,-0.215
5082,-0.155,-0.255
5083,-0.185,-0.265
5084,-0.245,-0.265
5085,-0.245,-0.265
5086,-0.225,-0.275
5087,-0.235,-0.255
5088,-0.185,-0.245
5089,-0.225,-0.245
5090,-0.225,-0.235
5091,-0.215,-0.195
5092,-0.215,-0.005
5093,-0.335,0.745
5094,-0.195,1.285
5095,0.815,0.665
5096,1.835,-0.305
5097,2.005,-1.135
5098,0.635,-0.805
5099,-0.475,-0.395
5100,-0.555,-0.205
5101,-0.365,-0.205
5102,-0.235,-0.205
5103,-0.255,-0.205
5104,-0.265,-0.215
5105,-0.275,-0.205
5106,-0.245,-0.185
5107,-0.255,-0.185
5108,-0.245,-0.175
5109,-0.215,-0.155
5110,-0.185,-0.155
5111,-0.195,-0.135
5112,-0.205,-0.115
5113,-0.175,-0.105
5114,-0.185,-0.075
5115,-0.165,-0.045
5116,-0.125,0.005
5117,-0.105,0.005
5118,-0.135,0.045
5119,-0.105,0.085
5120,-0.035,0.125
5121,0.005,0.165
5122,0.025,0.185
5123,0.065,0.165
5124,0.125,0.145
5125,0.095,0.135
5126,0.075,0.105
5127,0.055,0.035
5128,0.045,-0.015
5129,-0.005,-0.085
5130,-0.075,-0.135
5131,-0.125,-0.185
5132,-0.175,-0.215
5133,-0.245,-0.225
5134,-0.275,-0.255
5135,-0.285,-0.255
5136,-0.275,-0.265
5137,-0.315,-0.245
5138,-0.305,-0.265
5139,-0.285,-0.245
5140,-0.295,-0.255
5141,-0.315,-0.225
5142,-0.315,-0.225
5143,-0.295,-0.215
5144,-0.295,-0.205
5145,-0.295,-0.205
5146,-0.325,-0.205
5147,-0.275,-0.205
5148,-0.255,-0.215
5149,-0.245,-0.225
5150,-0.255,-0.215
5151,-0.215,-0.225
5152,-0.235,-0.205
5153,-0.275,-0.235
5154,-0.285,-0.245
5155,-0.275,-0.235
5156,-0.295,-0.245
5157,-0.285,-0.245
5158,-0.295,-0.235
5159,-0.305,-0.215
5160,-0.275,-0.165
5161,-0.215,-0.185
5162,-0.185,-0.185
5163,-0.185,-0.235
5164,-0.155,-0.205
5165,-0.165,-0.135
5166,-0.195,-0.105
5167,-0.155,-0.125
5168,-0.135,-0.125
5169,-0.105,-0.215
5170,-0.185,-0.245
5171,-0.285,-0.265
5172,-0.355,-0.295
5173,-0.345,-0.285
5174,-0.365,-0.285
5175,-0.425,-0.275
5176,-0.365,-0.275
5177,-0.355,-0.255
5178,-0.365,-0.255
5179,-0.335,-0.265
5180,-0.355,-0.245
5181,-0.305,-0.040
5182,-0.525,-0.480
5183,-0.535,0.650
5184,-0.065,0.890
5185,0.845,0.095
5186,1.865,-0.925
5187,0.995,-0.975
5188,-0.335,-0.595
5189,-0.695,-0.245
5190,-0.575,-0.185
5191,-0.405,-0.205
5192,-0.325,-0.205
5193,-0.335,-0.195
5194,-0.375,-0.175
5195,-0.375,-0.175
5196,-0.275,-0.155
5197,-0.235,-0.155
5198,-0.235,-0.145
5199,-0.265,-0.125
5200,-0.245,-0.105
5201,-0.295,-0.105
5202,-0.245,-0.095
5203,-0.185,-0.075
5204,-0.185,-0.045
5205,-0.185,-0.035
5206,-0.125,0.005
5207,-0.135,0.045
5208,-0.085,0.085
5209,-0.035,0.125
5210,-0.005,0.165
5211,0.035,0.185
5212,0.085,0.185
5213,0.115,0.195
5214,0.135,0.165
5215,0.155,0.145
5216,0.155,0.075
5217,0.145,0.005
5218,0.065,-0.035
5219,0.015,-0.085
5220,-0.055,-0.115
5221,-0.115,-0.165
5222,-0.135,-0.155
5223,-0.175,-0.195
5224,-0.205,-0.175
5225,-0.195,-0.185
5226,-0.195,-0.175
5227,-0.205,-0.185
5228,-0.175,-0.165
5229,-0.185,-0.185
5230,-0.185,-0.175
5231,-0.175,-0.155
5232,-0.145,-0.155
5233,-0.135,-0.155
5234,-0.145,-0.145
5235,-0.155,-0.125
5236,-0.115,-0.115
5237,-0.095,-0.125
5238,-0.105,-0.135
5239,-0.105,-0.135
5240,-0.105,-0.125
5241,-0.115,-0.145
5242,-0.125,-0.155
5243,-0.135,-0.155
5244,-0.115,-0.155
5245,-0.105,-0.165
5246,-0.125,-0.165
5247,-0.105,-0.165
5248,-0.105,-0.165
5249,-0.155,-0.175
5250,-0.135,-0.175
5251,-0.115,-0.145
5252,-0.125,-0.105
5253,-0.105,-0.085
5254,-0.035,-0.115
5255,-0.015,-0.135
5256,-0.005,-0.135
5257,-0.045,-0.085
5258,-0.005,-0.055
5259,0.045,-0.065
5260,0.085,-0.065
5261,0.065,-0.145
5262,-0.015,-0.165
5263,-0.105,-0.175
5264,-0.145,-0.215
5265,-0.195,-0.225
5266,-0.195,-0.205
5267,-0.185,-0.215
5268,-0.215,-0.215
5269,-0.205,-0.205
5270,-0.195,-0.195
5271,-0.195,-0.185
5272,-0.195,-0.145
5273,-0.135,-0.095
5274,-0.195,0.245
5275,-0.335,1.035
5276,0.165,1.185
5277,1.305,0.425
5278,2.065,-0.655
5279,1.835,-1.045
5280,0.105,-0.565
5281,-0.585,-0.175
5282,-0.405,-0.115
5283,-0.235,-0.145
5284,-0.175,-0.135
5285,-0.185,-0.125
5286,-0.225,-0.145
5287,-0.205,-0.125
5288,-0.155,-0.105
5289,-0.155,-0.115
5290,-0.165,-0.095
5291,-0.125,-0.085
5292,-0.085,-0.065
5293,-0.095,-0.055
5294,-0.125,-0.035
5295,-0.115,-0.015
5296,-0.065,0.015
5297,-0.045,0.025
5298,-0.025,0.055
5299,-0.005,0.105
5300,0.025,0.135
5301,0.045,0.185
5302,0.075,0.225
5303,0.185,0.265
5304,0.215,0.275
5305,0.225,0.265
5306,0.245,0.245
5307,0.245,0.235
5308,0.255,0.175
5309,0.235,0.115
5310,0.185,0.045
5311,0.115,-0.005
5312,0.115,-0.055
5313,-0.025,-0.105
5314,-0.055,-0.135
5315,-0.035,-0.125
5316,-0.085,-0.165
5317,-0.115,-0.165
5318,-0.105,-0.175
5319,-0.125,-0.165
5320,-0.135,-0.165
5321,-0.145,-0.145
5322,-0.095,-0.145
5323,-0.085,-0.145
5324,-0.075,-0.135
5325,-0.075,-0.135
5326,-0.125,-0.125
5327,-0.105,-0.115
5328,-0.035,-0.115
5329,-0.045,-0.115
5330,-0.035,-0.115
5331,-0.065,-0.125
5332,-0.065,-0.125
5333,-0.075,-0.125
5334,-0.085,-0.115
5335,-0.065,-0.135
5336,-0.045,-0.135
5337,-0.035,-0.135
5338,-0.075,-0.145
5339,-0.075,-0.145
5340,-0.075,-0.145
5341,-0.065,-0.145
5342,-0.065,-0.125
5343,-0.095,-0.135
5344,-0.095,-0.075
5345,-0.055,-0.055
5346,-0.025,-0.095
5347,0.065,-0.105
5348,0.085,-0.115
5349,0.025,-0.055
5350,0.055,-0.025
5351,0.125,-0.055
5352,0.125,-0.055
5353,0.125,-0.135
5354,0.005,-0.165
5355,-0.045,-0.155
5356,-0.085,-0.195
5357,-0.125,-0.205
5358,-0.165,-0.215
5359,-0.185,-0.205
5360,-0.155,-0.185
5361,-0.165,-0.195
5362,-0.135,-0.175
5363,-0.105,-0.165
5364,-0.135,-0.145
5365,-0.135,-0.105
5366,-0.165,0.225
5367,-0.325,1.085
5368,0.255,1.245
5369,1.415,0.425
5370,2.205,-0.755
5371,1.635,-1.005
5372,-0.075,-0.495
5373,-0.575,-0.145
5374,-0.345,-0.105
5375,-0.195,-0.125
5376,-0.165,-0.135
5377,-0.175,-0.135
5378,-0.145,-0.125
5379,-0.125,-0.115
5380,-0.115,-0.105
5381,-0.095,-0.095
5382,-0.095,-0.085
5383,-0.125,-0.065
5384,-0.105,-0.045
5385,-0.055,-0.035
5386,-0.025,-0.015
5387,-0.035,0.005
5388,-0.005,0.035
5389,-0.005,0.045
5390,0.025,0.065
5391,0.045,0.105
5392,0.075,0.145
5393,0.085,0.195
5394,0.135,0.235
5395,0.165,0.265
5396,0.235,0.255
5397,0.255,0.265
5398,0.295,0.255
5399,0.275,0.225
5400,0.275,0.195
5401,0.245,0.145
5402,0.235,0.075
5403,0.185,0.015
5404,0.145,-0.035
5405,0.125,-0.075
5406,0.075,-0.125
5407,0.015,-0.115
5408,0.015,-0.115
5409,0.025,-0.125
5410,0.015,-0.125
5411,-0.015,-0.135
5412,0.005,-0.125
5413,0.015,-0.115
5414,0.025,-0.125
5415,0.025,-0.105
5416,0.035,-0.105
5417,0.015,-0.095
5418,0.025,-0.085
5419,0.025,-0.075
5420,0.025,-0.075
5421,0.035,-0.085
5422,0.045,-0.095
5423,0.045,-0.095
5424,0.035,-0.085
5425,0.035,-0.085
5426,0.025,-0.095
5427,-0.005,-0.095
5428,0.035,-0.105
5429,0.025,-0.125
5430,0.015,-0.125
5431,0.015,-0.135
5432,-0.005,-0.135
5433,-0.035,-0.135
5434,-0.035,-0.135
5435,-0.015,-0.135
5436,-0.025,-0.105
5437,-0.045,-0.065
5438,-0.025,-0.085
5439,0.015,-0.105
5440,0.025,-0.125
5441,0.025,-0.115
5442,0.015,-0.065
5443,0.015,-0.025
5444,0.065,-0.035
5445,0.055,-0.075
5446,0.045,-0.155
5447,0.005,-0.175
5448,-0.115,-0.185
5449,-0.155,-0.235
5450,-0.165,-0.205
5451,-0.175,-0.215
5452,-0.185,-0.225
5453,-0.195,-0.215
5454,-0.215,-0.215
5455,-0.225,-0.205
5456,-0.205,-0.185
5457,-0.245,-0.185
5458,-0.225,-0.085
5459,-0.285,0.395
5460,-0.325,1.205
5461,0.365,1.025
5462,1.445,0.175
5463,2.035,-0.975
5464,0.895,-0.915
5465,-0.385,-0.495
5466,-0.625,-0.215
5467,-0.485,-0.165
5468,-0.315,-0.175
5469,-0.275,-0.185
5470,-0.295,-0.175
5471,-0.245,-0.155
5472,-0.255,-0.135
5473,-0.255,-0.155
5474,-0.245,-0.135
5475,-0.215,-0.115
5476,-0.195,-0.115
5477,-0.195,-0.105
5478,-0.195,-0.105
5479,-0.175,-0.075
5480,-0.145,-0.055
5481,-0.155,-0.035
5482,-0.105,-0.005
5483,-0.105,0.015
5484,-0.085,0.065
5485,-0.045,0.115
5486,0.015,0.145
5487,0.025,0.175
5488,0.075,0.215
5489,0.125,0.215
5490,0.185,0.215
5491,0.175,0.195
5492,0.185,0.165
5493,0.195,0.125
5494,0.195,0.075
5495,0.125,0.015
5496,0.075,-0.025
5497,0.015,-0.095
5498,-0.045,-0.105
5499,-0.085,-0.145
5500,-0.125,-0.155
5501,-0.155,-0.165
5502,-0.145,-0.165
5503,-0.115,-0.175
5504,-0.105,-0.175
5505,-0.145,-0.155
5506,-0.135,-0.175
5507,-0.145,-0.155
5508,-0.135,-0.145
5509,-0.115,-0.145
5510,-0.105,-0.125
5511,-0.095,-0.125
5512,-0.055,-0.115
5513,-0.055,-0.125
5514,-0.075,-0.125
5515,-0.065,-0.115
5516,-0.065,-0.135
5517,-0.055,-0.155
5518,-0.055,-0.135
5519,-0.045,-0.135
5520,-0.035,-0.145
5521,-0.075,-0.155
5522,-0.095,-0.165
5523,-0.125,-0.165
5524,-0.105,-0.155
5525,-0.075,-0.175
5526,-0.075,-0.165
5527,-0.065,-0.165
5528,-0.075,-0.125
5529,-0.065,-0.095
5530,0.015,-0.105
5531,0.035,-0.115
5532,0.075,-0.145
5533,0.035,-0.125
5534,0.015,-0.065
5535,0.075,-0.055
5536,0.065,-0.075
5537,0.125,-0.115
5538,0.095,-0.175
5539,-0.005,-0.205
5540,-0.055,-0.225
5541,-0.125,-0.245
5542,-0.145,-0.255
5543,-0.145,-0.245
5544,-0.155,-0.245
5545,-0.155,-0.225
5546,-0.135,-0.225
5547,-0.135,-0.205
5548,-0.145,-0.185
5549,-0.105,-0.135
5550,-0.095,0.135
5551,-0.285,0.995
5552,0.175,1.175
5553,1.375,0.355
5554,2.135,-0.755
5555,1.695,-1.075
5556,-0.035,-0.565
5557,-0.575,-0.195
5558,-0.315,-0.155
5559,-0.175,-0.155
5560,-0.145,-0.155
5561,-0.135,-0.175
5562,-0.125,-0.165
5563,-0.135,-0.155
5564,-0.115,-0.145
5565,-0.135,-0.125
5566,-0.115,-0.125
5567,-0.085,-0.115
5568,-0.085,-0.105
5569,-0.085,-0.095
5570,-0.045,-0.065
5571,-0.035,-0.045
5572,-0.015,-0.045
5573,0.005,-0.005
5574,-0.005,0.025
5575,0.025,0.085
5576,0.055,0.115
5577,0.075,0.145
5578,0.135,0.215
5579,0.175,0.225
5580,0.195,0.235
5581,0.225,0.245
5582,0.275,0.215
5583,0.315,0.195
5584,0.275,0.145
5585,0.265,0.065
5586,0.195,0.005
5587,0.155,-0.065
5588,0.095,-0.115
5589,0.035,-0.155
5590,-0.005,-0.175
5591,-0.025,-0.175
5592,-0.065,-0.195
5593,-0.085,-0.205
5594,-0.075,-0.205
5595,-0.105,-0.215
5596,-0.095,-0.205
5597,-0.095,-0.185
5598,-0.115,-0.195
5599,-0.105,-0.185
5600,-0.095,-0.175
5601,-0.065,-0.165
5602,-0.055,-0.175
5603,-0.055,-0.165
5604,-0.055,-0.165
5605,-0.065,-0.175
5606,-0.045,-0.175
5607,-0.055,-0.165
5608,-0.035,-0.165
5609,-0.035,-0.165
5610,-0.035,-0.175
5611,-0.035,-0.175
5612,-0.055,-0.175
5613,-0.035,-0.175
5614,-0.075,-0.165
5615,-0.095,-0.165
5616,-0.075,-0.155
5617,-0.085,-0.135
5618,-0.055,-0.085
5619,-0.015,-0.105
5620,0.055,-0.115
5621,0.045,-0.155
5622,0.105,-0.165
5623,0.035,-0.115
5624,0.045,-0.085
5625,0.115,-0.085
5626,0.125,-0.095
5627,0.105,-0.155
5628,0.085,-0.195
5629,-0.055,-0.195
5630,-0.135,-0.245
5631,-0.085,-0.235
5632,-0.105,-0.225
5633,-0.125,-0.235
5634,-0.125,-0.235
5635,-0.125,-0.235
5636,-0.125,-0.225
5637,-0.125,-0.225
5638,-0.115,-0.205
5639,-0.105,-0.185
5640,-0.045,-0.095
5641,-0.145,0.345
5642,-0.265,1.195
5643,0.325,1.065
5644,1.475,0.205
5645,2.055,-0.945
5646,1.365,-0.975
5647,-0.055,-0.485
5648,-0.435,-0.175
5649,-0.225,-0.165
5650,-0.115,-0.185
5651,-0.105,-0.185
5652,-0.115,-0.185
5653,-0.105,-0.165
5654,-0.105,-0.155
5655,-0.085,-0.145
5656,-0.075,-0.135
5657,-0.115,-0.125
5658,-0.065,-0.125
5659,-0.055,-0.095
5660,-0.025,-0.075
5661,-0.035,-0.085
5662,-0.015,-0.065
5663,-0.005,0.005
5664,-0.005,0.035
5665,0.005,0.065
5666,0.055,0.105
5667,0.105,0.145
5668,0.125,0.205
5669,0.125,0.235
5670,0.215,0.255
5671,0.275,0.265
5672,0.295,0.265
5673,0.245,0.235
5674,0.275,0.205
5675,0.215,0.165
5676,0.225,0.075
5677,0.235,0.015
5678,0.205,-0.035
5679,0.085,-0.105
5680,0.015,-0.125
5681,-0.015,-0.145
5682,-0.045,-0.165
5683,-0.085,-0.165
5684,-0.105,-0.165
5685,-0.095,-0.165
5686,-0.085,-0.175
5687,-0.135,-0.175
5688,-0.155,-0.165
5689,-0.095,-0.165
5690,-0.095,-0.135
5691,-0.035,-0.135
5692,-0.065,-0.125
5693,-0.025,-0.135
5694,-0.045,-0.135
5695,-0.045,-0.135
5696,-0.035,-0.125
5697,-0.045,-0.145
5698,-0.035,-0.135
5699,-0.065,-0.125
5700,-0.085,-0.135
5701,-0.065,-0.135
5702,-0.095,-0.155
5703,-0.045,-0.155
5704,-0.035,-0.145
5705,-0.055,-0.155
5706,-0.075,-0.125
5707,-0.105,-0.075
5708,-0.015,-0.065
5709,0.065,-0.085
5710,0.025,-0.115
5711,0.035,-0.125
5712,0.045,-0.075
5713,0.085,-0.035
5714,0.115,-0.065
5715,0.105,-0.085
5716,0.085,-0.155
5717,-0.045,-0.185
5718,-0.125,-0.215
5719,-0.155,-0.235
5720,-0.215,-0.235
5721,-0.185,-0.235
5722,-0.195,-0.235
5723,-0.155,-0.215
5724,-0.135,-0.205
5725,-0.115,-0.205
5726,-0.145,-0.195
5727,-0.155,-0.165
5728,-0.185,0.075
5729,-0.335,0.825
5730,-0.015,1.415
5731,1.125,0.795
5732,2.045,-0.125
5733,2.105,-1.145
5734,0.475,-0.845
5735,-0.555,-0.305
5736,-0.485,-0.125
5737,-0.235,-0.155
5738,-0.195,-0.155
5739,-0.185,-0.145
5740,-0.175,-0.155
5741,-0.185,-0.145
5742,-0.175,-0.135
5743,-0.175,-0.095
5744,-0.185,-0.095
5745,-0.165,-0.095
5746,-0.145,-0.085
5747,-0.135,-0.045
5748,-0.095,-0.045
5749,-0.105,-0.015
5750,-0.115,0.015
5751,-0.065,0.025
5752,-0.055,0.055
5753,-0.055,0.085
5754,-0.025,0.145
5755,0.025,0.195
5756,0.065,0.275
5757,0.085,0.295
5758,0.135,0.295
5759,0.135,0.265
5760,0.155,0.255
5761,0.195,0.235
5762,0.155,0.205
5763,0.155,0.125
5764,0.175,0.075
5765,0.075,0.005
5766,0.015,-0.055
5767,-0.065,-0.075
5768,-0.095,-0.135
5769,-0.155,-0.145
5770,-0.165,-0.155
5771,-0.195,-0.155
5772,-0.235,-0.165
5773,-0.235,-0.165
5774,-0.235,-0.165
5775,-0.225,-0.155
5776,-0.225,-0.145
5777,-0.205,-0.145
5778,-0.195,-0.125
5779,-0.205,-0.115
5780,-0.175,-0.115
5781,-0.155,-0.135
5782,-0.155,-0.135
5783,-0.145,-0.135
5784,-0.165,-0.125
5785,-0.175,-0.135
5786,-0.185,-0.145
5787,-0.185,-0.155
5788,-0.165,-0.155
5789,-0.165,-0.145
5790,-0.165,-0.165
5791,-0.195,-0.165
5792,-0.185,-0.165
5793,-0.205,-0.195
5794,-0.205,-0.175
5795,-0.175,-0.095
5796,-0.155,-0.085
5797,-0.145,-0.105
5798,-0.135,-0.135
5799,-0.075,-0.135
5800,-0.105,-0.095
5801,-0.115,-0.045
5802,-0.075,-0.055
5803,-0.075,-0.045
5804,-0.065,-0.125
5805,-0.085,-0.195
5806,-0.175,-0.185
5807,-0.255,-0.225
5808,-0.295,-0.215
5809,-0.355,-0.225
5810,-0.355,-0.225
5811,-0.335,-0.225
5812,-0.355,-0.225
5813,-0.395,-0.225
5814,-0.385,-0.195
5815,-0.355,-0.175
5816,-0.335,-0.135
5817,-0.355,0.185
5818,-0.515,1.015
5819,-0.175,1.305
5820,0.835,0.525
5821,1.695,-0.625
5822,1.355,-1.065
5823,-0.075,-0.665
5824,-0.715,-0.235
5825,-0.695,-0.155
5826,-0.535,-0.165
5827,-0.475,-0.165
5828,-0.455,-0.165
5829,-0.465,-0.165
5830,-0.455,-0.155
5831,-0.455,-0.145
5832,-0.465,-0.135
5833,-0.455,-0.115
5834,-0.445,-0.115
5835,-0.465,-0.095
5836,-0.465,-0.085
5837,-0.415,-0.075
5838,-0.445,-0.045
5839,-0.405,-0.015
5840,-0.365,0.015
5841,-0.395,0.015
5842,-0.365,0.045
5843,-0.365,0.085
5844,-0.315,0.135
5845,-0.275,0.165
5846,-0.265,0.205
5847,-0.255,0.185
5848,-0.185,0.185
5849,-0.145,0.195
5850,-0.195,0.175
5851,-0.175,0.155
5852,-0.175,0.085
5853,-0.225,0.035
5854,-0.235,-0.005
5855,-0.295,-0.055
5856,-0.365,-0.105
5857,-0.415,-0.105
5858,-0.455,-0.155
5859,-0.455,-0.165
5860,-0.555,-0.165
5861,-0.585,-0.175
5862,-0.525,-0.165
5863,-0.525,-0.175
5864,-0.515,-0.155
5865,-0.555,-0.165
5866,-0.525,-0.155
5867,-0.515,-0.165
5868,-0.495,-0.095
5869,-0.515,-0.145
5870,-0.515,-0.145
5871,-0.555,-0.145
5872,-0.525,-0.135
5873,-0.535,-0.135
5874,-0.545,-0.125
5875,-0.575,-0.135
5876,-0.605,-0.155
5877,-0.605,-0.145
5878,-0.595,-0.145
5879,-0.535,-0.145
5880,-0.505,-0.145
5881,-0.475,-0.175
5882,-0.435,-0.125
5883,-0.415,-0.075
5884,-0.395,-0.105
5885,-0.525,-0.105
5886,-0.655,-0.145
5887,-0.755,-0.155
5888,-0.865,-0.095
5889,-0.865,-0.045
5890,-0.755,-0.075
5891,-0.715,-0.095
5892,-0.675,-0.175
5893,-0.775,-0.205
5894,-0.795,-0.225
5895,-0.815,-0.255
5896,-0.825,-0.245
5897,-0.805,-0.235
5898,-0.735,-0.235
5899,-0.745,-0.225
5900,-0.705,-0.215
5901,-0.555,-0.215
5902,-0.635,-0.175
5903,-0.505,-0.115
5904,-0.475,0.085
5905,-0.705,0.945
5906,-0.315,1.445
5907,1.025,0.655
5908,1.885,-0.435
5909,1.615,-1.135
5910,-0.095,-0.715
5911,-0.875,-0.275
5912,-0.775,-0.195
5913,-0.635,-0.225
5914,-0.755,-0.215
5915,-0.745,-0.265
5916,-0.655,-0.245
5917,-0.615,-0.255
5918,-0.635,-0.235
5919,-0.645,-0.215
5920,-0.665,-0.185
5921,-0.705,-0.175
5922,-0.655,-0.175
5923,-0.605,-0.145
5924,-0.575,-0.165
5925,-0.605,-0.145
5926,-0.525,-0.135
5927,-0.565,-0.085
5928,-0.565,-0.045
5929,-0.515,0.015
5930,-0.515,0.035
5931,-0.465,0.075
5932,-0.495,0.125
5933,-0.405,0.145
5934,-0.275,0.165
5935,-0.185,0.185
5936,-0.255,0.185
5937,-0.255,0.165
5938,-0.225,0.145
5939,-0.165,0.105
5940,-0.105,0.005
5941,-0.165,-0.045
5942,-0.245,-0.105
5943,-0.335,-0.165
5944,-0.325,-0.185
5945,-0.335,-0.215
5946,-0.315,-0.235
5947,-0.375,-0.255
5948,-0.335,-0.235
5949,-0.275,-0.235
5950,-0.295,-0.225
5951,-0.285,-0.235
5952,-0.275,-0.225
5953,-0.245,-0.225
5954,-0.225,-0.225
5955,-0.205,-0.215
5956,-0.175,-0.205
5957,-0.125,-0.215
5958,-0.085,-0.215
5959,-0.065,-0.215
5960,-0.055,-0.205
5961,-0.025,-0.205
5962,-0.005,-0.235
5963,0.025,-0.235
5964,0.035,-0.235
5965,0.055,-0.235
5966,0.055,-0.225
5967,0.065,-0.225
5968,0.065,-0.235
5969,0.085,-0.225
5970,0.095,-0.175
5971,0.125,-0.175
5972,0.145,-0.195
5973,0.165,-0.225
5974,0.155,-0.235
5975,0.145,-0.185
5976,0.165,-0.145
5977,0.215,-0.155
5978,0.215,-0.135
5979,0.225,-0.225
5980,0.195,-0.265
5981,0.155,-0.285
5982,0.135,-0.315
5983,0.145,-0.325
5984,0.145,-0.315
5985,0.125,-0.305
5986,0.135,-0.295
5987,0.135,-0.295
5988,0.125,-0.275
5989,0.115,-0.275
5990,0.115,-0.255
5991,0.135,-0.185
5992,0.105,0.325
5993,0.065,1.245
5994,0.295,1.255
5995,0.655,0.305
5996,0.915,-1.005
5997,0.625,-1.065
5998,0.075,-0.565
5999,-0.075,-0.285
6000,-0.025,-0.245
6001,-0.005,-0.255
6002,-0.005,-0.265
6003,-0.035,-0.255
6004,-0.025,-0.245
6005,-0.045,-0.235
6006,-0.045,-0.215
6007,-0.055,-0.225
6008,-0.035,-0.205
6009,-0.065,-0.185
6010,-0.075,-0.185
6011,-0.075,-0.175
6012,-0.085,-0.165
6013,-0.105,-0.135
6014,-0.105,-0.105
6015,-0.115,-0.085
6016,-0.135,-0.045
6017,-0.065,0.005
6018,-0.045,0.045
6019,-0.065,0.085
6020,-0.015,0.125
6021,0.025,0.135
6022,0.035,0.125
6023,0.065,0.135
6024,0.075,0.125
6025,0.065,0.095
6026,0.055,0.055
6027,0.065,-0.005
6028,-0.005,-0.065
6029,-0.095,-0.135
6030,-0.115,-0.195
6031,-0.165,-0.225
6032,-0.185,-0.245
6033,-0.245,-0.255
6034,-0.275,-0.255
6035,-0.285,-0.255
6036,-0.315,-0.265
6037,-0.305,-0.265
6038,-0.335,-0.245
6039,-0.275,-0.225
6040,-0.295,-0.215
6041,-0.295,-0.215
6042,-0.295,-0.215
6043,-0.265,-0.195
6044,-0.235,-0.195
6045,-0.225,-0.195
6046,-0.245,-0.185
6047,-0.265,-0.185
6048,-0.225,-0.195
6049,-0.215,-0.195
6050,-0.265,-0.185
6051,-0.245,-0.195
6052,-0.215,-0.195
6053,-0.235,-0.195
6054,-0.235,-0.195
6055,-0.225,-0.195
6056,-0.245,-0.175
6057,-0.215,-0.155
6058,-0.145,-0.175
6059,-0.155,-0.195
6060,-0.095,-0.205
6061,-0.145,-0.185
6062,-0.155,-0.155
6063,-0.125,-0.165
6064,-0.065,-0.155
6065,-0.035,-0.225
6066,-0.045,-0.265
6067,-0.125,-0.285
6068,-0.185,-0.315
6069,-0.245,-0.335
6070,-0.285,-0.355
6071,-0.295,-0.335
6072,-0.325,-0.335
6073,-0.325,-0.325
6074,-0.325,-0.325
6075,-0.285,-0.315
6076,-0.295,-0.275
6077,-0.265,-0.235
6078,-0.265,0.115
6079,-0.455,1.015
6080,0.105,1.255
6081,1.305,0.455
6082,2.125,-0.795
6083,1.685,-1.185
6084,0.085,-0.745
6085,-0.555,-0.355
6086,-0.475,-0.265
6087,-0.305,-0.305
6088,-0.255,-0.305
6089,-0.255,-0.285
6090,-0.305,-0.265
6091,-0.295,-0.265
6092,-0.225,-0.255
6093,-0.225,-0.245
6094,-0.255,-0.235
6095,-0.245,-0.225
6096,-0.175,-0.195
6097,-0.225,-0.205
6098,-0.155,-0.175
6099,-0.125,-0.145
6100,-0.165,-0.125
6101,-0.125,-0.105
6102,-0.095,-0.065
6103,-0.115,-0.045
6104,-0.105,0.005
6105,-0.055,0.055
6106,0.045,0.095
6107,0.065,0.135
6108,0.115,0.125
6109,0.115,0.135
6110,0.135,0.115
6111,0.155,0.095
6112,0.185,0.045
6113,0.165,0.005
6114,0.145,-0.045
6115,-0.005,-0.115
6116,-0.075,-0.175
6117,-0.055,-0.225
6118,-0.095,-0.255
6119,-0.155,-0.255
6120,-0.195,-0.265
6121,-0.225,-0.275
6122,-0.235,-0.285
6123,-0.205,-0.285
6124,-0.195,-0.275
6125,-0.205,-0.265
6126,-0.225,-0.255
6127,-0.205,-0.275
6128,-0.205,-0.245
6129,-0.205,-0.255
6130,-0.205,-0.255
6131,-0.205,-0.235
6132,-0.175,-0.265
6133,-0.175,-0.245
6134,-0.145,-0.245
6135,-0.245,-0.245
6136,-0.255,-0.235
6137,-0.165,-0.255
6138,-0.165,-0.265
6139,-0.165,-0.275
6140,-0.175,-0.255
6141,-0.205,-0.235
6142,-0.225,-0.275
6143,-0.235,-0.175
6144,-0.255,-0.155
6145,-0.135,-0.205
6146,-0.065,-0.235
6147,-0.055,-0.245
6148,-0.125,-0.185
6149,-0.145,-0.145
6150,-0.065,-0.145
6151,-0.025,-0.145
6152,-0.025,-0.215
6153,-0.085,-0.295
6154,-0.205,-0.245
6155,-0.275,-0.305
6156,-0.265,-0.285
6157,-0.305,-0.305
6158,-0.285,-0.315
6159,-0.325,-0.295
6160,-0.305,-0.285
6161,-0.285,-0.305
6162,-0.315,-0.295
6163,-0.325,-0.265
6164,-0.255,-0.185
6165,-0.225,0.115
6166,-0.435,0.915
6167,0.045,1.355
6168,1.175,0.585
6169,2.115,-0.535
6170,1.815,-1.095
6171,0.205,-0.735
6172,-0.605,-0.365
6173,-0.605,-0.255
6174,-0.435,-0.275
6175,-0.345,-0.265
6176,-0.315,-0.215
6177,-0.275,-0.235
6178,-0.325,-0.215
6179,-0.325,-0.205
6180,-0.215,-0.205
6181,-0.165,-0.195
6182,-0.165,-0.205
6183,-0.155,-0.195
6184,-0.245,-0.145
6185,-0.045,-0.125
6186,-0.205,-0.105
6187,-0.185,-0.075
6188,-0.125,-0.065
6189,-0.155,-0.035
6190,-0.145,0.005
6191,-0.075,0.025
6192,0.035,0.045
6193,0.055,0.095
6194,0.085,0.125
6195,0.145,0.115
6196,0.085,0.105
6197,0.085,0.105
6198,0.115,0.085
6199,0.145,0.025
6200,0.125,-0.035
6201,0.075,-0.095
6202,-0.015,-0.145
6203,-0.095,-0.185
6204,-0.105,-0.205
6205,-0.145,-0.195
6206,-0.075,-0.215
6207,-0.185,-0.225
6208,-0.245,-0.235
6209,-0.235,-0.235
6210,-0.195,-0.245
6211,-0.255,-0.225
6212,-0.235,-0.205
6213,-0.175,-0.215
6214,-0.115,-0.195
6215,-0.135,-0.195
6216,-0.155,-0.195
6217,-0.125,-0.175
6218,-0.125,-0.175
6219,-0.125,-0.165
6220,-0.095,-0.175
6221,-0.105,-0.175
6222,-0.155,-0.195
6223,-0.115,-0.185
6224,-0.135,-0.205
6225,-0.115,-0.205
6226,-0.175,-0.195
6227,-0.105,-0.145
6228,-0.075,-0.155
6229,-0.095,-0.155
6230,-0.035,-0.175
6231,-0.025,-0.195
6232,-0.075,-0.135
6233,-0.075,-0.085
6234,-0.035,-0.115
6235,-0.035,-0.095
6236,-0.005,-0.185
6237,-0.015,-0.215
6238,-0.125,-0.235
6239,-0.185,-0.255
6240,-0.235,-0.255
6241,-0.265,-0.265
6242,-0.315,-0.255
6243,-0.255,-0.265
6244,-0.225,-0.255
6245,-0.225,-0.235
6246,-0.145,-0.205
6247,-0.205,-0.195
6248,-0.245,-0.145
6249,-0.295,0.235
6250,-0.375,1.135
6251,0.215,1.335
6252,1.375,0.475
6253,2.125,-0.715
6254,1.645,-1.065
6255,-0.035,-0.595
6256,-0.615,-0.215
6257,-0.435,-0.145
6258,-0.275,-0.175
6259,-0.245,-0.175
6260,-0.245,-0.175
6261,-0.245,-0.175
6262,-0.225,-0.165
6263,-0.265,-0.135
6264,-0.235,-0.115
6265,-0.145,-0.125
6266,-0.165,-0.115
6267,-0.145,-0.095
6268,-0.135,-0.075
6269,-0.145,-0.055
6270,-0.125,-0.045
6271,-0.095,-0.015
6272,-0.075,-0.005
6273,-0.095,0.045
6274,-0.055,0.085
6275,-0.055,0.125
6276,-0.005,0.185
6277,0.055,0.195
6278,0.095,0.235
6279,0.185,0.265
6280,0.215,0.255
6281,0.175,0.235
6282,0.205,0.225
6283,0.165,0.175
6284,0.185,0.115
6285,0.155,0.065
6286,0.105,0.025
6287,0.035,-0.015
6288,-0.035,-0.085
6289,-0.135,-0.105
6290,-0.125,-0.095
6291,-0.105,-0.115
6292,-0.085,-0.135
6293,-0.175,-0.125
6294,-0.165,-0.115
6295,-0.145,-0.115
6296,-0.115,-0.085
6297,-0.085,-0.105
6298,-0.075,-0.095
6299,-0.095,-0.075
6300,-0.105,-0.075
6301,-0.075,-0.055
6302,-0.075,-0.075
6303,-0.045,-0.055
6304,-0.095,-0.045
6305,-0.065,-0.055
6306,-0.045,-0.065
6307,-0.045,-0.055
6308,-0.045,-0.065
6309,-0.035,-0.055
6310,-0.065,-0.055
6311,-0.055,-0.005
6312,0.045,-0.015
6313,0.045,-0.035
6314,0.075,-0.065
6315,0.035,-0.045
6316,0.005,0.005
6317,0.055,0.025
6318,0.125,0.025
6319,0.085,0.035
6320,0.105,-0.055
6321,0.035,-0.095
6322,-0.045,-0.115
6323,-0.075,-0.125
6324,-0.155,-0.135
6325,-0.205,-0.135
6326,-0.135,-0.125
6327,-0.135,-0.115
6328,-0.165,-0.105
6329,-0.165,-0.115
6330,-0.105,-0.095
6331,-0.105,-0.075
6332,-0.085,-0.005
6333,-0.165,0.465
6334,-0.275,1.315
6335,0.475,1.355
6336,1.625,0.475
6337,2.285,-0.615
6338,1.765,-0.965
6339,0.095,-0.505
6340,-0.505,-0.125
6341,-0.415,-0.035
6342,-0.225,-0.075
6343,-0.155,-0.065
6344,-0.135,-0.065
6345,-0.115,-0.075
6346,-0.155,-0.055
6347,-0.105,-0.035
6348,-0.095,-0.025
6349,-0.095,-0.015
6350,-0.095,-0.015
6351,-0.105,0.005
6352,-0.055,0.025
6353,-0.055,0.035
6354,-0.025,0.055
6355,-0.045,0.065
6356,-0.025,0.095
6357,0.015,0.145
6358,0.065,0.175
6359,0.085,0.205
6360,0.125,0.255
6361,0.155,0.305
6362,0.205,0.315
6363,0.245,0.355
6364,0.305,0.345
6365,0.265,0.315
6366,0.275,0.295
6367,0.285,0.265
6368,0.245,0.215
6369,0.225,0.145
6370,0.195,0.085
6371,0.105,0.025
6372,0.025,-0.035
6373,0.005,-0.025
6374,-0.035,-0.055
6375,-0.075,-0.065
6376,-0.045,-0.055
6377,-0.095,-0.085
6378,-0.095,-0.055
6379,-0.105,-0.055
6380,-0.105,-0.045
6381,-0.095,-0.025
6382,-0.135,-0.045
6383,-0.095,-0.045
6384,-0.025,-0.035
6385,-0.065,-0.025
6386,-0.075,-0.035
6387,-0.035,-0.015
6388,0.005,-0.005
6389,0.005,-0.035
6390,-0.035,-0.015
6391,-0.055,-0.035
6392,-0.045,-0.015
6393,-0.015,-0.045
6394,-0.055,-0.025
6395,-0.065,0.025
6396,0.005,0.045
6397,0.035,0.005
6398,0.085,-0.015
6399,0.085,-0.025
6400,0.035,0.025
6401,0.085,0.065
6402,0.125,0.045
6403,0.125,0.045
6404,0.075,-0.015
6405,0.045,-0.055
6406,-0.005,-0.065
6407,-0.055,-0.095
6408,-0.115,-0.105
6409,-0.125,-0.125
6410,-0.135,-0.105
6411,-0.115,-0.115
6412,-0.145,-0.115
6413,-0.145,-0.125
6414,-0.135,-0.085
6415,-0.105,-0.045
6416,-0.075,-0.025
6417,-0.135,0.265
6418,-0.305,1.125
6419,0.175,1.525
6420,1.435,0.765
6421,2.235,-0.325
6422,2.035,-1.005
6423,0.275,-0.595
6424,-0.535,-0.145
6425,-0.375,-0.045
6426,-0.175,-0.075
6427,-0.125,-0.065
6428,-0.115,-0.075
6429,-0.135,-0.065
6430,-0.115,-0.055
6431,-0.125,-0.035
6432,-0.115,-0.025
6433,-0.075,-0.025
6434,-0.065,-0.005
6435,-0.075,-0.005
6436,-0.025,0.025
6437,-0.045,0.035
6438,-0.005,0.045
6439,0.005,0.065
6440,0.045,0.105
6441,0.035,0.135
6442,-0.015,0.165
6443,0.085,0.215
6444,0.185,0.265
6445,0.175,0.315
6446,0.185,0.325
6447,0.235,0.345
6448,0.255,0.335
6449,0.295,0.325
6450,0.315,0.325
6451,0.295,0.295
6452,0.305,0.225
6453,0.245,0.145
6454,0.175,0.105
6455,0.145,0.045
6456,0.065,0.005
6457,0.025,-0.025
6458,0.015,-0.045
6459,-0.015,-0.035
6460,-0.045,-0.045
6461,-0.055,-0.015
6462,-0.065,-0.015
6463,-0.065,-0.025
6464,-0.085,-0.045
6465,-0.085,-0.055
6466,-0.055,-0.065
6467,-0.055,-0.035
6468,-0.025,-0.035
6469,-0.025,-0.025
6470,-0.025,-0.025
6471,0.005,-0.025
6472,0.015,-0.035
6473,-0.015,-0.035
6474,-0.015,-0.035
6475,-0.025,-0.045
6476,-0.055,-0.045
6477,-0.025,-0.055
6478,-0.035,-0.035
6479,-0.025,-0.005
6480,0.005,0.025
6481,0.075,-0.015
6482,0.075,-0.025
6483,0.095,-0.035
6484,0.045,-0.015
6485,0.075,0.035
6486,0.125,0.025
6487,0.135,0.045
6488,0.115,-0.005
6489,0.075,-0.075
6490,-0.005,-0.105
6491,-0.095,-0.125
6492,-0.105,-0.135
6493,-0.165,-0.125
6494,-0.135,-0.155
6495,-0.105,-0.115
6496,-0.125,-0.125
6497,-0.145,-0.125
6498,-0.125,-0.125
6499,-0.135,-0.105
6500,-0.105,-0.085
6501,-0.125,0.055
6502,-0.325,0.705
6503,-0.075,1.535
6504,0.985,1.095
6505,2.035,0.235
6506,2.255,-0.905
6507,0.945,-0.855
6508,-0.385,-0.365
6509,-0.545,-0.085
6510,-0.335,-0.085
6511,-0.175,-0.105
6512,-0.205,-0.115
6513,-0.155,-0.095
6514,-0.135,-0.075
6515,-0.165,-0.065
6516,-0.125,-0.085
6517,-0.145,-0.065
6518,-0.135,-0.055
6519,-0.095,-0.045
6520,-0.135,-0.035
6521,-0.135,-0.015
6522,-0.075,-0.005
6523,-0.045,0.015
6524,-0.005,0.025
6525,0.005,0.065
6526,0.005,0.055
6527,0.025,0.105
6528,0.045,0.155
6529,0.085,0.185
6530,0.115,0.225
6531,0.175,0.245
6532,0.205,0.275
6533,0.245,0.245
6534,0.265,0.245
6535,0.305,0.225
6536,0.305,0.185
