'sample interval','ECG1','ECG2'
'0.0078125 sec','mV','mV'
0,-0.185,-0.085
1,-0.215,-0.105
2,-0.215,-0.105
3,-0.245,-0.105
4,-0.205,-0.095
5,-0.195,-0.095
6,-0.155,-0.095
7,-0.165,-0.095
8,-0.165,-0.105
9,-0.175,-0.095
10,-0.215,-0.125
11,-0.185,-0.115
12,-0.165,-0.085
13,-0.165,-0.085
14,-0.165,-0.115
15,-0.145,-0.105
16,-0.155,-0.095
17,-0.185,-0.105
18,-0.215,-0.125
19,-0.175,-0.125
20,-0.165,-0.105
21,-0.155,-0.115
22,-0.155,-0.125
23,-0.155,-0.115
24,-0.165,-0.115
25,-0.185,-0.115
26,-0.165,-0.125
27,-0.175,-0.135
28,-0.185,-0.115
29,-0.165,-0.115
30,-0.155,-0.125
31,-0.165,-0.135
32,-0.165,-0.115
33,-0.165,-0.115
34,-0.165,-0.125
35,-0.155,-0.115
36,-0.175,-0.115
37,-0.185,-0.115
38,-0.165,-0.125
39,-0.175,-0.115
40,-0.155,-0.115
41,-0.185,-0.115
42,-0.165,-0.125
43,-0.165,-0.115
44,-0.175,-0.115
45,-0.175,-0.115
46,-0.175,-0.125
47,-0.175,-0.125
48,-0.165,-0.115
49,-0.175,-0.115
50,-0.185,-0.135
51,-0.165,-0.105
52,-0.175,-0.115
53,-0.145,-0.105
54,-0.155,-0.115
55,-0.145,-0.085
56,-0.105,-0.055
57,-0.065,-0.005
58,-0.055,0.005
59,-0.035,0.025
60,0.025,0.055
61,0.045,-0.045
62,0.025,-0.095
63,0.025,-0.115
64,-0.035,-0.125
65,-0.095,-0.135
66,-0.125,-0.165
67,-0.125,-0.145
68,-0.105,-0.145
69,-0.105,-0.145
70,-0.105,-0.105
71,-0.065,0.095
72,-0.035,-0.075
73,0.305,-0.375
74,0.865,-0.575
75,1.005,-0.935
76,0.055,-0.955
77,-0.395,-0.355
78,-0.325,-0.135
79,-0.105,-0.115
80,-0.055,-0.095
81,-0.065,-0.115
82,-0.065,-0.125
83,-0.075,-0.105
84,-0.055,-0.075
85,-0.055,-0.075
86,-0.065,-0.075
87,-0.045,-0.075
88,-0.035,-0.055
89,-0.055,-0.055
90,-0.045,-0.055
91,-0.045,-0.055
92,-0.025,-0.055
93,-0.025,-0.025
94,-0.015,-0.035
95,-0.025,-0.035
96,-0.015,-0.035
97,0.005,-0.015
98,0.015,-0.015
99,0.035,-0.015
100,0.035,-0.005
101,0.055,-0.005
102,0.085,-0.005
103,0.115,-0.005
104,0.115,0.015
105,0.145,0.005
106,0.165,0.015
107,0.175,0.015
108,0.195,0.035
109,0.225,0.025
110,0.225,0.015
111,0.235,0.025
112,0.215,0.035
113,0.185,0.045
114,0.145,0.005
115,0.085,0.005
116,0.025,0.005
117,-0.025,0.005
118,-0.075,-0.015
119,-0.105,-0.035
120,-0.145,-0.025
121,-0.145,-0.025
122,-0.155,-0.045
123,-0.165,-0.035
124,-0.175,-0.025
125,-0.175,-0.025
126,-0.155,-0.035
127,-0.145,-0.025
128,-0.145,-0.025
129,-0.165,-0.025
130,-0.145,-0.025
131,-0.145,-0.025
132,-0.135,-0.025
133,-0.135,-0.025
134,-0.145,-0.035
135,-0.145,-0.035
136,-0.145,-0.025
137,-0.155,-0.025
138,-0.155,-0.045
139,-0.185,-0.035
140,-0.175,-0.035
141,-0.165,-0.025
142,-0.165,-0.045
143,-0.185,-0.035
144,-0.165,-0.025
145,-0.185,-0.025
146,-0.165,-0.055
147,-0.175,-0.045
148,-0.185,-0.035
149,-0.185,-0.025
150,-0.195,-0.045
151,-0.185,-0.045
152,-0.185,-0.035
153,-0.175,-0.035
154,-0.185,-0.045
155,-0.205,-0.045
156,-0.175,-0.035
157,-0.185,-0.035
158,-0.185,-0.055
159,-0.155,-0.035
160,-0.175,-0.045
161,-0.185,-0.035
162,-0.175,-0.045
163,-0.185,-0.045
164,-0.175,-0.045
165,-0.185,-0.035
166,-0.175,-0.045
167,-0.165,-0.055
168,-0.155,-0.035
169,-0.185,-0.055
170,-0.195,-0.055
171,-0.175,-0.045
172,-0.165,-0.035
173,-0.185,-0.045
174,-0.175,-0.045
175,-0.155,-0.045
176,-0.165,-0.035
177,-0.155,-0.025
178,-0.165,-0.045
179,-0.185,-0.035
180,-0.175,-0.035
181,-0.135,-0.005
182,-0.125,0.015
183,-0.075,0.045
184,-0.055,0.085
185,-0.035,0.115
186,0.025,0.125
187,0.005,0.005
188,0.005,-0.015
189,-0.025,-0.045
190,-0.105,-0.075
191,-0.145,-0.075
192,-0.185,-0.075
193,-0.185,-0.085
194,-0.165,-0.095
195,-0.195,-0.085
196,-0.135,-0.005
197,-0.125,0.165
198,-0.065,-0.065
199,0.595,-0.275
200,1.365,-0.535
201,0.965,-0.845
202,-0.315,-0.745
203,-0.665,-0.235
204,-0.435,-0.055
205,-0.175,-0.065
206,-0.135,-0.065
207,-0.135,-0.045
208,-0.165,-0.045
209,-0.175,-0.035
210,-0.175,-0.055
211,-0.175,-0.025
212,-0.145,-0.005
213,-0.155,-0.015
214,-0.155,-0.025
215,-0.115,-0.015
216,-0.115,0.005
217,-0.125,0.005
218,-0.105,-0.005
219,-0.115,-0.005
220,-0.105,0.005
221,-0.075,0.015
222,-0.065,-0.005
223,-0.055,0.015
224,-0.025,0.005
225,-0.015,0.015
226,-0.025,0.005
227,-0.015,0.005
228,0.035,0.025
229,0.045,0.015
230,0.055,0.005
231,0.115,0.025
232,0.115,0.035
233,0.135,0.025
234,0.155,0.005
235,0.145,0.025
236,0.155,0.035
237,0.155,0.025
238,0.115,0.025
239,0.095,0.025
240,0.035,0.035
241,-0.015,0.025
242,-0.095,-0.005
243,-0.145,-0.015
244,-0.165,-0.015
245,-0.195,-0.025
246,-0.215,-0.035
247,-0.215,-0.035
248,-0.235,-0.035
249,-0.235,-0.025
250,-0.225,-0.045
251,-0.235,-0.035
252,-0.215,-0.035
253,-0.215,-0.045
254,-0.225,-0.045
255,-0.205,-0.045
256,-0.215,-0.035
257,-0.195,-0.055
258,-0.205,-0.055
259,-0.215,-0.055
260,-0.185,-0.045
261,-0.205,-0.055
262,-0.205,-0.075
263,-0.205,-0.055
264,-0.205,-0.065
265,-0.215,-0.085
266,-0.215,-0.095
267,-0.245,-0.085
268,-0.225,-0.075
269,-0.225,-0.085
270,-0.225,-0.095
271,-0.215,-0.095
272,-0.225,-0.085
273,-0.215,-0.095
274,-0.235,-0.105
275,-0.245,-0.105
276,-0.245,-0.105
277,-0.225,-0.105
278,-0.225,-0.115
279,-0.235,-0.125
280,-0.215,-0.105
281,-0.235,-0.115
282,-0.235,-0.115
283,-0.245,-0.115
284,-0.235,-0.105
285,-0.245,-0.105
286,-0.245,-0.125
287,-0.215,-0.115
288,-0.235,-0.115
289,-0.245,-0.115
290,-0.235,-0.115
291,-0.245,-0.125
292,-0.245,-0.125
293,-0.225,-0.115
294,-0.235,-0.125
295,-0.205,-0.105
296,-0.225,-0.125
297,-0.235,-0.115
298,-0.205,-0.125
299,-0.225,-0.135
300,-0.215,-0.125
301,-0.225,-0.115
302,-0.215,-0.135
303,-0.205,-0.125
304,-0.165,-0.095
305,-0.135,-0.045
306,-0.115,-0.035
307,-0.085,-0.015
308,-0.055,0.025
309,-0.005,0.005
310,-0.025,-0.095
311,-0.015,-0.105
312,-0.075,-0.135
313,-0.135,-0.165
314,-0.165,-0.165
315,-0.195,-0.175
316,-0.195,-0.175
317,-0.175,-0.165
318,-0.185,-0.195
319,-0.155,-0.035
320,-0.105,0.045
321,0.115,-0.275
322,0.755,-0.455
323,1.325,-0.855
324,0.265,-1.015
325,-0.605,-0.535
326,-0.545,-0.165
327,-0.285,-0.155
328,-0.165,-0.135
329,-0.175,-0.145
330,-0.175,-0.145
331,-0.185,-0.135
332,-0.175,-0.115
333,-0.165,-0.105
334,-0.165,-0.125
335,-0.145,-0.115
336,-0.155,-0.105
337,-0.135,-0.095
338,-0.145,-0.115
339,-0.155,-0.095
340,-0.125,-0.085
341,-0.125,-0.095
342,-0.115,-0.095
343,-0.105,-0.095
344,-0.095,-0.065
345,-0.095,-0.085
346,-0.065,-0.075
347,-0.055,-0.085
348,-0.035,-0.065
349,-0.025,-0.075
350,0.005,-0.075
351,0.035,-0.055
352,0.055,-0.065
353,0.075,-0.065
354,0.095,-0.075
355,0.095,-0.075
356,0.135,-0.055
357,0.155,-0.065
358,0.165,-0.065
359,0.175,-0.065
360,0.155,-0.065
361,0.125,-0.065
362,0.075,-0.085
363,0.005,-0.085
364,-0.045,-0.085
365,-0.095,-0.115
366,-0.135,-0.145
367,-0.155,-0.125
368,-0.185,-0.145
369,-0.205,-0.155
370,-0.195,-0.155
371,-0.225,-0.155
372,-0.215,-0.145
373,-0.195,-0.145
374,-0.195,-0.155
375,-0.175,-0.155
376,-0.185,-0.135
377,-0.195,-0.145
378,-0.175,-0.145
379,-0.195,-0.155
380,-0.185,-0.145
381,-0.165,-0.135
382,-0.175,-0.155
383,-0.165,-0.165
384,-0.175,-0.165
385,-0.185,-0.155
386,-0.185,-0.175
387,-0.195,-0.175
388,-0.185,-0.175
389,-0.185,-0.165
390,-0.195,-0.175
391,-0.195,-0.185
392,-0.205,-0.185
393,-0.205,-0.185
394,-0.195,-0.195
395,-0.225,-0.195
396,-0.195,-0.175
397,-0.205,-0.185
398,-0.205,-0.195
399,-0.195,-0.185
400,-0.205,-0.195
401,-0.195,-0.185
402,-0.205,-0.195
403,-0.215,-0.195
404,-0.185,-0.185
405,-0.205,-0.195
406,-0.215,-0.205
407,-0.165,-0.195
408,-0.205,-0.205
409,-0.195,-0.185
410,-0.165,-0.195
411,-0.215,-0.195
412,-0.205,-0.195
413,-0.185,-0.185
414,-0.185,-0.205
415,-0.175,-0.205
416,-0.185,-0.195
417,-0.175,-0.185
418,-0.185,-0.205
419,-0.185,-0.195
420,-0.165,-0.185
421,-0.185,-0.185
422,-0.185,-0.195
423,-0.165,-0.185
424,-0.175,-0.175
425,-0.165,-0.195
426,-0.175,-0.195
427,-0.145,-0.165
428,-0.105,-0.105
429,-0.055,-0.085
430,-0.065,-0.075
431,-0.015,-0.035
432,0.025,-0.035
433,0.015,-0.145
434,0.005,-0.185
435,-0.055,-0.205
436,-0.085,-0.205
437,-0.145,-0.205
438,-0.185,-0.235
439,-0.155,-0.235
440,-0.155,-0.225
441,-0.165,-0.235
442,-0.135,-0.095
443,-0.115,-0.015
444,0.095,-0.315
445,0.815,-0.535
446,1.595,-0.885
447,0.585,-1.125
448,-0.565,-0.785
449,-0.595,-0.255
450,-0.275,-0.175
451,-0.145,-0.145
452,-0.145,-0.155
453,-0.135,-0.145
454,-0.135,-0.145
455,-0.135,-0.135
456,-0.145,-0.125
457,-0.155,-0.105
458,-0.105,-0.095
459,-0.135,-0.095
460,-0.125,-0.085
461,-0.115,-0.085
462,-0.125,-0.085
463,-0.075,-0.075
464,-0.085,-0.065
465,-0.095,-0.065
466,-0.055,-0.075
467,-0.065,-0.065
468,-0.035,-0.045
469,-0.005,-0.045
470,-0.005,-0.045
471,0.035,-0.045
472,0.045,-0.035
473,0.045,-0.025
474,0.085,-0.035
475,0.105,-0.025
476,0.145,-0.005
477,0.175,-0.005
478,0.185,-0.025
479,0.215,-0.015
480,0.245,-0.005
481,0.245,0.005
482,0.255,-0.015
483,0.235,-0.015
484,0.205,-0.015
485,0.185,-0.025
486,0.145,-0.045
487,0.085,-0.055
488,0.015,-0.065
489,-0.065,-0.075
490,-0.085,-0.095
491,-0.115,-0.105
492,-0.125,-0.105
493,-0.165,-0.115
494,-0.155,-0.125
495,-0.155,-0.105
496,-0.155,-0.115
497,-0.165,-0.125
498,-0.155,-0.125
499,-0.165,-0.115
500,-0.135,-0.105
501,-0.145,-0.125
502,-0.145,-0.125
503,-0.115,-0.125
504,-0.125,-0.115
505,-0.125,-0.125
506,-0.125,-0.135
507,-0.135,-0.125
508,-0.135,-0.125
509,-0.125,-0.125
510,-0.135,-0.145
511,-0.135,-0.145
512,-0.125,-0.135
513,-0.135,-0.145
514,-0.155,-0.155
515,-0.155,-0.155
516,-0.155,-0.145
517,-0.165,-0.155
518,-0.165,-0.155
519,-0.135,-0.165
520,-0.135,-0.165
521,-0.155,-0.165
522,-0.165,-0.155
523,-0.165,-0.165
524,-0.135,-0.165
525,-0.155,-0.165
526,-0.145,-0.175
527,-0.125,-0.165
528,-0.145,-0.165
529,-0.135,-0.175
530,-0.165,-0.185
531,-0.185,-0.175
532,-0.115,-0.165
533,-0.135,-0.165
534,-0.155,-0.185
535,-0.135,-0.175
536,-0.195,-0.185
537,-0.115,-0.185
538,-0.095,-0.185
539,-0.135,-0.185
540,-0.105,-0.175
541,-0.055,-0.175
542,-0.085,-0.205
543,-0.065,-0.185
544,-0.055,-0.175
545,-0.055,-0.165
546,-0.065,-0.185
547,-0.055,-0.165
548,-0.055,-0.165
549,-0.005,-0.145
550,0.025,-0.105
551,0.075,-0.065
552,0.055,-0.055
553,0.105,-0.025
554,0.155,-0.025
555,0.135,-0.115
556,0.145,-0.125
557,0.075,-0.175
558,0.015,-0.195
559,-0.035,-0.185
560,-0.065,-0.195
561,-0.025,-0.195
562,-0.025,-0.205
563,-0.055,-0.185
564,-0.035,-0.095
565,0.005,0.025
566,0.105,-0.195
567,0.715,-0.385
568,1.405,-0.645
569,0.685,-0.935
570,-0.355,-0.715
571,-0.555,-0.285
572,-0.305,-0.125
573,-0.065,-0.145
574,-0.065,-0.145
575,-0.045,-0.135
576,-0.055,-0.125
577,-0.065,-0.125
578,-0.075,-0.115
579,-0.015,-0.105
580,-0.035,-0.095
581,-0.035,-0.095
582,-0.025,-0.095
583,-0.045,-0.075
584,-0.025,-0.085
585,-0.005,-0.055
586,0.005,-0.075
587,0.005,-0.065
588,0.035,-0.055
589,0.005,-0.045
590,0.055,-0.055
591,0.085,-0.035
592,0.095,-0.035
593,0.105,-0.025
594,0.125,-0.045
595,0.145,-0.015
596,0.175,-0.005
597,0.185,-0.005
598,0.225,-0.005
599,0.235,-0.005
600,0.265,0.005
601,0.285,0.015
602,0.275,0.015
603,0.305,0.005
604,0.315,0.035
605,0.315,0.025
606,0.305,0.025
607,0.285,0.025
608,0.215,0.035
609,0.135,0.025
610,0.095,0.005
611,0.015,-0.025
612,-0.005,-0.025
613,-0.025,-0.045
614,-0.085,-0.045
615,-0.035,-0.035
616,-0.075,-0.045
617,-0.065,-0.045
618,-0.065,-0.045
619,-0.075,-0.045
620,-0.055,-0.035
621,-0.045,-0.035
622,-0.045,-0.045
623,-0.025,-0.045
624,-0.025,-0.025
625,-0.045,-0.035
626,-0.045,-0.035
627,-0.045,-0.045
628,-0.025,-0.035
629,-0.035,-0.035
630,-0.055,-0.055
631,-0.025,-0.035
632,-0.035,-0.025
633,-0.015,-0.025
634,-0.035,-0.045
635,-0.055,-0.055
636,-0.065,-0.025
637,-0.055,-0.025
638,-0.055,-0.035
639,-0.055,-0.035
640,-0.035,-0.025
641,-0.045,-0.035
642,-0.045,-0.035
643,-0.065,-0.035
644,-0.065,-0.035
645,-0.055,-0.025
646,-0.035,-0.035
647,-0.045,-0.045
648,-0.035,-0.025
649,-0.025,-0.035
650,-0.015,-0.035
651,-0.055,-0.035
652,-0.035,-0.025
653,-0.035,-0.045
654,-0.055,-0.045
655,-0.035,-0.035
656,-0.025,-0.025
657,-0.065,-0.045
658,-0.045,-0.045
659,-0.035,-0.035
660,-0.025,-0.025
661,-0.025,-0.025
662,-0.055,-0.055
663,-0.025,-0.025
664,-0.035,-0.025
665,-0.015,-0.025
666,-0.035,-0.035
667,-0.035,-0.035
668,-0.025,-0.015
669,-0.045,-0.005
670,-0.045,-0.025
671,-0.025,-0.015
672,0.015,0.005
673,0.045,0.045
674,0.075,0.065
675,0.065,0.085
676,0.115,0.125
677,0.155,0.165
678,0.155,0.065
679,0.155,0.015
680,0.115,0.005
681,0.055,-0.015
682,-0.005,-0.045
683,-0.035,-0.045
684,-0.025,-0.055
685,-0.025,-0.065
686,-0.025,-0.055
687,0.005,-0.035
688,0.025,0.155
689,0.065,0.025
690,0.685,-0.285
691,1.375,-0.515
692,1.295,-0.835
693,-0.095,-0.905
694,-0.505,-0.365
695,-0.305,-0.035
696,-0.015,-0.015
697,0.015,-0.015
698,-0.015,-0.025
699,-0.035,-0.015
700,-0.025,0.005
701,-0.005,0.015
702,-0.005,-0.005
703,0.005,0.015
704,0.015,0.035
705,0.005,0.045
706,0.005,0.025
707,0.005,0.035
708,0.025,0.055
709,0.045,0.055
710,0.035,0.045
711,0.045,0.045
712,0.065,0.075
713,0.085,0.085
714,0.105,0.085
715,0.105,0.065
716,0.125,0.085
717,0.145,0.105
718,0.145,0.085
719,0.175,0.095
720,0.195,0.125
721,0.225,0.125
722,0.255,0.125
723,0.265,0.125
724,0.285,0.125
725,0.315,0.135
726,0.345,0.135
727,0.345,0.125
728,0.295,0.125
729,0.335,0.135
730,0.315,0.105
731,0.225,0.105
732,0.165,0.115
733,0.135,0.095
734,0.075,0.065
735,0.035,0.045
736,0.025,0.065
737,-0.025,0.045
738,-0.035,0.035
739,-0.065,0.035
740,-0.045,0.035
741,-0.035,0.035
742,-0.045,0.025
743,-0.035,0.035
744,-0.035,0.035
745,-0.035,0.035
746,-0.015,0.025
747,-0.005,0.045
748,0.005,0.055
749,-0.025,0.045
750,-0.005,0.025
751,-0.005,0.045
752,-0.005,0.055
753,-0.015,0.045
754,0.005,0.025
755,-0.075,0.025
756,-0.045,0.025
757,-0.025,0.035
758,-0.035,0.015
759,-0.015,0.015
760,-0.055,0.035
761,-0.045,0.025
762,-0.015,0.005
763,-0.075,0.015
764,-0.035,0.015
765,-0.025,0.025
766,-0.075,-0.005
767,-0.055,0.015
768,-0.075,0.015
769,-0.055,0.005
770,-0.035,-0.005
771,-0.045,0.005
772,-0.055,0.005
773,-0.055,0.005
774,-0.035,-0.005
775,-0.085,0.015
776,-0.045,0.005
777,-0.035,0.005
778,-0.045,-0.005
779,-0.055,0.005
780,-0.045,-0.005
781,-0.045,0.015
782,-0.055,-0.005
783,-0.085,-0.005
784,-0.025,-0.005
785,-0.025,0.005
786,-0.045,-0.015
787,-0.055,-0.005
788,-0.035,-0.005
789,-0.035,0.005
790,-0.035,-0.005
791,-0.045,-0.005
792,-0.055,-0.005
793,-0.045,0.005
794,-0.045,-0.015
795,-0.025,0.005
796,-0.035,0.015
797,-0.045,0.015
798,0.005,0.045
799,0.065,0.085
800,0.055,0.115
801,0.085,0.145
802,0.185,0.145
803,0.125,0.045
804,0.125,0.045
805,0.085,-0.005
806,0.035,-0.035
807,-0.015,-0.035
808,-0.065,-0.035
809,-0.065,-0.045
810,-0.035,-0.045
811,-0.045,-0.055
812,0.005,0.055
813,0.025,0.195
814,0.105,-0.065
815,0.815,-0.265
816,1.515,-0.575
817,0.785,-0.915
818,-0.375,-0.715
819,-0.545,-0.145
820,-0.215,-0.025
821,-0.035,-0.015
822,-0.015,-0.005
823,-0.055,-0.005
824,-0.035,0.015
825,-0.045,0.015
826,-0.065,0.005
827,-0.045,0.015
828,-0.045,0.045
829,-0.035,0.045
830,-0.025,0.025
831,-0.005,0.055
832,-0.035,0.045
833,-0.015,0.045
834,0.015,0.045
835,-0.005,0.045
836,0.025,0.065
837,0.035,0.065
838,0.045,0.045
839,0.075,0.075
840,0.065,0.065
841,0.095,0.095
842,0.135,0.065
843,0.145,0.085
844,0.175,0.095
845,0.195,0.085
846,0.205,0.065
847,0.255,0.085
848,0.265,0.095
849,0.275,0.085
850,0.295,0.075
851,0.295,0.105
852,0.315,0.095
853,0.305,0.085
854,0.265,0.065
855,0.205,0.085
856,0.155,0.085
857,0.115,0.075
858,0.035,0.055
859,-0.025,0.045
860,-0.055,0.035
861,-0.065,0.035
862,-0.095,0.005
863,-0.095,0.005
864,-0.115,0.005
865,-0.105,0.015
866,-0.105,-0.005
867,-0.125,-0.005
868,-0.105,0.005
869,-0.095,-0.005
870,-0.085,0.005
871,-0.095,-0.015
872,-0.085,-0.015
873,-0.075,-0.005
874,-0.075,-0.025
875,-0.095,-0.015
876,-0.095,-0.025
877,-0.105,-0.035
878,-0.095,-0.045
879,-0.085,-0.045
880,-0.105,-0.035
881,-0.115,-0.055
882,-0.115,-0.065
883,-0.125,-0.065
884,-0.125,-0.065
885,-0.135,-0.055
886,-0.135,-0.075
887,-0.115,-0.065
888,-0.115,-0.065
889,-0.125,-0.075
890,-0.135,-0.075
891,-0.155,-0.095
892,-0.145,-0.075
893,-0.145,-0.075
894,-0.135,-0.075
895,-0.115,-0.095
896,-0.125,-0.085
897,-0.145,-0.085
898,-0.135,-0.095
899,-0.145,-0.105
900,-0.125,-0.075
901,-0.145,-0.085
902,-0.145,-0.095
903,-0.135,-0.095
904,-0.135,-0.105
905,-0.125,-0.085
906,-0.125,-0.105
907,-0.125,-0.105
908,-0.115,-0.095
909,-0.125,-0.095
910,-0.135,-0.115
911,-0.125,-0.105
912,-0.115,-0.085
913,-0.115,-0.095
914,-0.115,-0.105
915,-0.115,-0.115
916,-0.105,-0.105
917,-0.115,-0.085
918,-0.115,-0.115
919,-0.095,-0.105
920,-0.085,-0.105
921,-0.105,-0.095
922,-0.105,-0.115
923,-0.105,-0.105
924,-0.075,-0.065
925,-0.005,-0.015
926,-0.015,-0.025
927,0.015,0.005
928,0.095,0.075
929,0.105,-0.005
930,0.075,-0.095
931,0.055,-0.095
932,-0.005,-0.115
933,-0.065,-0.135
934,-0.105,-0.155
935,-0.085,-0.145
936,-0.105,-0.155
937,-0.085,-0.155
938,-0.065,-0.125
939,-0.055,0.085
940,0.005,-0.075
941,0.535,-0.335
942,1.235,-0.545
943,1.195,-0.865
944,-0.035,-0.895
945,-0.555,-0.405
946,-0.415,-0.115
947,-0.145,-0.115
948,-0.065,-0.105
949,-0.095,-0.115
950,-0.095,-0.115
951,-0.065,-0.085
952,-0.065,-0.085
953,-0.065,-0.075
954,-0.065,-0.085
955,-0.105,-0.065
956,-0.075,-0.065
957,-0.065,-0.065
958,-0.055,-0.065
959,-0.025,-0.055
960,-0.055,-0.065
961,-0.045,-0.055
962,-0.005,-0.055
963,-0.005,-0.045
964,0.005,-0.045
965,0.015,-0.055
966,0.035,-0.035
967,0.065,-0.045
968,0.055,-0.035
969,0.095,-0.025
970,0.105,-0.025
971,0.115,-0.005
972,0.155,-0.015
973,0.165,-0.025
974,0.205,-0.015
975,0.225,-0.015
976,0.235,-0.015
977,0.265,-0.015
978,0.255,-0.005
979,0.225,-0.015
980,0.225,-0.015
981,0.195,0.005
982,0.135,-0.025
983,0.095,-0.015
984,0.035,-0.025
985,-0.045,-0.035
986,-0.085,-0.055
987,-0.145,-0.075
988,-0.135,-0.065
989,-0.135,-0.075
990,-0.145,-0.085
991,-0.125,-0.065
992,-0.115,-0.065
993,-0.105,-0.065
994,-0.125,-0.095
995,-0.135,-0.055
996,-0.105,-0.065
997,-0.085,-0.065
998,-0.095,-0.085
999,-0.065,-0.085
1000,-0.065,-0.065
1001,-0.065,-0.065
1002,-0.085,-0.085
1003,-0.055,-0.085
1004,-0.055,-0.065
1005,-0.055,-0.075
1006,-0.065,-0.095
1007,-0.045,-0.085
1008,-0.065,-0.085
1009,-0.075,-0.095
1010,-0.065,-0.095
1011,-0.085,-0.095
1012,-0.085,-0.095
1013,-0.095,-0.095
1014,-0.105,-0.105
1015,-0.065,-0.085
1016,-0.075,-0.085
1017,-0.095,-0.075
1018,-0.095,-0.085
1019,-0.105,-0.075
1020,-0.115,-0.085
1021,-0.095,-0.075
1022,-0.095,-0.065
1023,-0.085,-0.085
1024,-0.105,-0.065
1025,-0.115,-0.075
1026,-0.105,-0.055
1027,-0.115,-0.075
1028,-0.115,-0.065
1029,-0.125,-0.065
1030,-0.105,-0.065
1031,-0.095,-0.065
1032,-0.105,-0.035
1033,-0.105,-0.035
1034,-0.095,-0.045
1035,-0.105,-0.025
1036,-0.095,-0.015
1037,-0.105,-0.015
1038,-0.115,-0.025
1039,-0.065,-0.005
1040,-0.095,-0.005
1041,-0.095,0.005
1042,-0.095,-0.005
1043,-0.095,0.005
1044,-0.075,0.015
1045,-0.085,0.005
1046,-0.095,-0.025
1047,-0.085,0.025
1048,-0.025,0.055
1049,0.015,0.085
1050,0.015,0.085
1051,0.045,0.115
1052,0.105,0.125
1053,0.085,0.045
1054,0.095,0.015
1055,0.025,-0.005
1056,-0.015,-0.025
1057,-0.065,-0.035
1058,-0.095,-0.055
1059,-0.125,-0.055
1060,-0.075,-0.065
1061,-0.095,-0.065
1062,-0.065,0.005
1063,-0.025,0.125
1064,0.125,-0.085
1065,0.855,-0.345
1066,1.625,-0.695
1067,0.805,-0.975
1068,-0.395,-0.685
1069,-0.545,-0.185
1070,-0.285,-0.085
1071,-0.065,-0.045
1072,-0.045,-0.025
1073,-0.095,-0.035
1074,-0.085,-0.045
1075,-0.115,-0.025
1076,-0.105,-0.005
1077,-0.055,-0.005
1078,-0.055,-0.005
1079,-0.055,0.005
1080,-0.065,0.015
1081,-0.045,0.025
1082,-0.075,0.005
1083,-0.055,0.025
1084,-0.045,0.035
1085,-0.035,0.035
1086,-0.005,0.035
1087,0.005,0.045
1088,0.015,0.055
1089,0.005,0.045
1090,0.035,0.055
1091,0.055,0.045
1092,0.075,0.075
1093,0.075,0.065
1094,0.105,0.065
1095,0.145,0.085
1096,0.165,0.105
1097,0.175,0.095
1098,0.205,0.085
1099,0.225,0.085
1100,0.265,0.125
1101,0.265,0.095
1102,0.275,0.095
1103,0.265,0.085
1104,0.265,0.095
1105,0.205,0.095
1106,0.175,0.055
1107,0.135,0.065
1108,0.035,0.045
1109,-0.015,0.035
1110,-0.065,0.005
1111,-0.085,-0.005
1112,-0.115,-0.015
1113,-0.145,-0.015
1114,-0.155,-0.025
1115,-0.135,-0.045
1116,-0.145,-0.025
1117,-0.135,-0.015
1118,-0.135,-0.035
1119,-0.135,-0.025
1120,-0.115,-0.025
1121,-0.115,-0.015
1122,-0.125,-0.035
1123,-0.125,-0.025
1124,-0.115,-0.015
1125,-0.095,-0.025
1126,-0.085,-0.025
1127,-0.085,-0.025
1128,-0.105,-0.015
1129,-0.125,-0.015
1130,-0.115,-0.045
1131,-0.115,-0.035
1132,-0.135,-0.025
1133,-0.135,-0.045
1134,-0.135,-0.055
1135,-0.125,-0.045
1136,-0.135,-0.035
1137,-0.165,-0.045
1138,-0.125,-0.045
1139,-0.155,-0.045
1140,-0.155,-0.035
1141,-0.145,-0.055
1142,-0.145,-0.055
1143,-0.125,-0.055
1144,-0.145,-0.055
1145,-0.135,-0.045
1146,-0.145,-0.055
1147,-0.175,-0.055
1148,-0.155,-0.045
1149,-0.135,-0.055
1150,-0.145,-0.055
1151,-0.135,-0.055
1152,-0.135,-0.045
1153,-0.145,-0.055
1154,-0.145,-0.065
1155,-0.165,-0.065
1156,-0.155,-0.065
1157,-0.155,-0.055
1158,-0.145,-0.065
1159,-0.125,-0.055
1160,-0.135,-0.055
1161,-0.145,-0.055
1162,-0.125,-0.055
1163,-0.135,-0.065
1164,-0.165,-0.065
1165,-0.135,-0.045
1166,-0.115,-0.055
1167,-0.105,-0.055
1168,-0.105,-0.055
1169,-0.145,-0.055
1170,-0.115,-0.065
1171,-0.155,-0.055
1172,-0.115,-0.045
1173,-0.095,-0.015
1174,-0.035,0.015
1175,-0.045,0.025
1176,-0.015,0.065
1177,0.045,0.115
1178,0.095,0.065
1179,0.075,-0.025
1180,0.055,-0.035
1181,-0.005,-0.075
1182,-0.065,-0.085
1183,-0.095,-0.095
1184,-0.135,-0.085
1185,-0.125,-0.095
1186,-0.105,-0.105
1187,-0.135,-0.105
1188,-0.095,0.005
1189,-0.065,0.145
1190,0.045,-0.145
1191,0.775,-0.365
1192,1.495,-0.705
1193,0.855,-1.005
1194,-0.405,-0.765
1195,-0.605,-0.205
1196,-0.325,-0.065
1197,-0.085,-0.055
1198,-0.085,-0.085
1199,-0.105,-0.065
1200,-0.125,-0.055
1201,-0.095,-0.045
1202,-0.105,-0.045
1203,-0.105,-0.045
1204,-0.095,-0.015
1205,-0.075,-0.015
1206,-0.075,-0.035
1207,-0.055,-0.015
1208,-0.075,0.005
1209,-0.065,0.005
1210,-0.055,-0.005
1211,-0.035,-0.005
1212,-0.025,0.005
1213,-0.005,0.025
1214,-0.005,0.015
1215,0.025,0.025
1216,0.045,0.015
1217,0.045,0.025
1218,0.075,0.025
1219,0.085,0.025
1220,0.095,0.045
1221,0.135,0.045
1222,0.165,0.035
1223,0.195,0.045
1224,0.225,0.065
1225,0.225,0.045
1226,0.235,0.045
1227,0.245,0.065
1228,0.245,0.055
1229,0.255,0.065
1230,0.215,0.035
1231,0.195,0.045
1232,0.155,0.045
1233,0.095,0.035
1234,0.035,0.005
1235,-0.015,0.005
1236,-0.055,-0.005
1237,-0.095,-0.005
1238,-0.105,-0.025
1239,-0.125,-0.045
1240,-0.135,-0.035
1241,-0.145,-0.035
1242,-0.155,-0.055
1243,-0.155,-0.035
1244,-0.135,-0.045
1245,-0.125,-0.025
1246,-0.115,-0.045
1247,-0.115,-0.045
1248,-0.115,-0.025
1249,-0.115,-0.035
1250,-0.135,-0.045
1251,-0.135,-0.055
1252,-0.125,-0.035
1253,-0.125,-0.055
1254,-0.135,-0.065
1255,-0.135,-0.065
1256,-0.135,-0.055
1257,-0.145,-0.065
1258,-0.155,-0.075
1259,-0.175,-0.075
1260,-0.155,-0.055
1261,-0.145,-0.055
1262,-0.155,-0.075
1263,-0.145,-0.075
1264,-0.165,-0.065
1265,-0.165,-0.065
1266,-0.175,-0.085
1267,-0.205,-0.085
1268,-0.185,-0.075
1269,-0.175,-0.065
1270,-0.145,-0.095
1271,-0.155,-0.085
1272,-0.215,-0.075
1273,-0.165,-0.075
1274,-0.185,-0.085
1275,-0.145,-0.085
1276,-0.255,-0.085
1277,-0.075,-0.065
1278,-0.095,-0.055
1279,-0.125,-0.095
1280,-0.095,-0.065
1281,-0.135,-0.065
1282,-0.085,-0.075
1283,-0.085,-0.075
1284,-0.105,-0.085
1285,-0.095,-0.065
1286,-0.095,-0.085
1287,-0.085,-0.085
1288,-0.085,-0.085
1289,-0.065,-0.095
1290,-0.075,-0.095
1291,-0.085,-0.085
1292,-0.075,-0.075
1293,-0.105,-0.085
1294,-0.075,-0.105
1295,-0.065,-0.085
1296,-0.075,-0.075
1297,-0.065,-0.075
1298,-0.015,-0.045
1299,0.005,0.005
1300,0.005,0.025
1301,0.055,0.055
1302,0.085,0.085
1303,0.115,0.015
1304,0.085,-0.035
1305,0.065,-0.065
1306,0.005,-0.105
1307,-0.105,-0.105
1308,-0.115,-0.105
1309,-0.105,-0.115
1310,-0.115,-0.115
1311,-0.105,-0.125
1312,-0.075,-0.055
1313,-0.085,0.125
1314,-0.015,-0.095
1315,0.615,-0.305
1316,1.385,-0.545
1317,1.065,-0.875
1318,-0.275,-0.775
1319,-0.595,-0.265
1320,-0.385,-0.095
1321,-0.135,-0.085
1322,-0.095,-0.085
1323,-0.095,-0.065
1324,-0.105,-0.065
1325,-0.095,-0.045
1326,-0.105,-0.065
1327,-0.085,-0.035
1328,-0.075,-0.045
1329,-0.085,-0.025
1330,-0.075,-0.025
1331,-0.095,-0.015
1332,-0.095,-0.005
1333,-0.065,-0.015
1334,-0.055,-0.015
1335,-0.015,0.005
1336,-0.015,0.025
1337,-0.005,0.015
1338,0.005,-0.005
1339,0.015,0.005
1340,0.035,0.005
1341,0.035,0.005
1342,0.045,0.025
1343,0.085,0.025
1344,0.105,0.035
1345,0.125,0.035
1346,0.155,0.025
1347,0.165,0.025
1348,0.225,0.045
1349,0.245,0.035
1350,0.255,0.025
1351,0.255,0.035
1352,0.245,0.045
1353,0.255,0.045
1354,0.255,0.025
1355,0.195,0.035
1356,0.155,0.035
1357,0.095,0.035
1358,0.025,-0.005
1359,-0.025,-0.015
1360,-0.085,-0.005
1361,-0.105,-0.025
1362,-0.125,-0.035
1363,-0.135,-0.045
1364,-0.165,-0.025
1365,-0.125,-0.025
1366,-0.135,-0.045
1367,-0.105,-0.045
1368,-0.105,-0.045
1369,-0.145,-0.035
1370,-0.115,-0.035
1371,-0.105,-0.035
1372,-0.105,-0.045
1373,-0.115,-0.045
1374,-0.115,-0.065
1375,-0.095,-0.045
1376,-0.105,-0.045
1377,-0.095,-0.055
1378,-0.105,-0.065
1379,-0.105,-0.065
1380,-0.105,-0.055
1381,-0.135,-0.065
1382,-0.135,-0.085
1383,-0.145,-0.085
1384,-0.115,-0.065
1385,-0.095,-0.075
1386,-0.115,-0.095
1387,-0.125,-0.085
1388,-0.125,-0.075
1389,-0.125,-0.075
1390,-0.125,-0.085
1391,-0.135,-0.095
1392,-0.125,-0.085
1393,-0.125,-0.085
1394,-0.135,-0.115
1395,-0.125,-0.095
1396,-0.105,-0.095
1397,-0.115,-0.085
1398,-0.115,-0.115
1399,-0.105,-0.115
1400,-0.105,-0.095
1401,-0.115,-0.105
1402,-0.115,-0.105
1403,-0.125,-0.125
1404,-0.105,-0.085
1405,-0.115,-0.105
1406,-0.105,-0.115
1407,-0.085,-0.115
1408,-0.085,-0.115
1409,-0.095,-0.115
1410,-0.105,-0.135
1411,-0.105,-0.125
1412,-0.095,-0.125
1413,-0.095,-0.115
1414,-0.095,-0.135
1415,-0.085,-0.125
1416,-0.075,-0.115
1417,-0.085,-0.115
1418,-0.075,-0.105
1419,-0.055,-0.075
1420,-0.015,-0.025
1421,-0.015,-0.025
1422,0.015,0.015
1423,0.065,0.025
1424,0.085,-0.065
1425,0.045,-0.115
1426,0.015,-0.165
1427,-0.025,-0.175
1428,-0.075,-0.165
1429,-0.115,-0.175
1430,-0.135,-0.205
1431,-0.105,-0.205
1432,-0.115,-0.195
1433,-0.105,-0.155
1434,-0.105,0.015
1435,-0.085,-0.115
1436,0.385,-0.385
1437,1.055,-0.605
1438,1.065,-0.945
1439,-0.045,-0.925
1440,-0.555,-0.385
1441,-0.435,-0.175
1442,-0.185,-0.175
1443,-0.165,-0.175
1444,-0.155,-0.185
1445,-0.145,-0.155
1446,-0.165,-0.175
1447,-0.155,-0.165
1448,-0.145,-0.145
1449,-0.145,-0.155
1450,-0.145,-0.165
1451,-0.155,-0.155
1452,-0.125,-0.135
1453,-0.125,-0.155
1454,-0.115,-0.145
1455,-0.105,-0.135
1456,-0.095,-0.135
1457,-0.095,-0.145
1458,-0.075,-0.135
1459,-0.075,-0.135
1460,-0.055,-0.125
1461,-0.025,-0.125
1462,-0.015,-0.135
1463,0.005,-0.125
1464,0.025,-0.105
1465,0.045,-0.115
1466,0.065,-0.105
1467,0.065,-0.105
1468,0.125,-0.115
1469,0.125,-0.105
1470,0.175,-0.115
1471,0.195,-0.105
1472,0.195,-0.105
1473,0.195,-0.095
1474,0.195,-0.115
1475,0.145,-0.105
1476,0.125,-0.095
1477,0.075,-0.105
1478,0.015,-0.125
1479,-0.035,-0.135
1480,-0.115,-0.145
1481,-0.135,-0.165
1482,-0.175,-0.165
1483,-0.205,-0.175
1484,-0.185,-0.165
1485,-0.225,-0.155
1486,-0.225,-0.195
1487,-0.195,-0.175
1488,-0.185,-0.155
1489,-0.195,-0.165
1490,-0.185,-0.185
1491,-0.205,-0.185
1492,-0.185,-0.165
1493,-0.175,-0.155
1494,-0.185,-0.175
1495,-0.175,-0.175
1496,-0.165,-0.165
1497,-0.175,-0.185
1498,-0.185,-0.185
1499,-0.195,-0.185
1500,-0.185,-0.175
1501,-0.175,-0.185
1502,-0.195,-0.175
1503,-0.165,-0.195
1504,-0.185,-0.175
1505,-0.185,-0.175
1506,-0.185,-0.195
1507,-0.205,-0.195
1508,-0.195,-0.185
1509,-0.205,-0.185
1510,-0.215,-0.205
1511,-0.175,-0.205
1512,-0.195,-0.185
1513,-0.185,-0.195
1514,-0.195,-0.195
1515,-0.195,-0.195
1516,-0.175,-0.205
1517,-0.195,-0.195
1518,-0.185,-0.205
1519,-0.185,-0.195
1520,-0.175,-0.205
1521,-0.195,-0.195
1522,-0.195,-0.215
1523,-0.205,-0.205
1524,-0.185,-0.205
1525,-0.175,-0.205
1526,-0.175,-0.215
1527,-0.185,-0.205
1528,-0.175,-0.185
1529,-0.175,-0.225
1530,-0.195,-0.225
1531,-0.195,-0.215
1532,-0.175,-0.195
1533,-0.175,-0.175
1534,-0.125,-0.155
1535,-0.065,-0.125
1536,-0.085,-0.095
1537,-0.055,-0.075
1538,-0.005,-0.085
1539,0.025,-0.145
1540,-0.025,-0.185
1541,-0.025,-0.195
1542,-0.105,-0.225
1543,-0.145,-0.225
1544,-0.155,-0.225
1545,-0.165,-0.235
1546,-0.165,-0.235
1547,-0.155,-0.245
1548,-0.135,-0.195
1549,-0.115,0.005
1550,-0.025,-0.135
1551,0.605,-0.405
1552,1.355,-0.675
1553,1.055,-0.955
1554,-0.185,-0.855
1555,-0.625,-0.405
1556,-0.465,-0.185
1557,-0.195,-0.215
1558,-0.135,-0.215
1559,-0.125,-0.205
1560,-0.135,-0.185
1561,-0.135,-0.195
1562,-0.115,-0.195
1563,-0.135,-0.195
1564,-0.115,-0.165
1565,-0.115,-0.165
1566,-0.115,-0.175
1567,-0.075,-0.175
1568,-0.075,-0.145
1569,-0.085,-0.145
1570,-0.085,-0.145
1571,-0.075,-0.155
1572,-0.045,-0.135
1573,-0.035,-0.125
1574,-0.015,-0.135
1575,0.015,-0.155
1576,0.025,-0.115
1577,0.035,-0.135
1578,0.055,-0.135
1579,0.055,-0.115
1580,0.095,-0.105
1581,0.115,-0.105
1582,0.145,-0.115
1583,0.195,-0.095
1584,0.195,-0.095
1585,0.215,-0.105
1586,0.235,-0.095
1587,0.195,-0.085
1588,0.215,-0.085
1589,0.215,-0.075
1590,0.175,-0.075
1591,0.155,-0.065
1592,0.085,-0.055
1593,0.025,-0.075
1594,-0.035,-0.085
1595,-0.085,-0.095
1596,-0.085,-0.115
1597,-0.125,-0.115
1598,-0.115,-0.135
1599,-0.115,-0.125
1600,-0.135,-0.115
1601,-0.125,-0.115
1602,-0.135,-0.135
1603,-0.115,-0.115
1604,-0.115,-0.125
1605,-0.115,-0.115
1606,-0.095,-0.125
1607,-0.085,-0.135
1608,-0.075,-0.095
1609,-0.085,-0.125
1610,-0.075,-0.115
1611,-0.075,-0.125
1612,-0.065,-0.095
1613,-0.075,-0.125
1614,-0.085,-0.115
1615,-0.065,-0.115
1616,-0.055,-0.105
1617,-0.085,-0.105
1618,-0.095,-0.125
1619,-0.105,-0.115
1620,-0.095,-0.125
1621,-0.085,-0.115
1622,-0.095,-0.135
1623,-0.085,-0.105
1624,-0.085,-0.105
1625,-0.085,-0.105
1626,-0.115,-0.135
1627,-0.095,-0.135
1628,-0.095,-0.105
1629,-0.105,-0.115
1630,-0.115,-0.135
1631,-0.075,-0.135
1632,-0.095,-0.105
1633,-0.095,-0.105
1634,-0.105,-0.125
1635,-0.105,-0.125
1636,-0.105,-0.105
1637,-0.085,-0.105
1638,-0.095,-0.115
1639,-0.085,-0.125
1640,-0.085,-0.115
1641,-0.095,-0.095
1642,-0.085,-0.105
1643,-0.095,-0.115
1644,-0.095,-0.085
1645,-0.075,-0.095
1646,-0.075,-0.085
1647,-0.025,-0.065
1648,0.035,-0.015
1649,0.025,0.005
1650,0.055,0.005
1651,0.075,0.045
1652,0.115,-0.025
1653,0.095,-0.065
1654,0.065,-0.115
1655,0.005,-0.115
1656,-0.055,-0.115
1657,-0.075,-0.125
1658,-0.065,-0.135
1659,-0.085,-0.135
1660,-0.055,-0.145
1661,-0.065,-0.065
1662,-0.015,0.105
1663,0.155,-0.085
1664,0.885,-0.395
1665,1.665,-0.665
1666,1.215,-0.995
1667,-0.295,-0.785
1668,-0.565,-0.275
1669,-0.315,-0.075
1670,-0.055,-0.075
1671,-0.035,-0.075
1672,-0.055,-0.055
1673,-0.045,-0.075
1674,-0.055,-0.065
1675,-0.075,-0.055
1676,-0.065,-0.045
1677,-0.045,-0.025
1678,-0.055,-0.045
1679,-0.025,-0.035
1680,-0.025,-0.015
1681,-0.025,-0.015
1682,-0.025,-0.015
1683,-0.015,-0.015
1684,0.005,0.005
1685,0.015,0.005
1686,-0.005,-0.005
1687,0.025,0.005
1688,0.045,0.005
1689,0.055,0.025
1690,0.095,0.035
1691,0.085,0.025
1692,0.115,0.045
1693,0.145,0.055
1694,0.175,0.055
1695,0.195,0.065
1696,0.215,0.095
1697,0.225,0.075
1698,0.245,0.085
1699,0.245,0.105
1700,0.265,0.105
1701,0.255,0.115
1702,0.235,0.095
1703,0.225,0.085
1704,0.165,0.085
1705,0.115,0.065
1706,0.055,0.035
1707,-0.005,0.025
1708,-0.025,0.025
1709,-0.075,-0.005
1710,-0.095,-0.015
1711,-0.095,-0.005
1712,-0.125,-0.005
1713,-0.125,-0.015
1714,-0.115,-0.015
1715,-0.125,-0.005
1716,-0.105,-0.005
1717,-0.095,-0.005
1718,-0.095,-0.015
1719,-0.085,-0.005
1720,-0.085,0.025
1721,-0.065,0.015
1722,-0.055,0.005
1723,-0.085,0.005
1724,-0.055,0.005
1725,-0.075,0.015
1726,-0.065,0.005
1727,-0.055,0.005
1728,-0.085,0.005
1729,-0.065,0.015
1730,-0.095,-0.005
1731,-0.105,0.005
1732,-0.085,0.005
1733,-0.105,0.005
1734,-0.105,0.005
1735,-0.095,-0.005
1736,-0.105,0.015
1737,-0.115,0.015
1738,-0.105,0.005
1739,-0.125,0.005
1740,-0.105,0.005
1741,-0.125,0.005
1742,-0.125,-0.005
1743,-0.105,0.005
1744,-0.125,0.025
1745,-0.135,0.015
1746,-0.135,0.005
1747,-0.135,0.005
1748,-0.115,0.035
1749,-0.115,0.015
1750,-0.115,0.005
1751,-0.115,0.005
1752,-0.105,0.025
1753,-0.125,0.035
1754,-0.125,0.025
1755,-0.125,0.015
1756,-0.115,0.025
1757,-0.115,0.025
1758,-0.125,0.025
1759,-0.095,0.035
1760,-0.065,0.065
1761,-0.015,0.125
1762,-0.015,0.125
1763,0.005,0.145
1764,0.065,0.185
1765,0.075,0.115
1766,0.055,0.045
1767,0.045,0.035
1768,-0.035,0.025
1769,-0.105,0.015
1770,-0.115,-0.005
1771,-0.145,-0.015
1772,-0.125,-0.005
1773,-0.105,-0.005
1774,-0.095,0.015
1775,-0.105,0.185
1776,-0.005,0.155
1777,0.585,-0.245
1778,1.385,-0.565
1779,1.585,-0.865
1780,-0.025,-0.845
1781,-0.645,-0.255
1782,-0.445,0.055
1783,-0.135,0.075
1784,-0.085,0.065
1785,-0.115,0.065
1786,-0.135,0.045
1787,-0.135,0.075
1788,-0.135,0.085
1789,-0.135,0.085
1790,-0.115,0.085
1791,-0.115,0.095
1792,-0.105,0.105
1793,-0.105,0.125
1794,-0.105,0.095
1795,-0.135,0.105
1796,-0.095,0.125
1797,-0.065,0.135
1798,-0.065,0.125
1799,-0.045,0.145
1800,-0.055,0.145
1801,-0.025,0.155
1802,-0.005,0.145
1803,-0.035,0.165
1804,0.025,0.175
1805,0.025,0.185
1806,0.055,0.165
1807,0.105,0.195
1808,0.115,0.215
1809,0.135,0.205
1810,0.145,0.205
1811,0.145,0.205
1812,0.195,0.215
1813,0.195,0.215
1814,0.185,0.205
1815,0.205,0.205
1816,0.165,0.205
1817,0.125,0.185
1818,0.055,0.145
1819,-0.005,0.155
1820,-0.055,0.145
1821,-0.095,0.105
1822,-0.145,0.085
1823,-0.145,0.075
1824,-0.175,0.085
1825,-0.185,0.085
1826,-0.185,0.075
1827,-0.185,0.065
1828,-0.185,0.075
1829,-0.195,0.075
1830,-0.175,0.075
1831,-0.145,0.075
1832,-0.155,0.075
1833,-0.175,0.075
1834,-0.135,0.065
1835,-0.145,0.075
1836,-0.175,0.065
1837,-0.145,0.075
1838,-0.145,0.065
1839,-0.135,0.075
1840,-0.145,0.065
1841,-0.155,0.065
1842,-0.155,0.045
1843,-0.175,0.065
1844,-0.165,0.065
1845,-0.175,0.055
1846,-0.175,0.045
1847,-0.165,0.035
1848,-0.185,0.045
1849,-0.185,0.045
1850,-0.175,0.035
1851,-0.205,0.045
1852,-0.195,0.045
1853,-0.185,0.045
1854,-0.205,0.025
1855,-0.185,0.045
1856,-0.195,0.045
1857,-0.205,0.025
1858,-0.195,0.035
1859,-0.205,0.035
1860,-0.205,0.025
1861,-0.195,0.035
1862,-0.235,0.025
1863,-0.195,0.035
1864,-0.195,0.025
1865,-0.215,0.025
1866,-0.195,0.025
1867,-0.225,0.035
1868,-0.205,0.025
1869,-0.205,0.015
1870,-0.215,0.015
1871,-0.205,0.025
1872,-0.235,0.035
1873,-0.215,0.005
1874,-0.205,0.015
1875,-0.215,0.055
1876,-0.145,0.085
1877,-0.115,0.125
1878,-0.125,0.115
1879,-0.075,0.155
1880,-0.015,0.195
1881,-0.045,0.095
1882,-0.045,0.035
1883,-0.095,0.015
1884,-0.135,-0.005
1885,-0.225,-0.015
1886,-0.235,-0.025
1887,-0.235,-0.035
1888,-0.245,-0.035
1889,-0.225,-0.025
1890,-0.215,0.005
1891,-0.215,0.165
1892,-0.125,0.065
1893,0.505,-0.315
1894,1.335,-0.625
1895,1.005,-0.915
1896,-0.455,-0.825
1897,-0.735,-0.215
1898,-0.495,0.015
1899,-0.255,0.005
1900,-0.235,0.015
1901,-0.235,0.005
1902,-0.245,-0.005
1903,-0.235,0.015
1904,-0.255,0.015
1905,-0.255,0.015
1906,-0.225,0.015
1907,-0.245,0.025
1908,-0.235,0.045
1909,-0.225,0.045
1910,-0.255,0.015
1911,-0.205,0.045
1912,-0.195,0.045
1913,-0.185,0.045
1914,-0.185,0.035
1915,-0.195,0.035
1916,-0.165,0.055
1917,-0.145,0.055
1918,-0.145,0.055
1919,-0.125,0.055
1920,-0.105,0.065
1921,-0.085,0.065
1922,-0.055,0.065
1923,-0.055,0.045
1924,-0.015,0.065
1925,0.005,0.075
1926,0.015,0.065
1927,0.035,0.065
1928,0.055,0.075
1929,0.065,0.065
1930,0.075,0.055
1931,0.045,0.055
1932,0.045,0.045
1933,0.025,0.055
1934,-0.035,0.035
1935,-0.095,0.035
1936,-0.165,0.025
1937,-0.225,0.005
1938,-0.235,-0.015
1939,-0.275,-0.025
1940,-0.305,-0.035
1941,-0.305,-0.025
1942,-0.315,-0.045
1943,-0.305,-0.035
1944,-0.305,-0.025
1945,-0.315,-0.045
1946,-0.295,-0.045
1947,-0.295,-0.055
1948,-0.285,-0.025
1949,-0.285,-0.045
1950,-0.295,-0.065
1951,-0.265,-0.055
1952,-0.285,-0.045
1953,-0.265,-0.055
1954,-0.265,-0.055
1955,-0.275,-0.065
1956,-0.285,-0.065
1957,-0.295,-0.075
1958,-0.295,-0.065
1959,-0.275,-0.085
1960,-0.275,-0.075
1961,-0.295,-0.075
1962,-0.305,-0.085
1963,-0.325,-0.095
1964,-0.305,-0.085
1965,-0.295,-0.085
1966,-0.305,-0.105
1967,-0.295,-0.095
1968,-0.285,-0.085
1969,-0.315,-0.095
1970,-0.305,-0.105
1971,-0.305,-0.095
1972,-0.295,-0.095
1973,-0.305,-0.105
1974,-0.295,-0.105
1975,-0.305,-0.105
1976,-0.295,-0.105
1977,-0.295,-0.095
1978,-0.285,-0.115
1979,-0.305,-0.085
1980,-0.295,-0.105
1981,-0.285,-0.105
1982,-0.285,-0.115
1983,-0.295,-0.115
1984,-0.275,-0.105
1985,-0.275,-0.105
1986,-0.295,-0.125
1987,-0.295,-0.125
1988,-0.285,-0.115
1989,-0.285,-0.115
1990,-0.285,-0.125
1991,-0.265,-0.125
1992,-0.285,-0.125
1993,-0.275,-0.125
1994,-0.275,-0.125
1995,-0.275,-0.125
1996,-0.255,-0.125
1997,-0.215,-0.095
1998,-0.185,-0.065
1999,-0.175,-0.045
2000,-0.145,-0.005
2001,-0.085,0.035
2002,-0.065,-0.035
2003,-0.095,-0.105
2004,-0.085,-0.105
2005,-0.165,-0.155
2006,-0.235,-0.185
2007,-0.275,-0.165
2008,-0.285,-0.185
2009,-0.275,-0.185
2010,-0.255,-0.195
2011,-0.275,-0.195
2012,-0.245,-0.025
2013,-0.205,0.035
2014,0.095,-0.295
2015,0.835,-0.525
2016,1.335,-0.905
2017,0.075,-1.085
2018,-0.735,-0.625
2019,-0.665,-0.195
2020,-0.365,-0.165
2021,-0.245,-0.175
2022,-0.265,-0.195
2023,-0.265,-0.165
2024,-0.265,-0.165
2025,-0.265,-0.165
2026,-0.265,-0.155
2027,-0.275,-0.145
2028,-0.265,-0.145
2029,-0.255,-0.155
2030,-0.245,-0.145
2031,-0.225,-0.135
2032,-0.225,-0.135
2033,-0.235,-0.145
2034,-0.215,-0.135
2035,-0.205,-0.125
2036,-0.185,-0.125
2037,-0.185,-0.125
2038,-0.165,-0.135
2039,-0.135,-0.115
2040,-0.135,-0.125
2041,-0.115,-0.115
2042,-0.075,-0.115
2043,-0.085,-0.115
2044,-0.065,-0.095
2045,-0.045,-0.105
2046,-0.015,-0.105
2047,0.025,-0.105
2048,0.025,-0.105
2049,0.035,-0.095
2050,0.065,-0.095
2051,0.045,-0.095
2052,0.065,-0.095
2053,0.065,-0.105
2054,0.025,-0.115
2055,0.005,-0.105
2056,-0.055,-0.125
2057,-0.115,-0.115
2058,-0.155,-0.155
2059,-0.215,-0.165
2060,-0.235,-0.175
2061,-0.265,-0.180
2062,-0.285,-0.190
2063,-0.265,-0.190
2064,-0.275,-0.200
2065,-0.295,-0.210
2066,-0.285,-0.200
2067,-0.275,-0.200
2068,-0.255,-0.200
2069,-0.265,-0.200
2070,-0.255,-0.190
2071,-0.235,-0.200
2072,-0.235,-0.190
2073,-0.245,-0.210
2074,-0.245,-0.210
2075,-0.245,-0.210
2076,-0.245,-0.200
2077,-0.245,-0.205
2078,-0.235,-0.225
2079,-0.225,-0.215
2080,-0.255,-0.215
2081,-0.235,-0.205
2082,-0.245,-0.225
2083,-0.265,-0.215
2084,-0.245,-0.215
2085,-0.245,-0.215
2086,-0.245,-0.225
2087,-0.235,-0.225
2088,-0.245,-0.215
2089,-0.245,-0.215
2090,-0.245,-0.225
2091,-0.265,-0.245
2092,-0.245,-0.225
2093,-0.245,-0.205
2094,-0.255,-0.215
2095,-0.215,-0.215
2096,-0.215,-0.235
2097,-0.235,-0.215
2098,-0.225,-0.225
2099,-0.245,-0.225
2100,-0.235,-0.215
2101,-0.225,-0.225
2102,-0.245,-0.235
2103,-0.215,-0.215
2104,-0.215,-0.215
2105,-0.205,-0.225
2106,-0.225,-0.235
2107,-0.215,-0.215
2108,-0.195,-0.215
2109,-0.195,-0.215
2110,-0.195,-0.235
2111,-0.185,-0.215
2112,-0.185,-0.205
2113,-0.175,-0.205
2114,-0.175,-0.225
2115,-0.175,-0.215
2116,-0.155,-0.195
2117,-0.155,-0.185
2118,-0.135,-0.175
2119,-0.085,-0.135
2120,-0.075,-0.085
2121,-0.055,-0.085
2122,-0.005,-0.055
2123,0.005,-0.125
2124,0.015,-0.175
2125,-0.005,-0.185
2126,-0.075,-0.215
2127,-0.115,-0.215
2128,-0.155,-0.225
2129,-0.175,-0.245
2130,-0.175,-0.245
2131,-0.175,-0.255
2132,-0.135,-0.215
2133,-0.105,-0.015
2134,-0.085,-0.085
2135,0.325,-0.405
2136,1.015,-0.625
2137,1.315,-1.005
2138,0.095,-1.065
2139,-0.605,-0.535
2140,-0.495,-0.185
2141,-0.235,-0.205
2142,-0.165,-0.225
2143,-0.145,-0.195
2144,-0.155,-0.195
2145,-0.145,-0.155
2146,-0.155,-0.195
2147,-0.175,-0.175
2148,-0.155,-0.155
2149,-0.145,-0.155
2150,-0.145,-0.155
2151,-0.125,-0.145
2152,-0.125,-0.135
2153,-0.125,-0.135
2154,-0.115,-0.125
2155,-0.105,-0.125
2156,-0.085,-0.125
2157,-0.075,-0.105
2158,-0.055,-0.115
2159,-0.025,-0.105
2160,-0.035,-0.105
2161,-0.015,-0.095
2162,-0.005,-0.095
2163,0.015,-0.085
2164,0.045,-0.075
2165,0.045,-0.075
2166,0.085,-0.075
2167,0.115,-0.065
2168,0.125,-0.055
2169,0.145,-0.065
2170,0.175,-0.075
2171,0.165,-0.045
2172,0.175,-0.045
2173,0.175,-0.055
2174,0.145,-0.075
2175,0.145,-0.055
2176,0.085,-0.045
2177,0.045,-0.055
2178,0.005,-0.085
2179,-0.085,-0.085
2180,-0.085,-0.085
2181,-0.115,-0.105
2182,-0.145,-0.125
2183,-0.145,-0.135
2184,-0.165,-0.115
2185,-0.165,-0.135
2186,-0.155,-0.135
2187,-0.185,-0.125
2188,-0.155,-0.105
2189,-0.145,-0.105
2190,-0.125,-0.115
2191,-0.115,-0.115
2192,-0.115,-0.115
2193,-0.125,-0.115
2194,-0.125,-0.125
2195,-0.135,-0.125
2196,-0.105,-0.115
2197,-0.105,-0.115
2198,-0.105,-0.125
2199,-0.095,-0.125
2200,-0.115,-0.125
2201,-0.125,-0.125
2202,-0.135,-0.135
2203,-0.125,-0.125
2204,-0.125,-0.115
2205,-0.135,-0.125
2206,-0.135,-0.135
2207,-0.105,-0.115
2208,-0.135,-0.125
2209,-0.145,-0.125
2210,-0.125,-0.125
2211,-0.135,-0.125
2212,-0.125,-0.105
2213,-0.125,-0.135
2214,-0.125,-0.135
2215,-0.105,-0.125
2216,-0.135,-0.115
2217,-0.125,-0.125
2218,-0.115,-0.125
2219,-0.125,-0.125
2220,-0.105,-0.125
2221,-0.115,-0.115
2222,-0.115,-0.125
2223,-0.085,-0.115
2224,-0.105,-0.125
2225,-0.105,-0.095
2226,-0.095,-0.115
2227,-0.115,-0.115
2228,-0.115,-0.105
2229,-0.105,-0.105
2230,-0.075,-0.105
2231,-0.065,-0.095
2232,-0.095,-0.095
2233,-0.075,-0.105
2234,-0.095,-0.115
2235,-0.105,-0.105
2236,-0.075,-0.085
2237,-0.065,-0.075
2238,-0.055,-0.075
2239,-0.015,-0.035
2240,0.045,0.015
2241,0.035,0.015
2242,0.065,0.035
2243,0.115,0.095
2244,0.125,0.015
2245,0.135,-0.025
2246,0.075,-0.075
2247,0.035,-0.075
2248,-0.015,-0.075
2249,-0.065,-0.075
2250,-0.055,-0.095
2251,-0.085,-0.095
2252,-0.055,-0.075
2253,-0.035,-0.045
2254,-0.015,0.115
2255,0.035,0.025
2256,0.575,-0.245
2257,1.325,-0.445
2258,1.485,-0.725
2259,0.105,-0.755
2260,-0.525,-0.315
2261,-0.365,-0.015
2262,-0.075,0.015
2263,-0.015,0.025
2264,-0.035,0.035
2265,-0.035,0.045
2266,-0.035,0.045
2267,-0.045,0.055
2268,-0.035,0.075
2269,-0.015,0.075
2270,-0.015,0.065
2271,0.005,0.075
2272,0.005,0.085
2273,0.005,0.085
2274,0.015,0.075
2275,0.005,0.085
2276,0.025,0.105
2277,0.055,0.095
2278,0.065,0.095
2279,0.085,0.095
2280,0.095,0.115
2281,0.125,0.115
2282,0.115,0.115
2283,0.125,0.115
2284,0.155,0.135
2285,0.185,0.135
2286,0.195,0.135
2287,0.245,0.155
2288,0.245,0.155
2289,0.285,0.155
2290,0.305,0.165
2291,0.305,0.165
2292,0.335,0.165
2293,0.325,0.175
2294,0.315,0.155
2295,0.305,0.155
2296,0.295,0.145
2297,0.255,0.155
2298,0.185,0.125
2299,0.105,0.115
2300,0.085,0.095
2301,0.025,0.085
2302,-0.015,0.065
2303,-0.015,0.075
2304,-0.025,0.075
2305,-0.035,0.055
2306,-0.045,0.045
2307,-0.055,0.065
2308,-0.015,0.065
2309,-0.015,0.065
2310,0.005,0.055
2311,0.025,0.065
2312,0.025,0.075
2313,0.015,0.065
2314,0.025,0.065
2315,0.035,0.065
2316,0.045,0.075
2317,0.075,0.075
2318,0.075,0.055
2319,0.085,0.045
2320,0.085,0.075
2321,0.085,0.065
2322,0.095,0.055
2323,0.095,0.055
2324,0.105,0.055
2325,0.105,0.055
2326,0.125,0.055
2327,0.145,0.065
2328,0.145,0.045
2329,0.155,0.045
2330,0.155,0.035
2331,0.165,0.035
2332,0.175,0.035
2333,0.195,0.045
2334,0.195,0.025
2335,0.205,0.025
2336,0.215,0.035
2337,0.225,0.025
2338,0.225,0.025
2339,0.235,0.035
2340,0.235,0.015
2341,0.245,0.015
2342,0.245,0.005
2343,0.255,0.005
2344,0.265,0.025
2345,0.265,0.015
2346,0.255,-0.005
2347,0.265,0.005
2348,0.275,0.005
2349,0.275,0.015
2350,0.265,-0.005
2351,0.275,-0.005
2352,0.285,0.015
2353,0.275,0.005
2354,0.275,0.005
2355,0.285,-0.005
2356,0.285,0.015
2357,0.285,0.055
2358,0.285,0.095
2359,0.295,0.095
2360,0.295,0.135
2361,0.295,0.185
2362,0.305,0.115
2363,0.305,0.025
2364,0.305,0.025
2365,0.295,0.005
2366,0.285,-0.025
2367,0.285,-0.035
2368,0.275,-0.035
2369,0.275,-0.045
2370,0.275,-0.055
2371,0.275,-0.045
2372,0.275,0.115
2373,0.285,0.175
2374,0.305,-0.185
2375,0.395,-0.405
2376,0.505,-0.785
2377,0.385,-0.955
2378,0.205,-0.405
2379,0.175,-0.005
2380,0.215,0.005
2381,0.235,0.005
2382,0.225,-0.005
2383,0.215,0.005
2384,0.215,0.015
2385,0.205,0.025
2386,0.195,0.005
2387,0.185,0.025
2388,0.185,0.035
2389,0.175,0.045
2390,0.175,0.035
2391,0.155,0.045
2392,0.155,0.065
2393,0.155,0.065
2394,0.145,0.055
2395,0.145,0.065
2396,0.155,0.085
2397,0.135,0.085
2398,0.145,0.075
2399,0.165,0.085
2400,0.165,0.105
2401,0.165,0.105
2402,0.165,0.095
2403,0.175,0.105
2404,0.195,0.115
2405,0.215,0.115
2406,0.225,0.105
2407,0.255,0.105
2408,0.265,0.135
2409,0.285,0.125
2410,0.285,0.115
2411,0.285,0.125
2412,0.295,0.125
2413,0.295,0.105
2414,0.265,0.085
2415,0.225,0.085
2416,0.185,0.085
2417,0.105,0.065
2418,0.035,0.035
2419,0.005,0.025
2420,-0.015,0.015
2421,-0.035,0.025
2422,-0.055,-0.005
2423,-0.055,-0.005
2424,-0.075,-0.005
2425,-0.085,-0.005
2426,-0.065,-0.015
2427,-0.075,-0.015
2428,-0.065,-0.015
2429,-0.055,-0.015
2430,-0.065,-0.025
2431,-0.045,-0.025
2432,-0.025,-0.015
2433,-0.045,-0.025
2434,-0.015,-0.025
2435,-0.045,-0.025
2436,-0.045,-0.015
2437,-0.025,-0.025
2438,-0.045,-0.055
2439,-0.065,-0.045
2440,-0.045,-0.025
2441,-0.035,-0.035
2442,-0.035,-0.035
2443,-0.075,-0.045
2444,-0.055,-0.035
2445,-0.095,-0.045
2446,-0.035,-0.045
2447,-0.035,-0.055
2448,-0.065,-0.045
2449,-0.055,-0.055
2450,-0.065,-0.055
2451,-0.075,-0.055
2452,-0.085,-0.055
2453,-0.065,-0.045
2454,-0.035,-0.055
2455,-0.015,-0.045
2456,-0.035,-0.045
2457,-0.065,-0.055
2458,-0.075,-0.065
2459,-0.035,-0.055
2460,-0.045,-0.065
2461,-0.075,-0.055
2462,-0.035,-0.075
2463,-0.015,-0.065
2464,-0.075,-0.055
2465,-0.055,-0.065
2466,-0.055,-0.055
2467,-0.095,-0.075
2468,-0.055,-0.055
2469,-0.055,-0.075
2470,-0.075,-0.075
2471,0.005,-0.095
2472,-0.025,-0.065
2473,-0.045,-0.005
2474,-0.005,-0.015
2475,0.045,0.035
2476,0.065,0.055
2477,0.075,0.095
2478,0.185,0.015
2479,0.205,-0.075
2480,0.145,-0.025
2481,0.005,-0.045
2482,-0.025,-0.105
2483,-0.095,-0.115
2484,-0.105,-0.095
2485,-0.075,-0.125
2486,-0.065,-0.115
2487,-0.055,-0.125
2488,-0.035,0.055
2489,0.005,0.095
2490,0.315,-0.275
2491,1.065,-0.465
2492,1.585,-0.835
2493,0.345,-0.975
2494,-0.585,-0.485
2495,-0.395,-0.105
2496,-0.185,-0.075
2497,-0.075,-0.075
2498,-0.095,-0.075
2499,-0.105,-0.085
2500,-0.075,-0.075
2501,-0.095,-0.055
2502,-0.025,-0.075
2503,-0.065,-0.065
2504,-0.075,-0.035
2505,-0.075,-0.015
2506,-0.085,-0.045
2507,-0.085,-0.035
2508,-0.035,-0.025
2509,-0.025,-0.015
2510,-0.025,-0.025
2511,-0.005,-0.045
2512,-0.005,-0.005
2513,-0.005,0.005
2514,0.035,-0.025
2515,0.055,-0.025
2516,0.035,0.005
2517,0.105,0.015
2518,0.085,-0.005
2519,0.135,0.005
2520,0.135,0.005
2521,0.155,0.015
2522,0.155,0.015
2523,0.175,0.025
2524,0.225,0.025
2525,0.245,0.025
2526,0.245,0.015
2527,0.265,0.025
2528,0.305,0.015
2529,0.235,0.035
2530,0.175,0.015
2531,0.125,0.025
2532,0.055,0.025
2533,0.045,0.005
2534,-0.015,-0.025
2535,-0.045,-0.025
2536,-0.065,-0.015
2537,-0.115,-0.025
2538,-0.155,-0.065
2539,-0.105,-0.035
2540,-0.155,-0.015
2541,-0.125,-0.045
2542,-0.125,-0.055
2543,-0.095,-0.055
2544,-0.135,-0.025
2545,-0.115,-0.045
2546,-0.065,-0.055
2547,-0.135,-0.045
2548,-0.105,-0.045
2549,-0.065,-0.025
2550,-0.125,-0.045
2551,-0.095,-0.035
2552,-0.095,-0.045
2553,-0.105,-0.025
2554,-0.105,-0.035
2555,-0.125,-0.025
2556,-0.155,-0.035
2557,-0.135,-0.055
2558,-0.105,-0.055
2559,-0.145,-0.045
2560,-0.155,-0.025
2561,-0.145,-0.055
2562,-0.135,-0.035
2563,-0.155,-0.055
2564,-0.135,-0.035
2565,-0.135,-0.035
2566,-0.165,-0.055
2567,-0.145,-0.045
2568,-0.145,-0.035
2569,-0.145,-0.045
2570,-0.125,-0.065
2571,-0.165,-0.045
2572,-0.165,-0.015
2573,-0.165,-0.035
2574,-0.165,-0.045
2575,-0.145,-0.045
2576,-0.095,-0.045
2577,-0.135,-0.025
2578,-0.135,-0.045
2579,-0.165,-0.035
2580,-0.135,-0.025
2581,-0.145,-0.015
2582,-0.145,-0.025
2583,-0.115,-0.035
2584,-0.135,-0.015
2585,-0.145,-0.005
2586,-0.145,-0.025
2587,-0.125,-0.015
2588,-0.085,0.015
2589,-0.055,0.075
2590,-0.045,0.075
2591,0.005,0.105
2592,0.055,0.165
2593,0.065,0.115
2594,0.015,0.005
2595,0.075,0.005
2596,-0.025,-0.025
2597,-0.075,-0.045
2598,-0.115,-0.045
2599,-0.145,-0.065
2600,-0.115,-0.065
2601,-0.115,-0.075
2602,-0.125,-0.055
2603,-0.055,0.095
2604,-0.085,0.165
2605,0.145,-0.155
2606,0.855,-0.315
2607,1.455,-0.645
2608,0.505,-0.895
2609,-0.505,-0.485
2610,-0.495,-0.035
2611,-0.265,-0.015
2612,-0.105,-0.005
2613,-0.095,0.005
2614,-0.095,-0.015
2615,-0.115,0.015
2616,-0.085,0.025
2617,-0.135,0.015
2618,-0.125,0.025
2619,-0.065,0.025
2620,-0.075,0.045
2621,-0.085,0.055
2622,-0.095,0.035
2623,-0.075,0.045
2624,-0.045,0.065
2625,-0.055,0.085
2626,-0.035,0.065
2627,-0.035,0.075
2628,-0.025,0.065
2629,0.025,0.075
2630,-0.015,0.085
2631,0.065,0.085
2632,0.045,0.095
2633,0.065,0.085
2634,0.115,0.075
2635,0.075,0.095
2636,0.105,0.095
2637,0.215,0.085
2638,0.155,0.095
2639,0.175,0.105
2640,0.185,0.105
2641,0.185,0.115
2642,0.215,0.085
2643,0.205,0.095
2644,0.215,0.135
2645,0.155,0.125
2646,0.155,0.115
2647,0.075,0.095
2648,0.005,0.085
2649,0.015,0.075
2650,-0.105,0.085
2651,-0.125,0.055
2652,-0.145,0.045
2653,-0.115,0.045
2654,-0.155,0.055
2655,-0.185,0.065
2656,-0.165,0.055
2657,-0.135,0.055
2658,-0.115,0.045
2659,-0.125,0.035
2660,-0.135,0.055
2661,-0.145,0.045
2662,-0.065,0.025
2663,-0.125,0.055
2664,-0.125,0.065
2665,-0.115,0.035
2666,-0.085,0.025
2667,-0.145,0.035
2668,-0.155,0.035
2669,-0.125,0.025
2670,-0.115,0.025
2671,-0.135,0.035
2672,-0.165,0.035
2673,-0.135,0.005
2674,-0.145,0.005
2675,-0.185,0.005
2676,-0.155,0.035
2677,-0.185,0.035
2678,-0.175,0.005
2679,-0.145,0.005
2680,-0.155,0.025
2681,-0.165,0.005
2682,-0.175,-0.015
2683,-0.155,-0.015
2684,-0.185,0.015
2685,-0.145,0.005
2686,-0.185,0.005
2687,-0.175,-0.005
2688,-0.175,-0.005
2689,-0.165,0.005
2690,-0.135,0.005
2691,-0.205,-0.015
2692,-0.155,-0.015
2693,-0.165,-0.025
2694,-0.145,-0.025
2695,-0.155,-0.015
2696,-0.155,-0.005
2697,-0.145,-0.035
2698,-0.185,-0.025
2699,-0.195,-0.015
2700,-0.145,-0.015
2701,-0.135,-0.035
2702,-0.155,-0.035
2703,-0.155,-0.015
2704,-0.135,-0.015
2705,-0.115,0.005
2706,-0.075,0.055
2707,-0.075,0.065
2708,0.005,0.105
2709,0.005,0.175
2710,0.025,0.085
2711,0.045,-0.005
2712,0.005,-0.025
2713,-0.045,-0.055
2714,-0.105,-0.075
2715,-0.145,-0.105
2716,-0.135,-0.095
2717,-0.185,-0.075
2718,-0.145,-0.105
2719,-0.115,-0.095
2720,-0.145,0.115
2721,-0.115,0.005
2722,0.325,-0.305
2723,1.065,-0.505
2724,1.225,-0.845
2725,0.025,-0.905
2726,-0.615,-0.375
2727,-0.515,-0.085
2728,-0.175,-0.095
2729,-0.175,-0.085
2730,-0.125,-0.105
2731,-0.195,-0.085
2732,-0.165,-0.075
2733,-0.175,-0.075
2734,-0.175,-0.085
2735,-0.165,-0.065
2736,-0.155,-0.075
2737,-0.145,-0.065
2738,-0.155,-0.065
2739,-0.145,-0.085
2740,-0.115,-0.055
2741,-0.105,-0.045
2742,-0.125,-0.065
2743,-0.105,-0.055
2744,-0.095,-0.055
2745,-0.095,-0.055
2746,-0.035,-0.055
2747,-0.065,-0.035
2748,-0.065,-0.055
2749,0.015,-0.055
2750,-0.015,-0.045
2751,0.015,-0.035
2752,0.035,-0.025
2753,0.045,-0.045
2754,0.065,-0.045
2755,0.095,-0.025
2756,0.085,-0.025
2757,0.135,-0.055
2758,0.145,-0.055
2759,0.155,-0.025
2760,0.105,-0.025
2761,0.135,-0.065
2762,0.095,-0.065
2763,0.065,-0.025
2764,-0.005,-0.025
2765,-0.055,-0.075
2766,-0.085,-0.085
2767,-0.135,-0.085
2768,-0.175,-0.085
2769,-0.205,-0.115
2770,-0.225,-0.135
2771,-0.245,-0.105
2772,-0.245,-0.115
2773,-0.235,-0.135
2774,-0.235,-0.135
2775,-0.195,-0.125
2776,-0.245,-0.115
2777,-0.185,-0.135
2778,-0.185,-0.135
2779,-0.215,-0.145
2780,-0.245,-0.115
2781,-0.215,-0.135
2782,-0.205,-0.155
2783,-0.215,-0.155
2784,-0.215,-0.145
2785,-0.195,-0.175
2786,-0.195,-0.165
2787,-0.265,-0.145
2788,-0.235,-0.185
2789,-0.195,-0.195
2790,-0.255,-0.175
2791,-0.255,-0.175
2792,-0.245,-0.185
2793,-0.235,-0.185
2794,-0.275,-0.205
2795,-0.255,-0.205
2796,-0.275,-0.175
2797,-0.235,-0.195
2798,-0.255,-0.205
2799,-0.235,-0.205
2800,-0.255,-0.185
2801,-0.225,-0.215
2802,-0.265,-0.215
2803,-0.235,-0.215
2804,-0.255,-0.205
2805,-0.215,-0.215
2806,-0.255,-0.225
2807,-0.245,-0.225
2808,-0.185,-0.235
2809,-0.275,-0.215
2810,-0.265,-0.225
2811,-0.245,-0.235
2812,-0.255,-0.235
2813,-0.225,-0.215
2814,-0.235,-0.245
2815,-0.225,-0.235
2816,-0.225,-0.225
2817,-0.215,-0.225
2818,-0.255,-0.225
2819,-0.245,-0.235
2820,-0.255,-0.235
2821,-0.255,-0.235
2822,-0.235,-0.245
2823,-0.235,-0.255
2824,-0.225,-0.235
2825,-0.225,-0.205
2826,-0.155,-0.165
2827,-0.145,-0.135
2828,-0.145,-0.115
2829,-0.075,-0.065
2830,-0.045,-0.135
2831,-0.045,-0.215
2832,-0.075,-0.235
2833,-0.125,-0.295
2834,-0.245,-0.275
2835,-0.265,-0.295
2836,-0.255,-0.305
2837,-0.235,-0.305
2838,-0.265,-0.315
2839,-0.245,-0.295
2840,-0.205,-0.115
2841,-0.185,-0.135
2842,0.075,-0.465
2843,0.775,-0.635
2844,1.215,-1.015
2845,0.115,-1.125
2846,-0.685,-0.645
2847,-0.585,-0.315
2848,-0.275,-0.265
2849,-0.235,-0.245
2850,-0.245,-0.275
2851,-0.255,-0.255
2852,-0.235,-0.265
2853,-0.225,-0.265
2854,-0.215,-0.245
2855,-0.235,-0.215
2856,-0.225,-0.225
2857,-0.205,-0.235
2858,-0.225,-0.215
2859,-0.215,-0.225
2860,-0.195,-0.225
2861,-0.195,-0.205
2862,-0.155,-0.215
2863,-0.155,-0.225
2864,-0.135,-0.175
2865,-0.155,-0.195
2866,-0.135,-0.215
2867,-0.125,-0.195
2868,-0.075,-0.205
2869,-0.085,-0.175
2870,-0.075,-0.185
2871,-0.035,-0.185
2872,-0.025,-0.175
2873,0.005,-0.175
2874,-0.005,-0.185
2875,0.015,-0.175
2876,0.085,-0.175
2877,0.085,-0.165
2878,0.065,-0.185
2879,0.105,-0.165
2880,0.075,-0.155
2881,0.065,-0.165
2882,0.045,-0.175
2883,-0.015,-0.165
2884,-0.075,-0.165
2885,-0.135,-0.185
2886,-0.175,-0.205
2887,-0.215,-0.205
2888,-0.245,-0.205
2889,-0.255,-0.225
2890,-0.265,-0.245
2891,-0.285,-0.225
2892,-0.305,-0.225
2893,-0.255,-0.215
2894,-0.265,-0.235
2895,-0.255,-0.225
2896,-0.245,-0.215
2897,-0.235,-0.215
2898,-0.245,-0.215
2899,-0.255,-0.215
2900,-0.245,-0.195
2901,-0.245,-0.205
2902,-0.245,-0.215
2903,-0.235,-0.215
2904,-0.235,-0.205
2905,-0.275,-0.205
2906,-0.245,-0.225
2907,-0.275,-0.205
2908,-0.265,-0.195
2909,-0.265,-0.195
2910,-0.265,-0.215
2911,-0.265,-0.215
2912,-0.265,-0.195
2913,-0.265,-0.205
2914,-0.275,-0.215
2915,-0.275,-0.215
2916,-0.275,-0.195
2917,-0.285,-0.205
2918,-0.285,-0.205
2919,-0.265,-0.195
2920,-0.275,-0.195
2921,-0.265,-0.195
2922,-0.275,-0.215
2923,-0.265,-0.195
2924,-0.275,-0.185
2925,-0.275,-0.195
2926,-0.275,-0.205
2927,-0.265,-0.195
2928,-0.265,-0.185
2929,-0.255,-0.195
2930,-0.275,-0.205
2931,-0.285,-0.195
2932,-0.285,-0.205
2933,-0.265,-0.195
2934,-0.275,-0.215
2935,-0.275,-0.195
2936,-0.265,-0.195
2937,-0.265,-0.205
2938,-0.255,-0.205
2939,-0.275,-0.205
2940,-0.265,-0.185
2941,-0.245,-0.175
2942,-0.255,-0.195
2943,-0.255,-0.185
2944,-0.235,-0.165
2945,-0.185,-0.105
2946,-0.155,-0.095
2947,-0.165,-0.065
2948,-0.095,-0.015
2949,-0.045,-0.015
2950,-0.065,-0.145
2951,-0.045,-0.155
2952,-0.115,-0.205
2953,-0.205,-0.215
2954,-0.265,-0.225
2955,-0.285,-0.245
2956,-0.265,-0.235
2957,-0.255,-0.245
2958,-0.265,-0.265
2959,-0.245,-0.165
2960,-0.205,-0.005
2961,-0.095,-0.225
2962,0.545,-0.465
2963,1.295,-0.705
2964,0.765,-1.015
2965,-0.455,-0.845
2966,-0.735,-0.335
2967,-0.515,-0.205
2968,-0.265,-0.205
2969,-0.245,-0.205
2970,-0.265,-0.215
2971,-0.265,-0.205
2972,-0.265,-0.185
2973,-0.255,-0.185
2974,-0.245,-0.205
2975,-0.235,-0.165
2976,-0.235,-0.175
2977,-0.245,-0.195
2978,-0.235,-0.195
2979,-0.235,-0.175
2980,-0.215,-0.165
2981,-0.205,-0.165
2982,-0.185,-0.165
2983,-0.185,-0.155
2984,-0.155,-0.145
2985,-0.155,-0.145
2986,-0.145,-0.155
2987,-0.145,-0.155
2988,-0.125,-0.145
2989,-0.085,-0.135
2990,-0.085,-0.135
2991,-0.055,-0.145
2992,-0.025,-0.135
2993,-0.005,-0.125
2994,0.005,-0.125
2995,0.035,-0.135
2996,0.025,-0.135
2997,0.075,-0.115
2998,0.075,-0.125
2999,0.075,-0.125
3000,0.085,-0.115
3001,0.055,-0.135
3002,0.015,-0.145
3003,-0.005,-0.135
3004,-0.075,-0.145
3005,-0.135,-0.135
3006,-0.195,-0.165
3007,-0.225,-0.165
3008,-0.245,-0.165
3009,-0.265,-0.175
3010,-0.295,-0.185
3011,-0.285,-0.195
3012,-0.275,-0.175
3013,-0.275,-0.175
3014,-0.285,-0.185
3015,-0.265,-0.185
3016,-0.275,-0.185
3017,-0.255,-0.175
3018,-0.245,-0.185
3019,-0.255,-0.185
3020,-0.255,-0.175
3021,-0.245,-0.185
3022,-0.265,-0.195
3023,-0.265,-0.185
3024,-0.245,-0.185
3025,-0.245,-0.185
3026,-0.235,-0.195
3027,-0.275,-0.185
3028,-0.265,-0.185
3029,-0.255,-0.175
3030,-0.275,-0.205
3031,-0.275,-0.195
3032,-0.265,-0.175
3033,-0.285,-0.195
3034,-0.275,-0.195
3035,-0.265,-0.195
3036,-0.275,-0.185
3037,-0.285,-0.185
3038,-0.295,-0.195
3039,-0.265,-0.175
3040,-0.275,-0.185
3041,-0.285,-0.185
3042,-0.275,-0.195
3043,-0.265,-0.175
3044,-0.255,-0.185
3045,-0.265,-0.175
3046,-0.295,-0.185
3047,-0.265,-0.175
3048,-0.255,-0.165
3049,-0.265,-0.175
3050,-0.265,-0.155
3051,-0.265,-0.165
3052,-0.275,-0.165
3053,-0.255,-0.155
3054,-0.265,-0.155
3055,-0.245,-0.145
3056,-0.245,-0.145
3057,-0.255,-0.145
3058,-0.245,-0.165
3059,-0.255,-0.145
3060,-0.245,-0.135
3061,-0.235,-0.115
3062,-0.195,-0.105
3063,-0.115,-0.045
3064,-0.125,-0.005
3065,-0.105,0.005
3066,-0.045,0.035
3067,-0.045,-0.025
3068,-0.055,-0.075
3069,-0.075,-0.105
3070,-0.145,-0.145
3071,-0.195,-0.145
3072,-0.225,-0.145
3073,-0.225,-0.155
3074,-0.205,-0.175
3075,-0.225,-0.155
3076,-0.215,-0.125
3077,-0.175,0.075
3078,-0.125,-0.015
3079,0.365,-0.325
3080,1.065,-0.515
3081,1.175,-0.835
3082,-0.015,-0.885
3083,-0.685,-0.385
3084,-0.555,-0.085
3085,-0.295,-0.125
3086,-0.175,-0.115
3087,-0.185,-0.115
3088,-0.195,-0.085
3089,-0.185,-0.085
3090,-0.175,-0.085
3091,-0.185,-0.075
3092,-0.175,-0.065
3093,-0.165,-0.065
3094,-0.155,-0.065
3095,-0.145,-0.065
3096,-0.155,-0.045
3097,-0.125,-0.055
3098,-0.135,-0.065
3099,-0.135,-0.035
3100,-0.115,-0.035
3101,-0.095,-0.035
3102,-0.095,-0.035
3103,-0.075,-0.015
3104,-0.055,-0.005
3105,-0.045,-0.015
3106,-0.015,-0.005
3107,-0.015,0.005
3108,0.005,0.025
3109,0.025,0.020
3110,0.035,0.020
3111,0.095,0.020
3112,0.105,0.040
3113,0.125,0.040
3114,0.125,0.040
3115,0.125,0.050
3116,0.145,0.050
3117,0.145,0.060
3118,0.135,0.050
3119,0.105,0.040
3120,0.095,0.040
3121,0.045,0.030
3122,0.005,0.010
3123,-0.065,-0.010
3124,-0.135,-0.030
3125,-0.155,-0.020
3126,-0.165,-0.040
3127,-0.175,-0.050
3128,-0.185,-0.030
3129,-0.185,-0.040
3130,-0.185,-0.050
3131,-0.185,-0.040
3132,-0.165,-0.040
3133,-0.175,-0.045
3134,-0.175,-0.055
3135,-0.155,-0.045
3136,-0.135,-0.035
3137,-0.145,-0.035
3138,-0.155,-0.055
3139,-0.175,-0.055
3140,-0.155,-0.035
3141,-0.165,-0.035
3142,-0.145,-0.055
3143,-0.145,-0.045
3144,-0.135,-0.035
3145,-0.175,-0.045
3146,-0.145,-0.055
3147,-0.175,-0.035
3148,-0.175,-0.045
3149,-0.165,-0.045
3150,-0.165,-0.045
3151,-0.165,-0.035
3152,-0.175,-0.035
3153,-0.175,-0.055
3154,-0.195,-0.045
3155,-0.185,-0.025
3156,-0.175,-0.025
3157,-0.175,-0.025
3158,-0.175,-0.035
3159,-0.155,-0.035
3160,-0.175,-0.025
3161,-0.155,-0.025
3162,-0.165,-0.035
3163,-0.185,-0.035
3164,-0.175,-0.005
3165,-0.175,-0.025
3166,-0.185,-0.045
3167,-0.165,-0.025
3168,-0.145,-0.035
3169,-0.135,-0.045
3170,-0.165,-0.035
3171,-0.185,-0.025
3172,-0.175,-0.025
3173,-0.175,-0.025
3174,-0.185,-0.045
3175,-0.145,-0.025
3176,-0.125,-0.015
3177,-0.165,-0.035
3178,-0.165,-0.035
3179,-0.185,-0.045
3180,-0.145,-0.025
3181,-0.145,-0.035
3182,-0.155,-0.025
3183,-0.095,0.035
3184,-0.045,0.065
3185,-0.055,0.065
3186,-0.005,0.105
3187,0.035,0.145
3188,0.055,0.035
3189,0.035,-0.025
3190,-0.035,-0.065
3191,-0.055,-0.055
3192,-0.135,-0.065
3193,-0.175,-0.065
3194,-0.145,-0.105
3195,-0.165,-0.095
3196,-0.125,-0.075
3197,-0.135,-0.005
3198,-0.125,0.135
3199,-0.055,-0.055
3200,0.535,-0.325
3201,1.305,-0.565
3202,1.075,-0.905
3203,-0.215,-0.865
3204,-0.635,-0.275
3205,-0.425,-0.045
3206,-0.165,-0.055
3207,-0.115,-0.045
3208,-0.125,-0.045
3209,-0.145,-0.035
3210,-0.135,-0.045
3211,-0.155,-0.035
3212,-0.135,-0.025
3213,-0.125,-0.025
3214,-0.125,-0.025
3215,-0.105,-0.005
3216,-0.125,-0.005
3217,-0.095,0.005
3218,-0.095,0.005
3219,-0.085,0.005
3220,-0.085,-0.005
3221,-0.055,0.015
3222,-0.055,0.005
3223,-0.025,0.015
3224,-0.005,0.035
3225,0.035,0.025
3226,0.005,0.005
3227,0.055,0.035
3228,0.085,0.035
3229,0.145,0.025
3230,0.115,0.005
3231,0.095,0.035
3232,0.125,0.075
3233,0.155,0.085
3234,0.195,0.065
3235,0.205,0.065
3236,0.225,0.085
3237,0.265,0.085
3238,0.235,0.075
3239,0.235,0.055
3240,0.215,0.065
3241,0.125,0.065
3242,0.085,0.025
3243,0.005,0.015
3244,-0.015,0.025
3245,-0.085,0.005
3246,-0.095,-0.015
3247,-0.105,-0.005
3248,-0.105,-0.015
3249,-0.155,-0.025
3250,-0.155,-0.025
3251,-0.145,-0.035
3252,-0.145,-0.025
3253,-0.125,-0.015
3254,-0.115,-0.015
3255,-0.105,-0.015
3256,-0.095,-0.005
3257,-0.105,-0.015
3258,-0.105,-0.015
3259,-0.095,-0.015
3260,-0.095,-0.005
3261,-0.085,-0.015
3262,-0.085,-0.045
3263,-0.085,-0.025
3264,-0.115,-0.015
3265,-0.105,-0.025
3266,-0.115,-0.055
3267,-0.125,-0.035
3268,-0.105,-0.025
3269,-0.115,-0.025
3270,-0.115,-0.045
3271,-0.115,-0.035
3272,-0.105,-0.035
3273,-0.125,-0.035
3274,-0.125,-0.035
3275,-0.145,-0.035
3276,-0.115,-0.045
3277,-0.135,-0.055
3278,-0.125,-0.055
3279,-0.115,-0.035
3280,-0.115,-0.045
3281,-0.125,-0.045
3282,-0.125,-0.055
3283,-0.135,-0.055
3284,-0.135,-0.055
3285,-0.125,-0.065
3286,-0.105,-0.065
3287,-0.105,-0.055
3288,-0.115,-0.055
3289,-0.125,-0.065
3290,-0.125,-0.075
3291,-0.125,-0.055
3292,-0.125,-0.065
3293,-0.115,-0.065
3294,-0.115,-0.075
3295,-0.115,-0.075
3296,-0.095,-0.065
3297,-0.105,-0.065
3298,-0.125,-0.095
3299,-0.105,-0.065
3300,-0.095,-0.055
3301,-0.095,-0.085
3302,-0.095,-0.085
3303,-0.075,-0.085
3304,-0.085,-0.055
3305,-0.045,-0.025
3306,0.005,0.005
3307,0.005,0.005
3308,0.045,0.065
3309,0.105,0.115
3310,0.125,0.015
3311,0.095,-0.065
3312,0.095,-0.055
3313,-0.005,-0.105
3314,-0.035,-0.105
3315,-0.085,-0.135
3316,-0.095,-0.125
3317,-0.075,-0.115
3318,-0.075,-0.135
3319,-0.065,-0.145
3320,-0.025,0.055
3321,-0.025,0.065
3322,0.295,-0.285
3323,1.035,-0.455
3324,1.565,-0.865
3325,0.375,-0.995
3326,-0.485,-0.465
3327,-0.395,-0.125
3328,-0.125,-0.095
3329,-0.035,-0.095
3330,0.015,-0.115
3331,-0.025,-0.085
3332,-0.045,-0.055
3333,-0.045,-0.065
3334,-0.045,-0.095
3335,-0.015,-0.065
3336,-0.005,-0.055
3337,-0.015,-0.055
3338,0.005,-0.065
3339,-0.005,-0.055
3340,0.025,-0.035
3341,0.025,-0.035
3342,0.035,-0.035
3343,0.055,-0.035
3344,0.075,-0.025
3345,0.085,-0.015
3346,0.075,-0.025
3347,0.095,-0.005
3348,0.125,0.005
3349,0.135,0.005
3350,0.165,0.005
3351,0.195,0.005
3352,0.215,0.025
3353,0.225,0.015
3354,0.265,0.025
3355,0.275,0.035
3356,0.305,0.035
3357,0.315,0.045
3358,0.335,0.035
3359,0.335,0.045
3360,0.355,0.045
3361,0.315,0.045
3362,0.275,0.035
3363,0.205,0.015
3364,0.155,0.025
3365,0.105,-0.005
3366,0.055,-0.015
3367,0.025,-0.015
3368,-0.015,-0.015
3369,0.005,-0.025
3370,-0.035,-0.035
3371,-0.055,-0.035
3372,-0.005,-0.045
3373,-0.045,-0.025
3374,0.015,-0.045
3375,-0.015,-0.025
3376,-0.025,-0.015
3377,-0.005,-0.025
3378,0.005,-0.025
3379,-0.005,-0.025
3380,0.015,-0.025
3381,0.015,-0.025
3382,0.025,-0.025
3383,0.025,-0.025
3384,0.035,-0.025
3385,0.035,-0.035
3386,0.015,-0.035
3387,-0.005,-0.035
3388,0.015,-0.025
3389,0.015,-0.035
3390,0.005,-0.045
3391,0.005,-0.035
3392,0.005,-0.035
3393,0.025,-0.025
3394,0.015,-0.045
3395,-0.015,-0.045
3396,0.005,-0.035
3397,0.015,-0.035
3398,0.005,-0.025
3399,0.055,-0.045
3400,0.025,-0.025
3401,-0.015,-0.025
3402,0.015,-0.045
3403,-0.005,-0.045
3404,0.025,-0.025
3405,0.015,-0.025
3406,0.015,-0.045
3407,0.025,-0.025
3408,0.025,-0.045
3409,0.055,-0.025
3410,0.035,-0.045
3411,0.015,-0.035
3412,0.015,-0.025
3413,0.035,-0.025
3414,0.045,-0.035
3415,0.035,-0.035
3416,0.055,-0.015
3417,0.065,-0.055
3418,0.045,-0.025
3419,0.035,-0.025
3420,0.045,-0.005
3421,0.065,-0.015
3422,0.075,-0.015
3423,0.085,-0.025
3424,0.065,0.005
3425,0.095,0.015
3426,0.145,0.055
3427,0.145,0.085
3428,0.175,0.105
3429,0.245,0.145
3430,0.265,0.105
3431,0.255,0.025
3432,0.265,0.025
3433,0.205,0.005
3434,0.125,-0.035
3435,0.075,-0.025
3436,0.075,-0.045
3437,0.055,-0.055
3438,0.085,-0.055
3439,0.115,-0.045
3440,0.115,0.145
3441,0.165,0.115
3442,0.605,-0.205
3443,1.325,-0.405
3444,1.695,-0.755
3445,0.435,-0.835
3446,-0.385,-0.355
3447,-0.255,-0.015
3448,0.035,0.015
3449,0.105,0.005
3450,0.115,-0.005
3451,0.095,0.015
3452,0.105,0.025
3453,0.095,0.025
3454,0.115,0.025
3455,0.135,0.045
3456,0.135,0.055
3457,0.145,0.065
3458,0.135,0.045
3459,0.125,0.065
3460,0.155,0.085
3461,0.155,0.095
3462,0.175,0.085
3463,0.185,0.085
3464,0.215,0.105
3465,0.215,0.105
3466,0.245,0.095
3467,0.255,0.115
3468,0.255,0.115
3469,0.275,0.125
3470,0.315,0.115
3471,0.335,0.135
3472,0.355,0.145
3473,0.365,0.135
3474,0.405,0.135
3475,0.425,0.135
3476,0.485,0.165
3477,0.405,0.165
3478,0.475,0.165
3479,0.465,0.185
3480,0.455,0.185
3481,0.445,0.165
3482,0.385,0.155
3483,0.345,0.155
3484,0.315,0.135
3485,0.265,0.125
3486,0.195,0.095
3487,0.145,0.095
3488,0.075,0.075
3489,0.115,0.075
3490,0.085,0.055
3491,0.055,0.075
3492,0.085,0.075
3493,0.105,0.075
3494,0.095,0.055
3495,0.115,0.075
3496,0.105,0.075
3497,0.105,0.075
3498,0.105,0.055
3499,0.075,0.055
3500,0.115,0.085
3501,0.125,0.075
3502,0.135,0.075
3503,0.115,0.075
3504,0.115,0.075
3505,0.095,0.085
3506,0.095,0.055
3507,0.085,0.065
3508,0.095,0.065
3509,0.105,0.085
3510,0.095,0.055
3511,0.115,0.055
3512,0.095,0.065
3513,0.085,0.065
3514,0.095,0.065
3515,0.075,0.065
3516,0.085,0.065
3517,0.115,0.075
3518,0.095,0.065
3519,0.095,0.065
3520,0.115,0.065
3521,0.085,0.085
3522,0.105,0.055
3523,0.095,0.065
3524,0.115,0.085
3525,0.125,0.085
3526,0.125,0.055
3527,0.125,0.065
3528,0.105,0.075
3529,0.125,0.095
3530,0.115,0.075
3531,0.115,0.075
3532,0.115,0.085
3533,0.135,0.095
3534,0.135,0.075
3535,0.135,0.075
3536,0.155,0.075
3537,0.135,0.105
3538,0.125,0.085
3539,0.115,0.095
3540,0.145,0.105
3541,0.135,0.095
3542,0.135,0.085
3543,0.145,0.095
3544,0.145,0.095
3545,0.145,0.115
3546,0.155,0.145
3547,0.195,0.195
3548,0.195,0.215
3549,0.225,0.235
3550,0.275,0.275
3551,0.305,0.205
3552,0.275,0.135
3553,0.235,0.115
3554,0.185,0.075
3555,0.145,0.085
3556,0.125,0.085
3557,0.105,0.065
3558,0.095,0.045
3559,0.095,0.055
3560,0.115,0.085
3561,0.115,0.285
3562,0.145,0.195
3563,0.485,-0.125
3564,1.175,-0.315
3565,1.565,-0.705
3566,0.435,-0.845
3567,-0.305,-0.305
3568,-0.265,0.105
3569,0.025,0.135
3570,0.085,0.115
3571,0.075,0.105
3572,0.075,0.125
3573,0.085,0.125
3574,0.075,0.135
3575,0.075,0.125
3576,0.085,0.145
3577,0.095,0.155
3578,0.085,0.145
3579,0.095,0.165
3580,0.105,0.155
3581,0.085,0.155
3582,0.095,0.155
3583,0.135,0.175
3584,0.125,0.175
3585,0.145,0.175
3586,0.155,0.175
3587,0.155,0.175
3588,0.175,0.195
3589,0.205,0.195
3590,0.205,0.185
3591,0.245,0.205
3592,0.255,0.215
3593,0.275,0.215
3594,0.315,0.205
3595,0.315,0.195
3596,0.355,0.225
3597,0.365,0.225
3598,0.365,0.215
3599,0.425,0.215
3600,0.425,0.235
3601,0.395,0.225
3602,0.355,0.215
3603,0.315,0.205
3604,0.305,0.205
3605,0.215,0.185
3606,0.145,0.155
3607,0.115,0.155
3608,0.065,0.145
3609,0.035,0.135
3610,0.005,0.115
3611,-0.005,0.115
3612,0.005,0.115
3613,-0.005,0.105
3614,-0.015,0.095
3615,0.025,0.125
3616,0.025,0.115
3617,0.015,0.105
3618,0.025,0.095
3619,0.005,0.105
3620,0.025,0.115
3621,0.035,0.115
3622,0.015,0.085
3623,0.045,0.105
3624,0.015,0.105
3625,0.025,0.085
3626,0.015,0.095
3627,-0.005,0.075
3628,0.015,0.085
3629,0.005,0.075
3630,-0.015,0.055
3631,0.005,0.075
3632,-0.015,0.065
3633,-0.025,0.065
3634,-0.025,0.045
3635,-0.025,0.055
3636,-0.035,0.065
3637,-0.035,0.045
3638,-0.035,0.045
3639,-0.025,0.045
3640,-0.025,0.045
3641,-0.035,0.045
3642,-0.025,0.035
3643,-0.045,0.035
3644,-0.045,0.035
3645,-0.045,0.035
3646,-0.035,0.015
3647,-0.025,0.025
3648,-0.035,0.025
3649,-0.035,0.025
3650,-0.035,0.005
3651,-0.055,0.015
3652,-0.045,0.015
3653,-0.035,0.005
3654,-0.045,-0.015
3655,-0.015,-0.005
3656,-0.025,-0.005
3657,-0.035,-0.005
3658,-0.035,-0.015
3659,-0.045,-0.015
3660,-0.045,-0.015
3661,-0.045,-0.025
3662,-0.025,-0.025
3663,-0.025,-0.015
3664,-0.025,-0.025
3665,-0.025,-0.005
3666,0.005,0.005
3667,0.025,0.055
3668,0.025,0.065
3669,0.055,0.095
3670,0.115,0.125
3671,0.155,0.065
3672,0.125,-0.005
3673,0.105,-0.025
3674,0.025,-0.075
3675,-0.025,-0.065
3676,-0.055,-0.085
3677,-0.075,-0.095
3678,-0.065,-0.105
3679,-0.045,-0.115
3680,-0.055,-0.075
3681,-0.035,0.105
3682,-0.015,0.015
3683,0.475,-0.305
3684,1.165,-0.485
3685,1.375,-0.845
3686,0.165,-0.925
3687,-0.475,-0.445
3688,-0.375,-0.095
3689,-0.125,-0.085
3690,-0.055,-0.105
3691,-0.085,-0.105
3692,-0.055,-0.075
3693,-0.075,-0.065
3694,-0.065,-0.075
3695,-0.045,-0.075
3696,-0.055,-0.055
3697,-0.055,-0.055
3698,-0.025,-0.055
3699,-0.025,-0.055
3700,-0.015,-0.045
3701,-0.005,-0.035
3702,-0.015,-0.045
3703,0.005,-0.055
3704,0.015,-0.035
3705,0.025,-0.025
3706,0.035,-0.035
3707,0.025,-0.025
3708,0.055,-0.025
3709,0.085,-0.015
3710,0.085,-0.025
3711,0.125,-0.015
3712,0.135,-0.015
3713,0.155,-0.005
3714,0.165,-0.015
3715,0.175,-0.005
3716,0.215,-0.005
3717,0.225,-0.005
3718,0.235,-0.015
3719,0.265,-0.005
3720,0.265,0.005
3721,0.275,-0.005
3722,0.255,-0.015
3723,0.195,-0.025
3724,0.185,-0.015
3725,0.115,-0.045
3726,0.055,-0.055
3727,0.025,-0.065
3728,-0.015,-0.065
3729,-0.055,-0.085
3730,-0.095,-0.095
3731,-0.115,-0.105
3732,-0.115,-0.105
3733,-0.105,-0.105
3734,-0.095,-0.125
3735,-0.095,-0.115
3736,-0.085,-0.115
3737,-0.105,-0.105
3738,-0.095,-0.125
3739,-0.105,-0.125
3740,-0.085,-0.115
3741,-0.085,-0.115
3742,-0.075,-0.135
3743,-0.085,-0.125
3744,-0.075,-0.115
3745,-0.095,-0.135
3746,-0.085,-0.135
3747,-0.085,-0.135
3748,-0.085,-0.135
3749,-0.065,-0.135
3750,-0.075,-0.155
3751,-0.075,-0.155
3752,-0.085,-0.145
3753,-0.085,-0.145
3754,-0.085,-0.145
3755,-0.105,-0.165
3756,-0.085,-0.145
3757,-0.075,-0.155
3758,-0.085,-0.165
3759,-0.075,-0.165
3760,-0.065,-0.165
3761,-0.085,-0.175
3762,-0.075,-0.185
3763,-0.095,-0.185
3764,-0.095,-0.175
3765,-0.085,-0.175
3766,-0.095,-0.175
3767,-0.095,-0.175
3768,-0.095,-0.175
3769,-0.085,-0.185
3770,-0.085,-0.195
3771,-0.115,-0.185
3772,-0.095,-0.185
3773,-0.085,-0.185
3774,-0.105,-0.205
3775,-0.095,-0.175
3776,-0.105,-0.185
3777,-0.105,-0.185
3778,-0.095,-0.195
3779,-0.115,-0.185
3780,-0.115,-0.185
3781,-0.095,-0.195
3782,-0.105,-0.205
3783,-0.085,-0.195
3784,-0.105,-0.165
3785,-0.065,-0.135
3786,-0.015,-0.095
3787,-0.035,-0.085
3788,0.025,-0.055
3789,0.075,-0.045
3790,0.045,-0.155
3791,0.055,-0.175
3792,0.005,-0.205
3793,-0.055,-0.215
3794,-0.115,-0.245
3795,-0.135,-0.235
3796,-0.125,-0.245
3797,-0.125,-0.255
3798,-0.115,-0.245
3799,-0.075,-0.165
3800,-0.075,-0.005
3801,0.015,-0.215
3802,0.605,-0.485
3803,1.275,-0.735
3804,0.915,-1.025
3805,-0.205,-0.915
3806,-0.515,-0.435
3807,-0.375,-0.215
3808,-0.165,-0.215
3809,-0.115,-0.225
3810,-0.135,-0.205
3811,-0.155,-0.225
3812,-0.125,-0.195
3813,-0.125,-0.205
3814,-0.135,-0.195
3815,-0.105,-0.175
3816,-0.115,-0.185
3817,-0.115,-0.175
3818,-0.115,-0.185
3819,-0.115,-0.165
3820,-0.095,-0.135
3821,-0.095,-0.145
3822,-0.085,-0.155
3823,-0.075,-0.145
3824,-0.055,-0.145
3825,-0.055,-0.145
3826,-0.045,-0.135
3827,-0.025,-0.135
3828,-0.015,-0.125
3829,0.005,-0.115
3830,0.025,-0.115
3831,0.045,-0.125
3832,0.065,-0.105
3833,0.065,-0.095
3834,0.095,-0.115
3835,0.105,-0.095
3836,0.155,-0.085
3837,0.145,-0.075
3838,0.135,-0.095
3839,0.165,-0.095
3840,0.165,-0.075
3841,0.145,-0.075
3842,0.125,-0.095
3843,0.065,-0.085
3844,0.025,-0.095
3845,-0.015,-0.105
3846,-0.065,-0.135
3847,-0.075,-0.145
3848,-0.115,-0.155
3849,-0.135,-0.165
3850,-0.155,-0.165
3851,-0.175,-0.165
3852,-0.155,-0.155
3853,-0.165,-0.155
3854,-0.165,-0.175
3855,-0.145,-0.175
3856,-0.135,-0.165
3857,-0.135,-0.155
3858,-0.145,-0.175
3859,-0.155,-0.175
3860,-0.125,-0.155
3861,-0.115,-0.155
3862,-0.125,-0.175
3863,-0.115,-0.165
3864,-0.105,-0.165
3865,-0.135,-0.165
3866,-0.135,-0.185
3867,-0.155,-0.175
3868,-0.135,-0.175
3869,-0.125,-0.165
3870,-0.135,-0.185
3871,-0.135,-0.175
3872,-0.145,-0.175
3873,-0.135,-0.175
3874,-0.145,-0.185
3875,-0.165,-0.175
3876,-0.155,-0.175
3877,-0.145,-0.185
3878,-0.165,-0.205
3879,-0.155,-0.185
3880,-0.155,-0.185
3881,-0.165,-0.185
3882,-0.165,-0.205
3883,-0.175,-0.195
3884,-0.155,-0.175
3885,-0.155,-0.185
3886,-0.185,-0.205
3887,-0.155,-0.195
3888,-0.175,-0.175
3889,-0.175,-0.185
3890,-0.155,-0.195
3891,-0.185,-0.205
3892,-0.175,-0.185
3893,-0.185,-0.185
3894,-0.175,-0.195
3895,-0.155,-0.185
3896,-0.165,-0.185
3897,-0.175,-0.195
3898,-0.175,-0.205
3899,-0.195,-0.195
3900,-0.185,-0.195
3901,-0.175,-0.185
3902,-0.185,-0.195
3903,-0.175,-0.185
3904,-0.155,-0.145
3905,-0.115,-0.115
3906,-0.085,-0.105
3907,-0.115,-0.075
3908,-0.045,-0.025
3909,0.005,-0.045
3910,-0.015,-0.155
3911,-0.015,-0.165
3912,-0.085,-0.185
3913,-0.115,-0.195
3914,-0.145,-0.215
3915,-0.205,-0.235
3916,-0.205,-0.225
3917,-0.195,-0.225
3918,-0.185,-0.235
3919,-0.155,-0.095
3920,-0.145,-0.005
3921,0.075,-0.315
3922,0.705,-0.535
3923,1.325,-0.895
3924,0.525,-1.125
3925,-0.475,-0.775
3926,-0.575,-0.255
3927,-0.325,-0.195
3928,-0.215,-0.175
3929,-0.205,-0.195
3930,-0.205,-0.175
3931,-0.215,-0.175
3932,-0.205,-0.155
3933,-0.195,-0.155
3934,-0.215,-0.155
3935,-0.185,-0.145
3936,-0.195,-0.135
3937,-0.195,-0.135
3938,-0.185,-0.135
3939,-0.195,-0.135
3940,-0.185,-0.105
3941,-0.145,-0.115
3942,-0.135,-0.125
3943,-0.115,-0.105
3944,-0.115,-0.095
3945,-0.105,-0.095
3946,-0.085,-0.105
3947,-0.085,-0.095
3948,-0.065,-0.075
3949,-0.045,-0.075
3950,-0.035,-0.085
3951,-0.015,-0.085
3952,0.005,-0.055
3953,0.045,-0.055
3954,0.055,-0.065
3955,0.065,-0.075
3956,0.085,-0.055
3957,0.105,-0.045
3958,0.115,-0.055
3959,0.115,-0.065
3960,0.105,-0.045
3961,0.095,-0.065
3962,0.045,-0.065
3963,0.005,-0.055
3964,-0.065,-0.075
3965,-0.105,-0.095
3966,-0.145,-0.105
3967,-0.185,-0.125
3968,-0.205,-0.115
3969,-0.215,-0.135
3970,-0.225,-0.125
3971,-0.245,-0.125
3972,-0.235,-0.125
3973,-0.225,-0.135
3974,-0.225,-0.145
3975,-0.215,-0.125
3976,-0.225,-0.125
3977,-0.215,-0.125
3978,-0.195,-0.135
3979,-0.225,-0.135
3980,-0.205,-0.125
3981,-0.205,-0.125
3982,-0.215,-0.145
3983,-0.205,-0.135
3984,-0.205,-0.135
3985,-0.205,-0.145
3986,-0.215,-0.155
3987,-0.235,-0.155
3988,-0.235,-0.145
3989,-0.235,-0.145
3990,-0.245,-0.165
3991,-0.245,-0.165
3992,-0.265,-0.155
3993,-0.265,-0.165
3994,-0.265,-0.165
3995,-0.275,-0.165
3996,-0.275,-0.165
3997,-0.275,-0.165
3998,-0.285,-0.185
3999,-0.285,-0.165
4000,-0.275,-0.175
4001,-0.305,-0.185
4002,-0.305,-0.185
4003,-0.305,-0.185
4004,-0.295,-0.185
4005,-0.305,-0.195
4006,-0.295,-0.175
4007,-0.285,-0.185
4008,-0.305,-0.185
4009,-0.305,-0.195
4010,-0.305,-0.205
4011,-0.315,-0.195
4012,-0.305,-0.185
4013,-0.315,-0.185
4014,-0.315,-0.215
4015,-0.295,-0.195
4016,-0.315,-0.205
4017,-0.325,-0.205
4018,-0.315,-0.215
4019,-0.315,-0.215
4020,-0.315,-0.205
4021,-0.305,-0.215
4022,-0.315,-0.225
4023,-0.315,-0.215
4024,-0.285,-0.165
4025,-0.265,-0.125
4026,-0.245,-0.125
4027,-0.255,-0.105
4028,-0.195,-0.055
4029,-0.155,-0.095
4030,-0.185,-0.195
4031,-0.165,-0.195
4032,-0.235,-0.245
4033,-0.295,-0.255
4034,-0.345,-0.275
4035,-0.365,-0.275
4036,-0.355,-0.265
4037,-0.335,-0.275
4038,-0.335,-0.285
4039,-0.315,-0.115
4040,-0.285,-0.075
4041,-0.055,-0.395
4042,0.545,-0.565
4043,1.125,-0.905
4044,0.295,-1.125
4045,-0.615,-0.725
4046,-0.685,-0.285
4047,-0.455,-0.235
4048,-0.325,-0.225
4049,-0.325,-0.235
4050,-0.325,-0.245
4051,-0.345,-0.235
4052,-0.335,-0.215
4053,-0.325,-0.215
4054,-0.325,-0.225
4055,-0.315,-0.215
4056,-0.315,-0.195
4057,-0.315,-0.195
4058,-0.315,-0.205
4059,-0.325,-0.185
4060,-0.295,-0.175
4061,-0.285,-0.165
4062,-0.285,-0.175
4063,-0.265,-0.165
4064,-0.265,-0.165
4065,-0.255,-0.145
4066,-0.245,-0.165
4067,-0.245,-0.155
4068,-0.225,-0.145
4069,-0.205,-0.145
4070,-0.185,-0.145
4071,-0.155,-0.145
4072,-0.135,-0.125
4073,-0.145,-0.145
4074,-0.125,-0.155
4075,-0.095,-0.135
4076,-0.065,-0.125
4077,-0.055,-0.125
4078,-0.055,-0.145
4079,-0.045,-0.125
4080,-0.045,-0.125
4081,-0.085,-0.125
4082,-0.115,-0.135
4083,-0.165,-0.135
4084,-0.215,-0.125
4085,-0.255,-0.135
4086,-0.295,-0.165
4087,-0.325,-0.185
4088,-0.355,-0.175
4089,-0.375,-0.175
4090,-0.385,-0.205
4091,-0.385,-0.185
4092,-0.385,-0.185
4093,-0.375,-0.165
4094,-0.385,-0.185
4095,-0.375,-0.175
4096,-0.365,-0.175
4097,-0.365,-0.165
4098,-0.365,-0.185
4099,-0.355,-0.175
4100,-0.345,-0.195
4101,-0.355,-0.175
4102,-0.365,-0.195
4103,-0.345,-0.195
4104,-0.355,-0.185
4105,-0.375,-0.195
4106,-0.365,-0.195
4107,-0.375,-0.195
4108,-0.375,-0.185
4109,-0.365,-0.185
4110,-0.385,-0.215
4111,-0.385,-0.195
4112,-0.385,-0.205
4113,-0.385,-0.195
4114,-0.395,-0.205
4115,-0.425,-0.205
4116,-0.405,-0.195
4117,-0.395,-0.195
4118,-0.405,-0.215
4119,-0.395,-0.205
4120,-0.405,-0.205
4121,-0.405,-0.205
4122,-0.415,-0.215
4123,-0.415,-0.225
4124,-0.405,-0.195
4125,-0.405,-0.205
4126,-0.415,-0.215
4127,-0.395,-0.195
4128,-0.405,-0.205
4129,-0.395,-0.205
4130,-0.395,-0.215
4131,-0.395,-0.205
4132,-0.385,-0.195
4133,-0.385,-0.195
4134,-0.385,-0.205
4135,-0.365,-0.195
4136,-0.375,-0.185
4137,-0.385,-0.215
4138,-0.375,-0.205
4139,-0.375,-0.185
4140,-0.365,-0.175
4141,-0.365,-0.195
4142,-0.355,-0.175
4143,-0.315,-0.115
4144,-0.275,-0.085
4145,-0.275,-0.065
4146,-0.235,-0.045
4147,-0.205,-0.055
4148,-0.215,-0.135
4149,-0.215,-0.145
4150,-0.265,-0.195
4151,-0.305,-0.205
4152,-0.345,-0.195
4153,-0.365,-0.205
4154,-0.365,-0.225
4155,-0.365,-0.225
4156,-0.345,-0.195
4157,-0.315,-0.045
4158,-0.295,-0.035
4159,0.005,-0.335
4160,0.605,-0.555
4161,0.965,-0.895
4162,0.065,-1.005
4163,-0.645,-0.515
4164,-0.625,-0.175
4165,-0.435,-0.175
4166,-0.325,-0.175
4167,-0.305,-0.165
4168,-0.295,-0.155
4169,-0.305,-0.165
4170,-0.295,-0.135
4171,-0.305,-0.135
4172,-0.285,-0.115
4173,-0.285,-0.125
4174,-0.265,-0.125
4175,-0.245,-0.115
4176,-0.235,-0.095
4177,-0.255,-0.105
4178,-0.235,-0.115
4179,-0.225,-0.095
4180,-0.225,-0.085
4181,-0.215,-0.085
4182,-0.195,-0.105
4183,-0.175,-0.095
4184,-0.145,-0.065
4185,-0.145,-0.055
4186,-0.125,-0.075
4187,-0.125,-0.075
4188,-0.105,-0.065
4189,-0.085,-0.045
4190,-0.055,-0.055
4191,-0.045,-0.045
4192,-0.025,-0.045
4193,-0.005,-0.045
4194,0.015,-0.045
4195,0.005,-0.035
4196,0.015,-0.035
4197,0.015,-0.035
4198,0.015,-0.045
4199,0.005,-0.035
4200,-0.015,-0.025
4201,-0.065,-0.045
4202,-0.095,-0.065
4203,-0.145,-0.075
4204,-0.165,-0.075
4205,-0.185,-0.105
4206,-0.205,-0.115
4207,-0.215,-0.125
4208,-0.215,-0.105
4209,-0.205,-0.115
4210,-0.225,-0.125
4211,-0.215,-0.125
4212,-0.215,-0.115
4213,-0.205,-0.115
4214,-0.185,-0.125
4215,-0.205,-0.115
4216,-0.185,-0.115
4217,-0.185,-0.105
4218,-0.175,-0.125
4219,-0.175,-0.115
4220,-0.185,-0.105
4221,-0.185,-0.115
4222,-0.195,-0.125
4223,-0.185,-0.125
4224,-0.185,-0.105
4225,-0.185,-0.105
4226,-0.205,-0.125
4227,-0.215,-0.135
4228,-0.215,-0.125
4229,-0.215,-0.135
4230,-0.235,-0.135
4231,-0.225,-0.135
4232,-0.245,-0.125
4233,-0.225,-0.135
4234,-0.235,-0.145
4235,-0.265,-0.135
4236,-0.255,-0.125
4237,-0.245,-0.125
4238,-0.255,-0.145
4239,-0.255,-0.135
4240,-0.245,-0.125
4241,-0.265,-0.135
4242,-0.265,-0.145
4243,-0.275,-0.135
4244,-0.265,-0.115
4245,-0.265,-0.135
4246,-0.255,-0.145
4247,-0.265,-0.135
4248,-0.275,-0.135
4249,-0.265,-0.135
4250,-0.265,-0.145
4251,-0.275,-0.145
4252,-0.275,-0.125
4253,-0.245,-0.135
4254,-0.255,-0.135
4255,-0.265,-0.145
4256,-0.265,-0.135
4257,-0.245,-0.135
4258,-0.245,-0.135
4259,-0.255,-0.125
4260,-0.245,-0.125
4261,-0.245,-0.125
4262,-0.245,-0.135
4263,-0.225,-0.095
4264,-0.175,-0.035
4265,-0.175,-0.025
4266,-0.155,0.005
4267,-0.135,0.025
4268,-0.065,0.025
4269,-0.075,-0.065
4270,-0.085,-0.085
4271,-0.145,-0.125
4272,-0.175,-0.135
4273,-0.205,-0.135
4274,-0.245,-0.145
4275,-0.225,-0.145
4276,-0.235,-0.145
4277,-0.215,-0.145
4278,-0.215,-0.065
4279,-0.195,0.075
4280,-0.135,-0.145
4281,0.375,-0.405
4282,1.015,-0.725
4283,0.775,-0.955
4284,-0.335,-0.745
4285,-0.575,-0.205
4286,-0.395,-0.095
4287,-0.215,-0.085
4288,-0.215,-0.065
4289,-0.215,-0.065
4290,-0.225,-0.065
4291,-0.235,-0.055
4292,-0.215,-0.035
4293,-0.205,-0.025
4294,-0.205,-0.025
4295,-0.175,-0.005
4296,-0.185,-0.005
4297,-0.185,0.005
4298,-0.185,0.005
4299,-0.175,0.005
4300,-0.155,0.025
4301,-0.145,0.025
4302,-0.125,0.025
4303,-0.105,0.035
4304,-0.095,0.045
4305,-0.075,0.045
4306,-0.065,0.045
4307,-0.055,0.055
4308,-0.055,0.055
4309,-0.025,0.065
4310,-0.005,0.045
4311,0.035,0.065
4312,0.075,0.085
4313,0.085,0.085
4314,0.105,0.075
4315,0.105,0.075
4316,0.135,0.085
4317,0.145,0.085
4318,0.135,0.065
4319,0.145,0.075
4320,0.115,0.065
4321,0.055,0.075
4322,-0.005,0.045
4323,-0.055,0.055
4324,-0.105,0.045
4325,-0.135,0.025
4326,-0.155,0.015
4327,-0.185,0.015
4328,-0.205,0.005
4329,-0.205,0.005
4330,-0.225,-0.005
4331,-0.235,-0.015
4332,-0.225,-0.015
4333,-0.225,-0.005
4334,-0.215,-0.015
4335,-0.195,-0.005
4336,-0.205,-0.005
4337,-0.205,-0.005
4338,-0.195,-0.015
4339,-0.195,-0.015
4340,-0.195,-0.005
4341,-0.185,-0.015
4342,-0.185,-0.025
4343,-0.175,-0.015
4344,-0.175,-0.005
4345,-0.195,-0.015
4346,-0.195,-0.025
4347,-0.215,-0.015
4348,-0.215,-0.015
4349,-0.215,-0.025
4350,-0.215,-0.045
4351,-0.215,-0.045
4352,-0.215,-0.025
4353,-0.225,-0.035
4354,-0.235,-0.065
4355,-0.235,-0.055
4356,-0.245,-0.055
4357,-0.245,-0.065
4358,-0.245,-0.075
4359,-0.245,-0.085
4360,-0.225,-0.085
4361,-0.245,-0.085
4362,-0.245,-0.095
4363,-0.255,-0.095
4364,-0.245,-0.105
4365,-0.235,-0.115
4366,-0.245,-0.135
4367,-0.245,-0.125
4368,-0.245,-0.125
4369,-0.245,-0.135
4370,-0.245,-0.135
4371,-0.245,-0.145
4372,-0.245,-0.155
4373,-0.235,-0.155
4374,-0.235,-0.165
4375,-0.215,-0.155
4376,-0.215,-0.145
4377,-0.245,-0.155
4378,-0.245,-0.175
4379,-0.225,-0.165
4380,-0.215,-0.155
4381,-0.205,-0.145
4382,-0.215,-0.185
4383,-0.185,-0.165
4384,-0.185,-0.155
4385,-0.185,-0.145
4386,-0.165,-0.125
4387,-0.115,-0.085
4388,-0.105,-0.055
4389,-0.085,-0.045
4390,-0.025,0.005
4391,0.025,-0.075
4392,-0.005,-0.135
4393,-0.045,-0.165
4394,-0.095,-0.205
4395,-0.155,-0.195
4396,-0.175,-0.195
4397,-0.175,-0.215
4398,-0.175,-0.225
4399,-0.165,-0.215
4400,-0.155,-0.155
4401,-0.135,-0.015
4402,-0.085,-0.125
4403,0.335,-0.405
4404,1.055,-0.625
4405,1.165,-0.935
4406,-0.055,-0.925
4407,-0.585,-0.465
4408,-0.475,-0.215
4409,-0.205,-0.175
4410,-0.135,-0.185
4411,-0.165,-0.175
4412,-0.155,-0.155
4413,-0.145,-0.155
4414,-0.155,-0.155
4415,-0.125,-0.145
4416,-0.145,-0.125
4417,-0.115,-0.125
4418,-0.115,-0.125
4419,-0.135,-0.125
4420,-0.115,-0.115
4421,-0.105,-0.105
4422,-0.095,-0.105
4423,-0.075,-0.095
4424,-0.065,-0.085
4425,-0.055,-0.085
4426,-0.025,-0.065
4427,-0.035,-0.075
4428,-0.005,-0.075
4429,0.015,-0.075
4430,0.045,-0.065
4431,0.065,-0.065
4432,0.065,-0.055
4433,0.075,-0.055
4434,0.105,-0.055
4435,0.125,-0.055
4436,0.165,-0.045
4437,0.185,-0.045
4438,0.185,-0.045
4439,0.225,-0.045
4440,0.235,-0.035
4441,0.225,-0.045
4442,0.205,-0.055
4443,0.185,-0.045
4444,0.145,-0.035
4445,0.095,-0.035
4446,0.025,-0.065
4447,-0.015,-0.065
4448,-0.045,-0.075
4449,-0.085,-0.085
4450,-0.115,-0.095
4451,-0.135,-0.105
4452,-0.135,-0.095
4453,-0.135,-0.095
4454,-0.135,-0.105
4455,-0.115,-0.105
4456,-0.135,-0.095
4457,-0.125,-0.105
4458,-0.115,-0.095
4459,-0.115,-0.095
4460,-0.085,-0.095
4461,-0.085,-0.095
4462,-0.075,-0.105
4463,-0.065,-0.105
4464,-0.065,-0.085
4465,-0.075,-0.105
4466,-0.065,-0.105
4467,-0.085,-0.105
4468,-0.065,-0.085
4469,-0.075,-0.105
4470,-0.085,-0.105
4471,-0.075,-0.105
4472,-0.075,-0.105
4473,-0.075,-0.095
4474,-0.065,-0.125
4475,-0.095,-0.095
4476,-0.095,-0.095
4477,-0.075,-0.095
4478,-0.075,-0.105
4479,-0.065,-0.105
4480,-0.065,-0.095
4481,-0.065,-0.095
4482,-0.055,-0.095
4483,-0.075,-0.105
4484,-0.065,-0.085
4485,-0.055,-0.085
4486,-0.065,-0.085
4487,-0.055,-0.085
4488,-0.065,-0.085
4489,-0.065,-0.095
4490,-0.055,-0.085
4491,-0.065,-0.085
4492,-0.055,-0.085
4493,-0.055,-0.085
4494,-0.055,-0.085
4495,-0.045,-0.085
4496,-0.055,-0.075
4497,-0.045,-0.075
4498,-0.045,-0.075
4499,-0.065,-0.085
4500,-0.045,-0.065
4501,-0.035,-0.065
4502,-0.055,-0.075
4503,-0.035,-0.065
4504,-0.035,-0.065
4505,-0.025,-0.075
4506,-0.045,-0.085
4507,-0.035,-0.065
4508,0.015,-0.015
4509,0.075,0.015
4510,0.055,0.025
4511,0.125,0.065
4512,0.165,0.085
4513,0.135,-0.015
4514,0.155,-0.045
4515,0.125,-0.085
4516,0.075,-0.085
4517,0.025,-0.105
4518,0.005,-0.105
4519,0.015,-0.105
4520,0.015,-0.125
4521,0.035,-0.115
4522,0.045,-0.035
4523,0.075,0.125
4524,0.145,-0.065
4525,0.715,-0.335
4526,1.425,-0.605
4527,1.225,-0.905
4528,-0.055,-0.795
4529,-0.425,-0.295
4530,-0.265,-0.075
4531,-0.025,-0.065
4532,0.055,-0.065
4533,0.065,-0.065
4534,0.025,-0.065
4535,0.055,-0.045
4536,0.055,-0.035
4537,0.055,-0.035
4538,0.045,-0.055
4539,0.065,-0.025
4540,0.065,-0.015
4541,0.075,-0.015
4542,0.065,-0.015
4543,0.075,-0.005
4544,0.085,0.005
4545,0.105,0.015
4546,0.095,-0.005
4547,0.125,0.025
4548,0.135,0.025
4549,0.135,0.045
4550,0.145,0.025
4551,0.165,0.045
4552,0.205,0.055
4553,0.195,0.065
4554,0.215,0.055
4555,0.255,0.075
4556,0.255,0.075
4557,0.285,0.085
4558,0.295,0.085
4559,0.305,0.065
4560,0.345,0.105
4561,0.365,0.115
4562,0.375,0.105
4563,0.365,0.085
4564,0.345,0.105
4565,0.345,0.105
4566,0.305,0.085
4567,0.255,0.085
4568,0.195,0.075
4569,0.115,0.065
4570,0.055,0.045
4571,0.065,0.025
4572,-0.005,0.025
4573,-0.005,0.025
4574,-0.015,0.025
4575,-0.015,0.015
4576,-0.005,0.035
4577,-0.025,0.025
4578,-0.005,0.035
4579,-0.005,0.035
4580,-0.015,0.035
4581,0.015,0.045
4582,0.005,0.035
4583,0.015,0.045
4584,0.025,0.065
4585,0.035,0.065
4586,0.045,0.055
4587,0.035,0.065
4588,0.015,0.075
4589,0.005,0.075
4590,0.015,0.085
4591,0.025,0.085
4592,0.015,0.095
4593,0.005,0.095
4594,-0.005,0.085
4595,-0.005,0.085
4596,0.015,0.105
4597,-0.005,0.105
4598,0.005,0.105
4599,0.015,0.105
4600,0.005,0.115
4601,-0.015,0.105
4602,-0.005,0.095
4603,-0.045,0.105
4604,-0.005,0.105
4605,0.005,0.095
4606,0.005,0.085
4607,-0.005,0.085
4608,-0.015,0.085
4609,0.005,0.075
4610,-0.015,0.055
4611,-0.025,0.055
4612,-0.015,0.055
4613,-0.015,0.055
4614,-0.005,0.045
4615,0.005,0.035
4616,-0.005,0.025
4617,-0.015,0.025
4618,-0.015,0.015
4619,-0.015,0.005
4620,-0.015,0.005
4621,-0.015,0.005
4622,0.005,-0.015
4623,0.005,-0.005
4624,0.015,-0.015
4625,-0.005,-0.015
4626,-0.015,-0.025
4627,-0.015,-0.015
4628,0.015,-0.005
4629,0.005,-0.025
4630,-0.005,-0.035
4631,0.035,0.005
4632,0.065,0.045
4633,0.115,0.065
4634,0.085,0.075
4635,0.115,0.105
4636,0.165,0.115
4637,0.175,0.025
4638,0.185,-0.015
4639,0.135,-0.045
4640,0.065,-0.055
4641,0.005,-0.065
4642,-0.005,-0.085
4643,-0.025,-0.085
4644,-0.015,-0.075
4645,0.005,-0.085
4646,0.005,0.015
4647,0.045,0.145
4648,0.165,-0.115
4649,0.785,-0.385
4650,1.535,-0.715
4651,0.965,-0.995
4652,-0.265,-0.725
4653,-0.445,-0.145
4654,-0.205,-0.045
4655,-0.015,-0.035
4656,0.025,-0.035
4657,0.005,-0.025
4658,-0.025,-0.035
4659,-0.015,-0.035
4660,-0.015,-0.015
4661,0.005,-0.015
4662,-0.015,0.005
4663,0.015,-0.005
4664,0.045,0.015
4665,0.025,-0.005
4666,0.025,-0.005
4667,0.025,-0.005
4668,0.055,0.005
4669,0.055,0.015
4670,0.065,-0.005
4671,0.095,0.005
4672,0.105,0.015
4673,0.105,0.005
4674,0.135,-0.005
4675,0.125,0.015
4676,0.155,0.025
4677,0.165,0.025
4678,0.185,0.025
4679,0.215,0.025
4680,0.265,0.045
4681,0.265,0.055
4682,0.275,0.025
4683,0.295,0.035
4684,0.325,0.055
4685,0.335,0.045
4686,0.335,0.045
4687,0.345,0.015
4688,0.325,0.015
4689,0.275,0.015
4690,0.235,-0.015
4691,0.145,-0.015
4692,0.105,-0.035
4693,0.055,-0.035
4694,0.015,-0.075
4695,-0.025,-0.085
4696,-0.035,-0.085
4697,-0.045,-0.085
4698,-0.065,-0.105
4699,-0.085,-0.095
4700,-0.065,-0.105
4701,-0.065,-0.105
4702,-0.045,-0.115
4703,-0.025,-0.095
4704,-0.035,-0.105
4705,-0.025,-0.095
4706,-0.045,-0.115
4707,-0.035,-0.105
4708,-0.035,-0.105
4709,-0.045,-0.115
4710,-0.035,-0.115
4711,-0.025,-0.135
4712,-0.025,-0.105
4713,0.005,-0.105
4714,-0.025,-0.135
4715,-0.045,-0.135
4716,-0.045,-0.125
4717,-0.035,-0.115
4718,-0.045,-0.135
4719,-0.035,-0.155
4720,-0.045,-0.145
4721,-0.045,-0.145
4722,-0.035,-0.155
4723,-0.035,-0.125
4724,-0.055,-0.145
4725,-0.065,-0.145
4726,-0.035,-0.145
4727,-0.045,-0.145
4728,-0.025,-0.135
4729,-0.035,-0.145
4730,-0.045,-0.155
4731,-0.025,-0.155
4732,-0.035,-0.155
4733,-0.035,-0.155
4734,-0.045,-0.165
4735,-0.025,-0.145
4736,-0.035,-0.145
4737,-0.025,-0.135
4738,-0.035,-0.155
4739,-0.055,-0.155
4740,-0.025,-0.135
4741,-0.035,-0.145
4742,-0.025,-0.165
4743,-0.025,-0.135
4744,-0.025,-0.135
4745,-0.035,-0.145
4746,-0.025,-0.145
4747,-0.035,-0.155
4748,-0.025,-0.135
4749,-0.015,-0.125
4750,-0.035,-0.135
4751,-0.015,-0.145
4752,-0.005,-0.125
4753,-0.025,-0.125
4754,-0.015,-0.135
4755,-0.005,-0.125
4756,0.015,-0.095
4757,0.065,-0.025
4758,0.075,-0.025
4759,0.105,0.005
4760,0.145,0.035
4761,0.175,0.015
4762,0.155,-0.095
4763,0.155,-0.095
4764,0.105,-0.105
4765,0.025,-0.135
4766,-0.015,-0.145
4767,-0.025,-0.145
4768,-0.005,-0.135
4769,0.005,-0.145
4770,-0.005,-0.145
4771,0.005,0.005
4772,0.075,0.045
4773,0.345,-0.245
4774,1.005,-0.445
4775,1.665,-0.795
4776,0.705,-1.005
4777,-0.425,-0.565
4778,-0.425,-0.145
4779,-0.135,-0.095
4780,0.005,-0.095
4781,0.015,-0.085
4782,-0.005,-0.095
4783,0.015,-0.095
4784,0.005,-0.055
4785,0.005,-0.055
4786,0.025,-0.065
4787,0.005,-0.065
4788,0.015,-0.045
4789,0.025,-0.015
4790,0.015,-0.045
4791,0.055,-0.025
4792,0.045,-0.015
4793,0.045,-0.015
4794,0.065,-0.015
4795,0.055,-0.005
4796,0.085,-0.005
4797,0.085,0.005
4798,0.115,0.005
4799,0.135,0.005
4800,0.155,0.025
4801,0.155,0.025
4802,0.175,0.025
4803,0.175,0.045
4804,0.205,0.055
4805,0.235,0.065
4806,0.245,0.045
4807,0.265,0.055
4808,0.295,0.075
4809,0.285,0.085
4810,0.285,0.065
4811,0.275,0.065
4812,0.275,0.065
4813,0.255,0.075
4814,0.215,0.045
4815,0.185,0.045
4816,0.135,0.035
4817,0.085,0.025
4818,0.055,0.005
4819,0.015,-0.005
4820,0.005,-0.005
4821,-0.015,-0.005
4822,-0.005,-0.015
4823,-0.025,-0.025
4824,-0.015,-0.015
4825,-0.015,-0.025
4826,-0.015,-0.035
4827,-0.025,-0.025
4828,-0.015,-0.025
4829,-0.005,-0.015
4830,-0.005,-0.035
4831,0.015,-0.015
4832,-0.005,-0.035
4833,0.005,-0.025
4834,0.005,-0.035
4835,-0.005,-0.035
4836,-0.005,-0.035
4837,0.005,-0.045
4838,-0.015,-0.045
4839,0.005,-0.045
4840,-0.015,-0.035
4841,-0.015,-0.045
4842,-0.015,-0.055
4843,-0.035,-0.065
4844,-0.035,-0.055
4845,-0.025,-0.055
4846,-0.035,-0.065
4847,-0.015,-0.065
4848,-0.025,-0.065
4849,-0.025,-0.065
4850,-0.035,-0.065
4851,-0.055,-0.055
4852,-0.035,-0.075
4853,-0.035,-0.055
4854,-0.045,-0.085
4855,-0.015,-0.065
4856,-0.025,-0.065
4857,-0.035,-0.065
4858,-0.045,-0.075
4859,-0.035,-0.065
4860,-0.045,-0.065
4861,-0.025,-0.075
4862,-0.035,-0.065
4863,-0.025,-0.065
4864,-0.025,-0.065
4865,-0.025,-0.055
4866,-0.025,-0.085
4867,-0.055,-0.065
4868,-0.045,-0.065
4869,-0.035,-0.045
4870,-0.035,-0.065
4871,-0.025,-0.075
4872,-0.035,-0.055
4873,-0.035,-0.045
4874,-0.035,-0.065
4875,-0.045,-0.065
4876,-0.015,-0.045
4877,-0.035,-0.055
4878,-0.025,-0.055
4879,0.005,-0.035
4880,0.045,0.025
4881,0.075,0.045
4882,0.075,0.065
4883,0.105,0.095
4884,0.155,0.095
4885,0.135,-0.005
4886,0.135,-0.035
4887,0.105,-0.045
4888,0.045,-0.075
4889,0.015,-0.065
4890,-0.015,-0.085
4891,-0.015,-0.085
4892,-0.015,-0.085
4893,-0.005,-0.085
4894,0.005,0.035
4895,0.035,0.125
4896,0.155,-0.205
4897,0.705,-0.455
4898,1.305,-0.825
4899,0.745,-1.045
4900,-0.205,-0.575
4901,-0.325,-0.075
4902,-0.155,-0.045
4903,-0.025,-0.035
4904,-0.005,-0.035
4905,-0.005,-0.035
4906,-0.015,-0.045
4907,-0.035,-0.035
4908,-0.025,-0.005
4909,-0.015,0.005
4910,-0.035,-0.005
4911,-0.015,0.005
4912,-0.005,0.015
4913,-0.005,0.000
4914,-0.005,0.010
4915,-0.005,0.020
4916,0.005,0.020
4917,0.015,0.040
4918,0.035,0.050
4919,0.045,0.060
4920,0.045,0.060
4921,0.065,0.060
4922,0.065,0.060
4923,0.085,0.080
4924,0.105,0.080
4925,0.125,0.100
4926,0.125,0.090
4927,0.145,0.110
4928,0.175,0.120
4929,0.205,0.120
4930,0.205,0.120
4931,0.215,0.130
4932,0.215,0.130
4933,0.235,0.120
4934,0.235,0.130
4935,0.235,0.100
4936,0.205,0.100
4937,0.175,0.080
4938,0.145,0.070
4939,0.055,0.050
4940,0.005,0.040
4941,-0.025,0.020
4942,-0.055,0.010
4943,-0.075,0.020
4944,-0.085,0.000
4945,-0.105,0.000
4946,-0.095,0.000
4947,-0.125,-0.010
4948,-0.105,0.000
4949,-0.095,0.020
4950,-0.085,0.000
4951,-0.085,0.010
4952,-0.085,0.010
4953,-0.085,0.000
4954,-0.065,0.000
4955,-0.085,0.000
4956,-0.075,-0.010
4957,-0.085,-0.010
4958,-0.085,-0.010
4959,-0.075,0.000
4960,-0.075,0.000
4961,-0.085,-0.010
4962,-0.085,-0.010
4963,-0.095,-0.010
4964,-0.095,-0.010
4965,-0.095,-0.010
4966,-0.105,-0.030
4967,-0.105,-0.020
4968,-0.105,-0.020
4969,-0.105,-0.030
4970,-0.105,-0.030
4971,-0.125,-0.040
4972,-0.115,-0.030
4973,-0.105,-0.015
4974,-0.115,-0.025
4975,-0.095,-0.035
4976,-0.105,-0.025
4977,-0.105,-0.025
4978,-0.115,-0.035
4979,-0.115,-0.045
4980,-0.125,-0.045
4981,-0.095,-0.025
4982,-0.115,-0.045
4983,-0.095,-0.045
4984,-0.105,-0.045
4985,-0.105,-0.035
4986,-0.125,-0.055
4987,-0.125,-0.055
4988,-0.125,-0.055
4989,-0.105,-0.055
4990,-0.095,-0.045
4991,-0.095,-0.055
4992,-0.105,-0.065
4993,-0.105,-0.065
4994,-0.105,-0.075
4995,-0.115,-0.055
4996,-0.115,-0.065
4997,-0.105,-0.055
4998,-0.115,-0.065
4999,-0.105,-0.055
5000,-0.105,-0.055
5001,-0.105,-0.060
5002,-0.105,-0.070
5003,-0.105,-0.070
5004,-0.055,0.000
5005,-0.015,0.040
5006,-0.015,0.040
5007,0.005,0.060
5008,0.075,0.100
5009,0.045,-0.010
5010,0.075,-0.020
5011,0.005,-0.090
5012,-0.045,-0.120
5013,-0.105,-0.110
5014,-0.105,-0.130
5015,-0.115,-0.130
5016,-0.115,-0.130
5017,-0.125,-0.140
5018,-0.105,-0.050
5019,-0.105,0.110
5020,-0.045,-0.140
5021,0.555,-0.460
5022,1.215,-0.760
5023,0.975,-1.050
5024,-0.235,-0.770
5025,-0.505,-0.210
5026,-0.345,-0.100
5027,-0.155,-0.100
5028,-0.115,-0.100
5029,-0.115,-0.110
5030,-0.125,-0.100
5031,-0.115,-0.090
5032,-0.115,-0.090
5033,-0.125,-0.070
5034,-0.115,-0.080
5035,-0.145,-0.090
5036,-0.125,-0.050
5037,-0.095,-0.050
5038,-0.105,-0.060
5039,-0.095,-0.060
5040,-0.095,-0.050
5041,-0.075,-0.030
5042,-0.065,-0.040
5043,-0.075,-0.040
5044,-0.055,-0.030
5045,-0.035,-0.020
5046,-0.015,-0.020
5047,0.005,-0.010
5048,0.025,-0.010
5049,0.025,-0.010
5050,0.045,-0.010
5051,0.055,0.000
5052,0.065,0.000
5053,0.095,0.000
5054,0.115,0.010
5055,0.145,0.000
5056,0.145,0.010
5057,0.145,-0.015
5058,0.165,0.015
5059,0.145,0.005
5060,0.125,0.005
5061,0.105,-0.005
5062,0.065,-0.025
5063,0.025,-0.025
5064,-0.035,-0.045
5065,-0.095,-0.055
5066,-0.125,-0.075
5067,-0.175,-0.085
5068,-0.165,-0.075
5069,-0.185,-0.085
5070,-0.185,-0.105
5071,-0.185,-0.105
5072,-0.175,-0.075
5073,-0.175,-0.085
5074,-0.185,-0.095
5075,-0.195,-0.095
5076,-0.165,-0.075
5077,-0.165,-0.095
5078,-0.155,-0.115
5079,-0.155,-0.105
5080,-0.145,-0.085
5081,-0.155,-0.095
5082,-0.165,-0.115
5083,-0.185,-0.115
5084,-0.165,-0.105
5085,-0.145,-0.105
5086,-0.165,-0.125
5087,-0.175,-0.115
5088,-0.175,-0.105
5089,-0.175,-0.115
5090,-0.175,-0.125
5091,-0.195,-0.125
5092,-0.195,-0.125
5093,-0.185,-0.125
5094,-0.195,-0.135
5095,-0.175,-0.125
5096,-0.205,-0.135
5097,-0.195,-0.125
5098,-0.195,-0.155
5099,-0.215,-0.135
5100,-0.205,-0.125
5101,-0.205,-0.135
5102,-0.195,-0.145
5103,-0.185,-0.135
5104,-0.185,-0.125
5105,-0.185,-0.115
5106,-0.195,-0.135
5107,-0.205,-0.125
5108,-0.215,-0.135
5109,-0.205,-0.125
5110,-0.175,-0.135
5111,-0.175,-0.125
5112,-0.185,-0.115
5113,-0.195,-0.115
5114,-0.195,-0.135
5115,-0.195,-0.135
5116,-0.185,-0.105
5117,-0.175,-0.115
5118,-0.185,-0.115
5119,-0.175,-0.125
5120,-0.165,-0.105
5121,-0.165,-0.105
5122,-0.165,-0.115
5123,-0.165,-0.115
5124,-0.175,-0.095
5125,-0.155,-0.095
5126,-0.165,-0.105
5127,-0.145,-0.095
5128,-0.125,-0.075
5129,-0.105,-0.045
5130,-0.065,-0.025
5131,-0.045,-0.005
5132,-0.015,0.025
5133,0.045,0.055
5134,0.045,-0.015
5135,0.035,-0.055
5136,0.025,-0.055
5137,-0.055,-0.075
5138,-0.115,-0.085
5139,-0.135,-0.085
5140,-0.155,-0.075
5141,-0.145,-0.075
5142,-0.145,-0.095
5143,-0.125,-0.055
5144,-0.095,0.085
5145,-0.065,0.005
5146,0.435,-0.205
5147,1.135,-0.335
5148,1.165,-0.565
5149,-0.075,-0.585
5150,-0.545,-0.235
5151,-0.415,-0.075
5152,-0.175,-0.055
5153,-0.125,-0.055
5154,-0.155,-0.065
5155,-0.155,-0.065
5156,-0.145,-0.045
5157,-0.155,-0.055
5158,-0.155,-0.065
5159,-0.135,-0.055
5160,-0.115,-0.045
5161,-0.135,-0.055
5162,-0.135,-0.055
5163,-0.115,-0.055
5164,-0.105,-0.045
5165,-0.105,-0.055
5166,-0.105,-0.055
5167,-0.075,-0.055
5168,-0.055,-0.045
5169,-0.065,-0.055
5170,-0.055,-0.065
5171,-0.025,-0.055
5172,-0.015,-0.055
5173,0.005,-0.055
5174,0.015,-0.065
5175,0.035,-0.045
5176,0.055,-0.045
5177,0.055,-0.045
5178,0.075,-0.055
5179,0.085,-0.065
5180,0.105,-0.045
5181,0.115,-0.045
5182,0.125,-0.055
5183,0.135,-0.055
5184,0.125,-0.055
5185,0.115,-0.055
5186,0.085,-0.065
5187,0.055,-0.055
5188,0.025,-0.065
5189,-0.015,-0.075
5190,-0.055,-0.095
5191,-0.085,-0.105
5192,-0.105,-0.095
5193,-0.135,-0.115
5194,-0.145,-0.125
5195,-0.155,-0.125
5196,-0.145,-0.125
5197,-0.145,-0.135
5198,-0.145,-0.135
5199,-0.135,-0.115
5200,-0.135,-0.115
5201,-0.135,-0.115
5202,-0.145,-0.135
5203,-0.145,-0.125
5204,-0.135,-0.105
5205,-0.135,-0.115
5206,-0.145,-0.125
5207,-0.135,-0.125
5208,-0.135,-0.125
5209,-0.145,-0.115
5210,-0.145,-0.135
5211,-0.165,-0.125
5212,-0.135,-0.115
5213,-0.165,-0.115
5214,-0.165,-0.125
5215,-0.165,-0.115
5216,-0.165,-0.115
5217,-0.145,-0.105
5218,-0.145,-0.115
5219,-0.175,-0.115
5220,-0.175,-0.105
5221,-0.165,-0.105
5222,-0.165,-0.105
5223,-0.135,-0.105
5224,-0.145,-0.085
5225,-0.155,-0.095
5226,-0.135,-0.095
5227,-0.165,-0.095
5228,-0.155,-0.095
5229,-0.145,-0.095
5230,-0.155,-0.095
5231,-0.125,-0.085
5232,-0.135,-0.085
5233,-0.155,-0.085
5234,-0.145,-0.105
5235,-0.155,-0.075
5236,-0.145,-0.085
5237,-0.145,-0.085
5238,-0.145,-0.085
5239,-0.135,-0.085
5240,-0.145,-0.065
5241,-0.135,-0.065
5242,-0.135,-0.085
5243,-0.145,-0.085
5244,-0.135,-0.075
5245,-0.145,-0.075
5246,-0.145,-0.095
5247,-0.135,-0.085
5248,-0.145,-0.085
5249,-0.145,-0.085
5250,-0.135,-0.085
5251,-0.135,-0.075
5252,-0.115,-0.055
5253,-0.065,-0.015
5254,-0.045,-0.005
5255,-0.025,0.025
5256,0.015,0.045
5257,0.045,0.025
5258,0.025,-0.045
5259,0.005,-0.065
5260,-0.055,-0.095
5261,-0.095,-0.105
5262,-0.155,-0.135
5263,-0.175,-0.135
5264,-0.155,-0.125
5265,-0.145,-0.125
5266,-0.135,-0.125
5267,-0.165,0.015
5268,-0.125,0.005
5269,0.305,-0.275
5270,1.045,-0.505
5271,1.465,-0.825
5272,0.285,-0.935
5273,-0.535,-0.495
5274,-0.485,-0.145
5275,-0.235,-0.115
5276,-0.135,-0.105
5277,-0.125,-0.115
5278,-0.135,-0.115
5279,-0.135,-0.105
5280,-0.135,-0.095
5281,-0.125,-0.085
5282,-0.125,-0.095
5283,-0.125,-0.085
5284,-0.125,-0.075
5285,-0.115,-0.075
5286,-0.115,-0.075
5287,-0.085,-0.075
5288,-0.075,-0.055
5289,-0.065,-0.035
5290,-0.085,-0.075
5291,-0.075,-0.055
5292,-0.045,-0.025
5293,-0.035,-0.025
5294,-0.025,-0.025
5295,-0.015,-0.025
5296,0.015,-0.015
5297,0.025,-0.005
5298,0.025,-0.005
5299,0.045,0.005
5300,0.065,0.025
5301,0.105,0.025
5302,0.115,0.015
5303,0.125,0.025
5304,0.145,0.055
5305,0.145,0.045
5306,0.165,0.055
5307,0.155,0.035
5308,0.145,0.025
5309,0.135,0.015
5310,0.095,-0.005
5311,0.075,-0.005
5312,0.045,-0.025
5313,0.005,-0.045
5314,-0.025,-0.055
5315,-0.055,-0.075
5316,-0.075,-0.065
5317,-0.075,-0.095
5318,-0.075,-0.095
5319,-0.075,-0.085
5320,-0.075,-0.085
5321,-0.085,-0.085
5322,-0.065,-0.085
5323,-0.075,-0.085
5324,-0.075,-0.085
5325,-0.065,-0.085
5326,-0.065,-0.095
5327,-0.065,-0.085
5328,-0.065,-0.075
5329,-0.075,-0.075
5330,-0.065,-0.095
5331,-0.085,-0.085
5332,-0.085,-0.085
5333,-0.075,-0.075
5334,-0.075,-0.095
5335,-0.075,-0.095
5336,-0.085,-0.095
5337,-0.095,-0.095
5338,-0.105,-0.105
5339,-0.115,-0.105
5340,-0.095,-0.095
5341,-0.115,-0.095
5342,-0.115,-0.105
5343,-0.105,-0.115
5344,-0.105,-0.095
5345,-0.115,-0.095
5346,-0.125,-0.105
5347,-0.125,-0.105
5348,-0.125,-0.115
5349,-0.135,-0.105
5350,-0.125,-0.115
5351,-0.115,-0.105
5352,-0.125,-0.095
5353,-0.145,-0.105
5354,-0.145,-0.105
5355,-0.145,-0.095
5356,-0.135,-0.095
5357,-0.135,-0.115
5358,-0.135,-0.105
5359,-0.135,-0.105
5360,-0.125,-0.085
5361,-0.135,-0.095
5362,-0.145,-0.115
5363,-0.155,-0.105
5364,-0.145,-0.105
5365,-0.145,-0.105
5366,-0.145,-0.105
5367,-0.125,-0.105
5368,-0.145,-0.095
5369,-0.135,-0.105
5370,-0.135,-0.105
5371,-0.155,-0.115
5372,-0.135,-0.105
5373,-0.135,-0.105
5374,-0.145,-0.115
5375,-0.145,-0.095
5376,-0.135,-0.105
5377,-0.115,-0.075
5378,-0.085,-0.055
5379,-0.065,-0.005
5380,-0.055,0.015
5381,-0.025,0.035
5382,0.035,0.045
5383,0.025,-0.035
5384,0.045,-0.065
5385,-0.035,-0.105
5386,-0.085,-0.135
5387,-0.135,-0.125
5388,-0.155,-0.125
5389,-0.155,-0.125
5390,-0.145,-0.135
5391,-0.145,-0.125
5392,-0.135,-0.035
5393,-0.115,0.055
5394,0.085,-0.185
5395,0.695,-0.365
5396,1.295,-0.635
5397,0.575,-0.865
5398,-0.395,-0.635
5399,-0.485,-0.205
5400,-0.275,-0.105
5401,-0.145,-0.105
5402,-0.135,-0.105
5403,-0.155,-0.105
5404,-0.165,-0.095
5405,-0.145,-0.095
5406,-0.155,-0.085
5407,-0.145,-0.085
5408,-0.135,-0.075
5409,-0.135,-0.075
5410,-0.125,-0.075
5411,-0.145,-0.075
5412,-0.115,-0.055
5413,-0.115,-0.055
5414,-0.105,-0.065
5415,-0.075,-0.065
5416,-0.075,-0.045
5417,-0.075,-0.045
5418,-0.055,-0.055
5419,-0.055,-0.055
5420,-0.035,-0.035
5421,-0.015,-0.035
5422,-0.005,-0.045
5423,0.015,-0.025
5424,0.035,-0.015
5425,0.055,-0.015
5426,0.065,-0.015
5427,0.075,-0.015
5428,0.105,0.005
5429,0.125,-0.005
5430,0.115,-0.005
5431,0.155,0.005
5432,0.165,0.025
5433,0.135,0.005
5434,0.125,-0.015
5435,0.105,-0.015
5436,0.075,0.005
5437,0.025,-0.015
5438,-0.025,-0.035
5439,-0.055,-0.045
5440,-0.105,-0.045
5441,-0.125,-0.045
5442,-0.145,-0.055
5443,-0.155,-0.055
5444,-0.155,-0.045
5445,-0.155,-0.045
5446,-0.145,-0.035
5447,-0.135,-0.045
5448,-0.125,-0.035
5449,-0.135,-0.045
5450,-0.135,-0.045
5451,-0.135,-0.045
5452,-0.115,-0.035
5453,-0.105,-0.035
5454,-0.105,-0.055
5455,-0.085,-0.045
5456,-0.085,-0.045
5457,-0.095,-0.045
5458,-0.095,-0.055
5459,-0.115,-0.055
5460,-0.085,-0.055
5461,-0.095,-0.065
5462,-0.095,-0.075
5463,-0.085,-0.065
5464,-0.085,-0.045
5465,-0.085,-0.065
5466,-0.085,-0.065
5467,-0.105,-0.075
5468,-0.085,-0.065
5469,-0.095,-0.075
5470,-0.095,-0.085
5471,-0.085,-0.085
5472,-0.095,-0.075
5473,-0.095,-0.075
5474,-0.095,-0.075
5475,-0.095,-0.085
5476,-0.085,-0.075
5477,-0.095,-0.075
5478,-0.105,-0.085
5479,-0.095,-0.075
5480,-0.085,-0.075
5481,-0.095,-0.075
5482,-0.085,-0.085
5483,-0.095,-0.085
5484,-0.085,-0.065
5485,-0.095,-0.065
5486,-0.095,-0.085
5487,-0.085,-0.075
5488,-0.095,-0.065
5489,-0.095,-0.065
5490,-0.095,-0.075
5491,-0.105,-0.065
5492,-0.095,-0.065
5493,-0.085,-0.065
5494,-0.085,-0.065
5495,-0.075,-0.055
5496,-0.085,-0.045
5497,-0.085,-0.045
5498,-0.085,-0.055
5499,-0.095,-0.045
5500,-0.085,-0.035
5501,-0.085,-0.025
5502,-0.065,-0.005
5503,-0.005,0.035
5504,-0.015,0.045
5505,0.005,0.065
5506,0.055,0.085
5507,0.055,0.035
5508,0.055,0.015
5509,0.035,-0.005
5510,-0.005,-0.035
5511,-0.035,-0.035
5512,-0.065,-0.035
5513,-0.065,-0.035
5514,-0.075,-0.045
5515,-0.065,-0.045
5516,-0.055,-0.025
5517,-0.045,0.085
5518,-0.035,0.045
5519,0.275,-0.115
5520,0.815,-0.225
5521,0.935,-0.425
5522,0.115,-0.475
5523,-0.335,-0.225
5524,-0.275,-0.035
5525,-0.105,-0.015
5526,-0.065,-0.015
5527,-0.065,-0.015
5528,-0.075,-0.005
5529,-0.065,0.005
5530,-0.065,-0.015
5531,-0.075,-0.005
5532,-0.075,0.005
5533,-0.065,0.005
5534,-0.065,-0.005
5535,-0.045,0.005
5536,-0.055,0.005
5537,-0.045,0.005
5538,-0.055,-0.005
5539,-0.045,0.005
5540,-0.035,0.015
5541,-0.025,0.005
5542,-0.005,0.005
5543,0.005,0.005
5544,0.015,0.015
5545,0.015,0.015
5546,0.045,0.005
5547,0.055,0.005
5548,0.075,0.025
5549,0.085,0.025
5550,0.095,0.025
5551,0.115,0.025
5552,0.145,0.035
5553,0.145,0.025
5554,0.165,0.035
5555,0.145,0.045
5556,0.185,0.055
5557,0.165,0.045
5558,0.165,0.025
5559,0.135,0.025
5560,0.105,0.025
5561,0.065,0.005
5562,0.025,-0.005
5563,-0.015,-0.005
5564,-0.025,-0.005
5565,-0.055,-0.025
5566,-0.065,-0.035
5567,-0.065,-0.035
5568,-0.075,-0.025
5569,-0.065,-0.035
5570,-0.065,-0.045
5571,-0.075,-0.045
5572,-0.065,-0.035
5573,-0.075,-0.035
5574,-0.055,-0.045
5575,-0.045,-0.045
5576,-0.035,-0.035
5577,-0.035,-0.025
5578,-0.045,-0.045
5579,-0.035,-0.035
5580,-0.035,-0.045
5581,-0.045,-0.035
5582,-0.045,-0.045
5583,-0.025,-0.045
5584,-0.025,-0.035
5585,-0.035,-0.045
5586,-0.025,-0.045
5587,-0.045,-0.045
5588,-0.025,-0.035
5589,-0.035,-0.035
5590,-0.035,-0.035
5591,-0.025,-0.025
5592,-0.025,-0.015
5593,-0.015,-0.025
5594,-0.035,-0.035
5595,-0.045,-0.015
5596,-0.025,-0.005
5597,-0.045,0.005
5598,-0.035,-0.005
5599,-0.025,0.005
5600,-0.025,0.025
5601,-0.035,0.015
5602,-0.045,0.025
5603,-0.055,0.025
5604,-0.045,0.045
5605,-0.055,0.045
5606,-0.055,0.035
5607,-0.055,0.045
5608,-0.075,0.055
5609,-0.085,0.055
5610,-0.065,0.055
5611,-0.065,0.055
5612,-0.085,0.065
5613,-0.055,0.065
5614,-0.045,0.055
5615,-0.055,0.065
5616,-0.055,0.075
5617,-0.055,0.075
5618,-0.095,0.065
5619,-0.075,0.065
5620,-0.075,0.075
5621,-0.065,0.075
5622,-0.065,0.065
5623,-0.055,0.075
5624,-0.075,0.075
5625,-0.075,0.065
5626,-0.095,0.055
5627,-0.105,0.065
5628,-0.095,0.065
5629,-0.065,0.065
5630,-0.015,0.065
5631,0.005,0.075
5632,-0.005,0.085
5633,0.055,0.095
5634,0.035,0.055
5635,0.065,0.045
5636,0.035,0.025
5637,-0.045,0.005
5638,-0.105,-0.015
5639,-0.125,-0.025
5640,-0.105,-0.025
5641,-0.125,-0.035
5642,-0.115,-0.055
5643,-0.115,-0.025
5644,-0.075,0.065
5645,0.005,-0.045
5646,0.555,-0.185
5647,1.115,-0.335
5648,0.775,-0.535
5649,-0.205,-0.515
5650,-0.425,-0.225
5651,-0.305,-0.105
5652,-0.125,-0.075
5653,-0.095,-0.075
5654,-0.115,-0.085
5655,-0.095,-0.065
5656,-0.125,-0.065
5657,-0.095,-0.065
5658,-0.095,-0.065
5659,-0.105,-0.055
5660,-0.095,-0.055
5661,-0.085,-0.055
5662,-0.115,-0.055
5663,-0.105,-0.045
5664,-0.065,-0.025
5665,-0.095,-0.025
5666,-0.075,-0.045
5667,-0.065,-0.035
5668,-0.055,-0.015
5669,-0.015,-0.005
5670,-0.025,0.005
5671,-0.025,-0.015
5672,-0.005,-0.005
5673,-0.005,0.005
5674,0.015,-0.005
5675,0.025,0.005
5676,0.045,0.015
5677,0.065,0.015
5678,0.075,0.015
5679,0.105,0.015
5680,0.125,0.025
5681,0.145,0.035
5682,0.135,0.025
5683,0.145,0.025
5684,0.155,0.025
5685,0.115,0.015
5686,0.115,0.005
5687,0.065,0.015
5688,0.035,0.015
5689,-0.035,-0.005
5690,-0.075,-0.015
5691,-0.095,-0.015
5692,-0.125,-0.025
5693,-0.135,-0.035
5694,-0.135,-0.045
5695,-0.135,-0.045
5696,-0.135,-0.035
5697,-0.145,-0.035
5698,-0.145,-0.045
5699,-0.135,-0.035
5700,-0.125,-0.035
5701,-0.145,-0.035
5702,-0.115,-0.045
5703,-0.095,-0.035
5704,-0.105,-0.055
5705,-0.105,-0.045
5706,-0.115,-0.055
5707,-0.115,-0.055
5708,-0.105,-0.045
5709,-0.105,-0.065
5710,-0.115,-0.065
5711,-0.115,-0.065
5712,-0.105,-0.055
5713,-0.115,-0.055
5714,-0.125,-0.065
5715,-0.115,-0.065
5716,-0.125,-0.055
5717,-0.125,-0.055
5718,-0.115,-0.065
5719,-0.135,-0.065
5720,-0.115,-0.055
5721,-0.115,-0.055
5722,-0.135,-0.075
5723,-0.145,-0.065
5724,-0.135,-0.055
5725,-0.125,-0.055
5726,-0.125,-0.065
5727,-0.125,-0.065
5728,-0.125,-0.055
5729,-0.125,-0.055
5730,-0.135,-0.065
5731,-0.145,-0.065
5732,-0.125,-0.055
5733,-0.135,-0.055
5734,-0.135,-0.065
5735,-0.115,-0.065
5736,-0.115,-0.055
5737,-0.125,-0.055
5738,-0.125,-0.065
5739,-0.135,-0.055
5740,-0.125,-0.055
5741,-0.115,-0.045
5742,-0.125,-0.055
5743,-0.115,-0.055
5744,-0.115,-0.045
5745,-0.125,-0.045
5746,-0.125,-0.045
5747,-0.135,-0.045
5748,-0.135,-0.035
5749,-0.125,-0.035
5750,-0.125,-0.035
5751,-0.115,-0.025
5752,-0.115,-0.015
5753,-0.105,-0.015
5754,-0.085,-0.005
5755,-0.055,0.025
5756,-0.045,0.045
5757,-0.025,0.045
5758,0.025,0.065
5759,0.025,0.025
5760,0.015,0.015
5761,-0.005,-0.015
5762,-0.035,-0.035
5763,-0.095,-0.035
5764,-0.115,-0.045
5765,-0.125,-0.055
5766,-0.125,-0.065
5767,-0.115,-0.065
5768,-0.105,-0.055
5769,-0.085,0.035
5770,-0.035,-0.015
5771,0.315,-0.165
5772,0.705,-0.205
5773,1.025,-0.395
5774,0.365,-0.585
5775,-0.295,-0.425
5776,-0.385,-0.155
5777,-0.235,-0.115
5778,-0.145,-0.115
5779,-0.135,-0.085
5780,-0.135,-0.105
5781,-0.135,-0.095
5782,-0.125,-0.105
5783,-0.125,-0.095
5784,-0.145,-0.095
5785,-0.135,-0.085
5786,-0.145,-0.105
5787,-0.135,-0.105
5788,-0.125,-0.095
5789,-0.125,-0.085
5790,-0.115,-0.105
5791,-0.105,-0.095
5792,-0.075,-0.085
5793,-0.075,-0.085
5794,-0.075,-0.105
5795,-0.075,-0.105
5796,-0.045,-0.085
5797,-0.025,-0.065
5798,-0.025,-0.095
5799,0.005,-0.075
5800,0.015,-0.075
5801,0.025,-0.075
5802,0.045,-0.085
5803,0.035,-0.095
5804,0.065,-0.055
5805,0.115,-0.065
5806,0.115,-0.065
5807,0.105,-0.055
5808,0.125,-0.065
5809,0.135,-0.065
5810,0.085,-0.055
5811,0.055,-0.075
5812,0.055,-0.075
5813,0.015,-0.095
5814,-0.035,-0.115
5815,-0.065,-0.105
5816,-0.125,-0.125
5817,-0.145,-0.155
5818,-0.175,-0.175
5819,-0.165,-0.165
5820,-0.165,-0.165
5821,-0.155,-0.165
5822,-0.165,-0.175
5823,-0.165,-0.165
5824,-0.145,-0.175
5825,-0.145,-0.175
5826,-0.135,-0.205
5827,-0.145,-0.185
5828,-0.135,-0.165
5829,-0.125,-0.185
5830,-0.135,-0.195
5831,-0.115,-0.185
5832,-0.115,-0.205
5833,-0.105,-0.185
5834,-0.115,-0.215
5835,-0.115,-0.205
5836,-0.105,-0.185
5837,-0.115,-0.205
5838,-0.115,-0.225
5839,-0.095,-0.205
5840,-0.125,-0.195
5841,-0.115,-0.215
5842,-0.125,-0.235
5843,-0.125,-0.205
5844,-0.125,-0.225
5845,-0.115,-0.235
5846,-0.135,-0.225
5847,-0.125,-0.225
5848,-0.125,-0.205
5849,-0.135,-0.255
5850,-0.145,-0.235
5851,-0.145,-0.225
5852,-0.125,-0.235
5853,-0.135,-0.225
5854,-0.135,-0.235
5855,-0.125,-0.235
5856,-0.115,-0.235
5857,-0.115,-0.225
5858,-0.125,-0.245
5859,-0.135,-0.235
5860,-0.145,-0.225
5861,-0.135,-0.235
5862,-0.115,-0.245
5863,-0.125,-0.235
5864,-0.135,-0.215
5865,-0.125,-0.235
5866,-0.135,-0.245
5867,-0.135,-0.235
5868,-0.115,-0.235
5869,-0.115,-0.225
5870,-0.115,-0.245
5871,-0.115,-0.235
5872,-0.105,-0.225
5873,-0.095,-0.215
5874,-0.105,-0.235
5875,-0.075,-0.185
5876,-0.045,-0.165
5877,-0.025,-0.145
5878,-0.025,-0.135
5879,0.015,-0.075
5880,0.035,-0.125
5881,0.025,-0.185
5882,0.015,-0.205
5883,-0.015,-0.215
5884,-0.035,-0.215
5885,-0.075,-0.235
5886,-0.095,-0.255
5887,-0.065,-0.245
5888,-0.065,-0.225
5889,-0.055,-0.205
5890,-0.035,-0.045
5891,0.025,-0.055
5892,0.275,-0.345
5893,0.675,-0.665
5894,0.885,-1.005
5895,0.345,-1.005
5896,-0.155,-0.585
5897,-0.235,-0.245
5898,-0.155,-0.195
5899,-0.105,-0.175
5900,-0.095,-0.165
5901,-0.085,-0.165
5902,-0.075,-0.155
5903,-0.085,-0.155
5904,-0.085,-0.135
5905,-0.085,-0.115
5906,-0.085,-0.135
5907,-0.095,-0.125
5908,-0.085,-0.115
5909,-0.085,-0.115
5910,-0.085,-0.115
5911,-0.065,-0.085
5912,-0.045,-0.085
5913,-0.055,-0.085
5914,-0.065,-0.085
5915,-0.045,-0.075
5916,-0.035,-0.065
5917,-0.015,-0.045
5918,-0.005,-0.045
5919,0.015,-0.045
5920,0.015,-0.025
5921,0.025,-0.015
5922,0.045,-0.005
5923,0.055,-0.015
5924,0.095,0.005
5925,0.095,0.005
5926,0.105,0.025
5927,0.145,0.025
5928,0.155,0.025
5929,0.145,0.025
5930,0.145,0.015
5931,0.145,0.005
5932,0.115,-0.005
5933,0.085,-0.045
5934,0.045,-0.065
5935,0.015,-0.095
5936,-0.055,-0.105
5937,-0.105,-0.135
5938,-0.135,-0.145
5939,-0.165,-0.175
5940,-0.185,-0.165
5941,-0.175,-0.175
5942,-0.205,-0.185
5943,-0.175,-0.185
5944,-0.175,-0.185
5945,-0.205,-0.185
5946,-0.175,-0.175
5947,-0.175,-0.205
5948,-0.155,-0.185
5949,-0.175,-0.185
5950,-0.185,-0.205
5951,-0.185,-0.215
5952,-0.165,-0.195
5953,-0.175,-0.215
5954,-0.185,-0.215
5955,-0.195,-0.225
5956,-0.155,-0.195
5957,-0.165,-0.205
5958,-0.175,-0.215
5959,-0.165,-0.225
5960,-0.175,-0.195
5961,-0.195,-0.225
5962,-0.185,-0.225
5963,-0.185,-0.225
5964,-0.185,-0.215
5965,-0.175,-0.225
5966,-0.175,-0.225
5967,-0.155,-0.225
5968,-0.155,-0.225
5969,-0.175,-0.225
5970,-0.165,-0.225
5971,-0.185,-0.235
5972,-0.165,-0.225
5973,-0.165,-0.225
5974,-0.175,-0.235
5975,-0.165,-0.235
5976,-0.155,-0.215
5977,-0.145,-0.225
5978,-0.165,-0.245
5979,-0.165,-0.235
5980,-0.145,-0.225
5981,-0.135,-0.215
5982,-0.185,-0.245
5983,-0.145,-0.225
5984,-0.145,-0.205
5985,-0.145,-0.215
5986,-0.155,-0.245
5987,-0.155,-0.235
5988,-0.165,-0.215
5989,-0.155,-0.235
5990,-0.135,-0.215
5991,-0.135,-0.235
5992,-0.155,-0.205
5993,-0.165,-0.225
5994,-0.135,-0.235
5995,-0.155,-0.235
5996,-0.125,-0.215
5997,-0.175,-0.235
5998,-0.155,-0.185
5999,-0.075,-0.135
6000,-0.075,-0.125
6001,-0.075,-0.105
6002,0.015,-0.105
6003,0.005,-0.135
6004,-0.005,-0.195
6005,-0.025,-0.205
6006,-0.085,-0.225
6007,-0.125,-0.255
6008,-0.135,-0.245
6009,-0.185,-0.265
6010,-0.175,-0.295
6011,-0.165,-0.255
6012,-0.125,-0.235
6013,-0.135,-0.105
6014,-0.105,-0.045
6015,0.185,-0.305
6016,0.785,-0.525
6017,1.225,-0.955
6018,0.315,-1.105
6019,-0.475,-0.725
6020,-0.465,-0.305
6021,-0.265,-0.225
6022,-0.145,-0.225
6023,-0.145,-0.215
6024,-0.145,-0.205
6025,-0.135,-0.205
6026,-0.155,-0.225
6027,-0.155,-0.195
6028,-0.135,-0.165
6029,-0.125,-0.175
6030,-0.125,-0.165
6031,-0.115,-0.175
6032,-0.115,-0.145
6033,-0.115,-0.145
6034,-0.095,-0.155
6035,-0.105,-0.145
6036,-0.085,-0.125
6037,-0.075,-0.125
6038,-0.065,-0.125
6039,-0.045,-0.135
6040,-0.035,-0.105
6041,-0.025,-0.095
6042,-0.025,-0.105
6043,-0.005,-0.095
6044,0.015,-0.085
6045,0.025,-0.065
6046,0.055,-0.075
6047,0.095,-0.065
6048,0.105,-0.045
6049,0.105,-0.055
6050,0.135,-0.045
6051,0.135,-0.055
6052,0.155,-0.035
6053,0.155,-0.045
6054,0.155,-0.055
6055,0.165,-0.075
6056,0.105,-0.075
6057,0.065,-0.075
6058,0.005,-0.105
6059,-0.065,-0.135
6060,-0.105,-0.145
6061,-0.135,-0.145
6062,-0.155,-0.185
6063,-0.155,-0.145
6064,-0.145,-0.145
6065,-0.165,-0.165
6066,-0.175,-0.175
6067,-0.175,-0.175
6068,-0.155,-0.165
6069,-0.175,-0.155
6070,-0.155,-0.165
6071,-0.145,-0.185
6072,-0.135,-0.175
6073,-0.145,-0.175
6074,-0.115,-0.155
6075,-0.125,-0.185
6076,-0.125,-0.175
6077,-0.135,-0.165
6078,-0.125,-0.175
6079,-0.135,-0.185
6080,-0.155,-0.185
6081,-0.125,-0.165
6082,-0.115,-0.165
6083,-0.135,-0.195
6084,-0.125,-0.175
6085,-0.135,-0.185
6086,-0.145,-0.185
6087,-0.135,-0.175
6088,-0.125,-0.175
6089,-0.145,-0.175
6090,-0.125,-0.185
6091,-0.145,-0.185
6092,-0.155,-0.185
6093,-0.145,-0.185
6094,-0.145,-0.165
6095,-0.145,-0.175
6096,-0.155,-0.195
6097,-0.135,-0.175
6098,-0.145,-0.175
6099,-0.135,-0.175
6100,-0.155,-0.175
6101,-0.145,-0.185
6102,-0.135,-0.175
6103,-0.145,-0.175
6104,-0.165,-0.175
6105,-0.125,-0.185
6106,-0.155,-0.185
6107,-0.145,-0.185
6108,-0.145,-0.165
6109,-0.135,-0.175
6110,-0.135,-0.195
6111,-0.135,-0.175
6112,-0.145,-0.175
6113,-0.125,-0.165
6114,-0.145,-0.185
6115,-0.125,-0.185
6116,-0.125,-0.155
6117,-0.135,-0.165
6118,-0.165,-0.175
6119,-0.125,-0.145
6120,-0.085,-0.115
6121,-0.065,-0.095
6122,-0.045,-0.065
6123,-0.055,-0.065
6124,0.005,-0.015
6125,0.025,-0.085
6126,0.025,-0.155
6127,0.025,-0.145
6128,-0.035,-0.185
6129,-0.125,-0.185
6130,-0.155,-0.205
6131,-0.155,-0.205
6132,-0.135,-0.195
6133,-0.135,-0.195
6134,-0.095,-0.195
6135,-0.135,-0.035
6136,-0.085,0.025
6137,0.225,-0.255
6138,0.835,-0.475
6139,1.185,-0.895
6140,0.235,-1.055
6141,-0.435,-0.635
6142,-0.435,-0.215
6143,-0.225,-0.185
6144,-0.115,-0.135
6145,-0.145,-0.175
6146,-0.145,-0.165
6147,-0.105,-0.135
6148,-0.105,-0.125
6149,-0.105,-0.135
6150,-0.115,-0.155
6151,-0.095,-0.105
6152,-0.095,-0.095
6153,-0.095,-0.095
6154,-0.085,-0.105
6155,-0.095,-0.105
6156,-0.075,-0.065
6157,-0.055,-0.075
6158,-0.045,-0.075
6159,-0.045,-0.075
6160,-0.025,-0.055
6161,-0.005,-0.045
6162,-0.005,-0.055
6163,-0.005,-0.065
6164,0.025,-0.035
6165,0.045,-0.025
6166,0.065,-0.035
6167,0.085,-0.015
6168,0.115,-0.015
6169,0.125,-0.015
6170,0.145,-0.015
6171,0.165,-0.015
6172,0.175,0.005
6173,0.205,0.015
6174,0.205,-0.005
6175,0.235,0.005
6176,0.235,0.015
6177,0.195,0.015
6178,0.155,0.015
6179,0.075,-0.005
6180,0.075,-0.005
6181,0.025,-0.015
6182,-0.025,-0.055
6183,-0.075,-0.075
6184,-0.095,-0.065
6185,-0.125,-0.085
6186,-0.125,-0.085
6187,-0.165,-0.085
6188,-0.125,-0.085
6189,-0.135,-0.085
6190,-0.135,-0.095
6191,-0.125,-0.065
6192,-0.125,-0.095
6193,-0.115,-0.075
6194,-0.115,-0.095
6195,-0.095,-0.085
6196,-0.105,-0.085
6197,-0.095,-0.065
6198,-0.105,-0.095
6199,-0.115,-0.075
6200,-0.085,-0.085
6201,-0.085,-0.095
6202,-0.105,-0.105
6203,-0.105,-0.095
6204,-0.125,-0.095
6205,-0.115,-0.085
6206,-0.125,-0.095
6207,-0.115,-0.105
6208,-0.105,-0.085
6209,-0.145,-0.095
6210,-0.125,-0.085
6211,-0.125,-0.105
6212,-0.145,-0.105
6213,-0.125,-0.095
6214,-0.115,-0.085
6215,-0.135,-0.095
6216,-0.125,-0.095
6217,-0.125,-0.085
6218,-0.115,-0.095
6219,-0.135,-0.085
6220,-0.125,-0.085
6221,-0.105,-0.075
6222,-0.125,-0.095
6223,-0.115,-0.085
6224,-0.085,-0.075
6225,-0.105,-0.065
6226,-0.115,-0.085
6227,-0.105,-0.065
6228,-0.105,-0.075
6229,-0.115,-0.075
6230,-0.105,-0.075
6231,-0.085,-0.065
6232,-0.075,-0.055
6233,-0.095,-0.075
6234,-0.095,-0.075
6235,-0.095,-0.055
6236,-0.095,-0.065
6237,-0.085,-0.055
6238,-0.095,-0.065
6239,-0.095,-0.055
6240,-0.075,-0.055
6241,-0.085,-0.035
6242,-0.075,-0.035
6243,-0.035,-0.005
6244,-0.015,0.045
6245,-0.015,0.065
6246,0.055,0.085
6247,0.095,0.085
6248,0.085,-0.005
6249,0.055,-0.035
6250,0.025,-0.065
6251,-0.065,-0.085
6252,-0.105,-0.075
6253,-0.125,-0.095
6254,-0.115,-0.105
6255,-0.105,-0.105
6256,-0.055,-0.075
6257,-0.065,0.105
6258,-0.055,0.125
6259,0.315,-0.245
6260,0.945,-0.575
6261,1.375,-0.975
6262,0.385,-1.075
6263,-0.435,-0.545
6264,-0.435,-0.065
6265,-0.165,-0.015
6266,-0.085,-0.035
6267,-0.105,-0.025
6268,-0.085,-0.015
6269,-0.085,-0.015
6270,-0.085,-0.025
6271,-0.125,-0.005
6272,-0.085,0.005
6273,-0.065,0.005
6274,-0.085,-0.005
6275,-0.085,0.015
6276,-0.065,0.025
6277,-0.055,0.015
6278,-0.045,0.045
6279,-0.035,0.035
6280,-0.015,0.045
6281,-0.025,0.055
6282,-0.015,0.055
6283,-0.005,0.065
6284,0.005,0.085
6285,0.025,0.075
6286,0.035,0.075
6287,0.095,0.085
6288,0.105,0.105
6289,0.115,0.105
6290,0.125,0.115
6291,0.155,0.125
6292,0.155,0.125
6293,0.225,0.125
6294,0.235,0.135
6295,0.265,0.135
6296,0.225,0.125
6297,0.265,0.125
6298,0.265,0.115
6299,0.225,0.105
6300,0.175,0.085
6301,0.135,0.065
6302,0.075,0.045
6303,-0.005,0.045
6304,-0.035,0.025
6305,-0.085,-0.005
6306,-0.125,-0.005
6307,-0.135,-0.025
6308,-0.105,-0.025
6309,-0.125,-0.035
6310,-0.175,-0.045
6311,-0.135,-0.035
6312,-0.135,-0.015
6313,-0.125,-0.045
6314,-0.105,-0.025
6315,-0.135,-0.025
6316,-0.115,-0.015
6317,-0.095,-0.015
6318,-0.145,-0.045
6319,-0.085,-0.035
6320,-0.105,-0.015
6321,-0.105,-0.025
6322,-0.115,-0.035
6323,-0.115,-0.045
6324,-0.095,-0.015
6325,-0.105,-0.025
6326,-0.135,-0.045
6327,-0.125,-0.045
6328,-0.125,-0.035
6329,-0.145,-0.055
6330,-0.135,-0.065
6331,-0.125,-0.045
6332,-0.135,-0.035
6333,-0.145,-0.065
6334,-0.165,-0.055
6335,-0.125,-0.045
6336,-0.125,-0.055
6337,-0.155,-0.055
6338,-0.145,-0.065
6339,-0.145,-0.045
6340,-0.145,-0.045
6341,-0.145,-0.065
6342,-0.155,-0.065
6343,-0.155,-0.055
6344,-0.155,-0.045
6345,-0.145,-0.055
6346,-0.165,-0.075
6347,-0.155,-0.065
6348,-0.155,-0.035
6349,-0.155,-0.055
6350,-0.165,-0.065
6351,-0.175,-0.065
6352,-0.165,-0.045
6353,-0.155,-0.055
6354,-0.175,-0.065
6355,-0.175,-0.065
6356,-0.155,-0.055
6357,-0.175,-0.065
6358,-0.155,-0.075
6359,-0.155,-0.075
6360,-0.175,-0.095
6361,-0.155,-0.075
6362,-0.155,-0.075
6363,-0.165,-0.075
6364,-0.165,-0.085
6365,-0.155,-0.085
6366,-0.165,-0.085
6367,-0.135,-0.075
6368,-0.105,-0.035
6369,-0.075,0.005
6370,-0.065,0.025
6371,-0.025,0.045
6372,0.025,0.065
6373,0.005,-0.055
6374,-0.005,-0.085
6375,-0.025,-0.095
6376,-0.105,-0.125
6377,-0.145,-0.115
6378,-0.165,-0.155
6379,-0.175,-0.145
6380,-0.165,-0.135
6381,-0.145,-0.145
6382,-0.135,-0.055
6383,-0.105,0.125
6384,0.035,-0.095
6385,0.675,-0.425
6386,1.325,-0.875
6387,0.555,-1.075
6388,-0.435,-0.745
6389,-0.565,-0.215
6390,-0.345,-0.115
6391,-0.135,-0.095
6392,-0.135,-0.095
6393,-0.155,-0.095
6394,-0.155,-0.105
6395,-0.165,-0.095
6396,-0.135,-0.075
6397,-0.155,-0.075
6398,-0.155,-0.065
6399,-0.125,-0.055
6400,-0.115,-0.055
6401,-0.125,-0.035
6402,-0.115,-0.065
6403,-0.105,-0.025
6404,-0.095,-0.025
6405,-0.075,-0.025
6406,-0.075,-0.025
6407,-0.055,-0.005
6408,-0.055,-0.005
6409,-0.035,-0.015
6410,-0.015,-0.005
6411,-0.005,-0.005
6412,0.045,0.025
6413,0.045,0.005
6414,0.055,0.015
6415,0.075,0.025
6416,0.135,0.065
6417,0.135,0.055
6418,0.155,0.035
6419,0.175,0.055
6420,0.195,0.055
6421,0.215,0.075
6422,0.205,0.055
6423,0.235,0.085
6424,0.205,0.035
6425,0.155,0.035
6426,0.095,-0.015
6427,0.055,-0.005
6428,0.005,-0.025
6429,-0.055,-0.025
6430,-0.115,-0.065
6431,-0.125,-0.075
6432,-0.115,-0.065
6433,-0.145,-0.075
6434,-0.155,-0.095
6435,-0.155,-0.085
6436,-0.145,-0.085
6437,-0.145,-0.095
6438,-0.185,-0.085
6439,-0.145,-0.115
6440,-0.115,-0.065
6441,-0.145,-0.085
6442,-0.115,-0.105
6443,-0.125,-0.105
6444,-0.135,-0.085
6445,-0.115,-0.075
6446,-0.145,-0.115
6447,-0.115,-0.095
6448,-0.115,-0.095
6449,-0.125,-0.095
6450,-0.125,-0.115
6451,-0.135,-0.105
6452,-0.125,-0.095
6453,-0.155,-0.115
6454,-0.155,-0.125
6455,-0.125,-0.115
6456,-0.135,-0.115
6457,-0.155,-0.115
6458,-0.155,-0.125
6459,-0.155,-0.125
6460,-0.135,-0.115
6461,-0.145,-0.115
6462,-0.165,-0.145
6463,-0.135,-0.125
6464,-0.145,-0.125
6465,-0.135,-0.125
6466,-0.155,-0.115
6467,-0.145,-0.135
6468,-0.145,-0.125
6469,-0.155,-0.125
6470,-0.145,-0.125
6471,-0.135,-0.125
6472,-0.135,-0.115
6473,-0.155,-0.135
6474,-0.155,-0.145
6475,-0.145,-0.115
6476,-0.135,-0.125
6477,-0.145,-0.125
6478,-0.135,-0.125
6479,-0.135,-0.125
6480,-0.135,-0.125
6481,-0.165,-0.115
6482,-0.145,-0.135
6483,-0.135,-0.135
6484,-0.125,-0.105
6485,-0.145,-0.115
6486,-0.125,-0.125
6487,-0.125,-0.115
6488,-0.125,-0.125
6489,-0.125,-0.105
6490,-0.135,-0.105
6491,-0.145,-0.115
6492,-0.085,-0.095
6493,-0.045,-0.035
6494,-0.045,-0.005
6495,-0.015,0.005
6496,0.045,0.035
6497,0.065,0.005
6498,0.035,-0.075
6499,0.025,-0.085
6500,-0.015,-0.105
6501,-0.075,-0.135
6502,-0.125,-0.145
6503,-0.145,-0.145
6504,-0.135,-0.125
6505,-0.125,-0.145
6506,-0.105,-0.155
6507,-0.115,-0.005
6508,-0.085,0.105
6509,0.245,-0.195
6510,0.965,-0.545
6511,1.515,-0.965
6512,0.375,-1.105
6513,-0.535,-0.665
6514,-0.485,-0.145
6515,-0.235,-0.085
6516,-0.105,-0.085
6517,-0.105,-0.075
6518,-0.115,-0.105
6519,-0.125,-0.095
6520,-0.105,-0.075
6521,-0.125,-0.065
6522,-0.095,-0.075
6523,-0.115,-0.065
6524,-0.075,-0.055
6525,-0.085,-0.045
6526,-0.085,-0.045
6527,-0.065,-0.025
6528,-0.065,-0.015
6529,-0.055,-0.025
6530,-0.045,-0.025
6531,-0.035,-0.025
6532,-0.025,0.005
6533,-0.005,0.005
6534,0.025,0.005
6535,0.055,0.025
6536,0.045,0.015
6537,0.065,0.035
6538,0.075,0.025
6539,0.105,0.055
6540,0.135,0.065
6541,0.155,0.075
6542,0.185,0.055
6543,0.225,0.085
6544,0.255,0.095
6545,0.225,0.095
6546,0.255,0.075
