'sample interval','ECG1','ECG2'
'0.0078125 sec','mV','mV'
0,-0.035,-0.115
1,-0.015,-0.135
2,-0.045,-0.125
3,-0.025,-0.105
4,-0.035,-0.115
5,-0.035,-0.125
6,-0.015,-0.115
7,-0.015,-0.105
8,-0.045,-0.115
9,-0.015,-0.105
10,-0.015,-0.105
11,-0.015,-0.065
12,-0.005,-0.075
13,0.025,-0.085
14,0.025,-0.095
15,0.055,-0.085
16,0.045,-0.085
17,0.045,-0.095
18,0.035,-0.105
19,0.015,-0.105
20,0.015,-0.095
21,-0.035,-0.125
22,-0.045,-0.135
23,-0.035,-0.125
24,-0.065,-0.135
25,-0.055,-0.145
26,-0.065,-0.135
27,-0.075,-0.125
28,-0.055,-0.135
29,-0.045,-0.125
30,-0.075,-0.125
31,-0.035,-0.105
32,-0.035,-0.105
33,-0.025,-0.105
34,0.005,-0.085
35,0.025,0.005
36,0.235,0.245
37,0.875,0.385
38,1.415,0.135
39,0.855,-0.255
40,-0.215,-0.815
41,-0.465,-0.445
42,-0.165,-0.055
43,-0.095,-0.005
44,-0.095,-0.045
45,-0.115,-0.065
46,-0.115,-0.075
47,-0.105,-0.065
48,-0.095,-0.065
49,-0.105,-0.065
50,-0.105,-0.065
51,-0.095,-0.045
52,-0.095,-0.045
53,-0.105,-0.055
54,-0.105,-0.055
55,-0.115,-0.035
56,-0.105,-0.035
57,-0.125,-0.045
58,-0.115,-0.035
59,-0.105,-0.025
60,-0.075,-0.025
61,-0.105,-0.025
62,-0.105,-0.015
63,-0.115,-0.005
64,-0.135,-0.015
65,-0.135,-0.015
66,-0.155,-0.025
67,-0.135,-0.025
68,-0.155,-0.035
69,-0.105,-0.045
70,-0.155,-0.065
71,-0.115,-0.055
72,-0.105,-0.065
73,-0.095,-0.065
74,-0.065,-0.065
75,-0.045,-0.055
76,-0.025,-0.055
77,-0.055,-0.075
78,-0.025,-0.085
79,-0.045,-0.065
80,-0.075,-0.085
81,-0.065,-0.095
82,-0.065,-0.085
83,-0.055,-0.075
84,-0.065,-0.085
85,-0.075,-0.095
86,-0.065,-0.085
87,-0.075,-0.075
88,-0.055,-0.075
89,-0.045,-0.075
90,-0.055,-0.075
91,-0.055,-0.055
92,-0.055,-0.065
93,-0.055,-0.065
94,-0.025,-0.065
95,-0.035,-0.055
96,-0.045,-0.065
97,-0.035,-0.065
98,-0.035,-0.065
99,-0.025,-0.065
100,0.005,-0.065
101,-0.055,-0.075
102,-0.055,-0.075
103,-0.015,-0.065
104,-0.005,-0.065
105,-0.055,-0.075
106,-0.045,-0.075
107,-0.055,-0.065
108,-0.025,-0.065
109,-0.035,-0.085
110,-0.045,-0.085
111,-0.045,-0.075
112,-0.015,-0.065
113,-0.045,-0.085
114,-0.035,-0.085
115,-0.015,-0.075
116,-0.005,-0.065
117,-0.045,-0.075
118,-0.035,-0.075
119,-0.015,-0.065
120,-0.015,-0.065
121,-0.015,-0.075
122,-0.025,-0.065
123,-0.025,-0.055
124,0.005,-0.055
125,0.025,-0.035
126,0.005,-0.035
127,0.045,-0.015
128,0.065,-0.035
129,0.055,-0.055
130,0.075,-0.045
131,0.065,-0.035
132,0.055,-0.055
133,0.015,-0.085
134,0.035,-0.065
135,0.015,-0.075
136,-0.045,-0.095
137,-0.045,-0.105
138,-0.065,-0.105
139,-0.065,-0.095
140,-0.045,-0.095
141,-0.065,-0.105
142,-0.035,-0.095
143,-0.015,-0.075
144,-0.045,-0.085
145,-0.045,-0.085
146,-0.005,-0.075
147,-0.015,-0.055
148,0.015,-0.035
149,0.035,0.035
150,0.215,0.265
151,0.845,0.385
152,1.395,0.205
153,1.155,-0.175
154,0.205,-0.645
155,-0.525,-0.635
156,-0.265,-0.125
157,-0.065,0.025
158,-0.055,-0.015
159,-0.065,-0.025
160,-0.095,-0.025
161,-0.115,-0.035
162,-0.075,-0.025
163,-0.115,-0.015
164,-0.095,-0.025
165,-0.105,-0.035
166,-0.095,-0.035
167,-0.095,-0.005
168,-0.105,-0.015
169,-0.105,-0.005
170,-0.095,-0.005
171,-0.125,-0.005
172,-0.105,0.005
173,-0.105,0.005
174,-0.125,0.005
175,-0.085,0.015
176,-0.105,0.015
177,-0.105,0.005
178,-0.105,0.015
179,-0.125,0.015
180,-0.115,0.015
181,-0.155,0.005
182,-0.135,-0.015
183,-0.115,-0.005
184,-0.135,-0.025
185,-0.105,-0.035
186,-0.125,-0.035
187,-0.085,-0.025
188,-0.075,-0.035
189,-0.025,-0.035
190,-0.045,-0.045
191,-0.025,-0.045
192,-0.025,-0.055
193,-0.045,-0.085
194,-0.055,-0.075
195,-0.045,-0.065
196,-0.065,-0.065
197,-0.085,-0.085
198,-0.065,-0.075
199,-0.065,-0.065
200,-0.055,-0.065
201,-0.085,-0.085
202,-0.065,-0.085
203,-0.075,-0.075
204,-0.065,-0.075
205,-0.055,-0.075
206,-0.055,-0.065
207,-0.045,-0.065
208,-0.065,-0.055
209,-0.085,-0.075
210,-0.055,-0.065
211,-0.055,-0.065
212,-0.045,-0.065
213,-0.065,-0.075
214,-0.045,-0.075
215,-0.045,-0.075
216,-0.035,-0.075
217,-0.035,-0.095
218,-0.045,-0.085
219,-0.035,-0.065
220,-0.045,-0.075
221,-0.055,-0.095
222,-0.065,-0.095
223,-0.065,-0.085
224,-0.055,-0.095
225,-0.055,-0.105
226,-0.075,-0.095
227,-0.045,-0.075
228,-0.055,-0.085
229,-0.045,-0.105
230,-0.055,-0.105
231,-0.065,-0.085
232,-0.055,-0.095
233,-0.065,-0.105
234,-0.015,-0.095
235,-0.075,-0.085
236,-0.075,-0.085
237,-0.055,-0.095
238,-0.035,-0.085
239,-0.045,-0.065
240,0.005,-0.045
241,-0.005,-0.055
242,0.005,-0.055
243,-0.005,-0.045
244,0.035,-0.065
245,0.025,-0.075
246,0.025,-0.075
247,0.015,-0.085
248,-0.005,-0.085
249,-0.025,-0.085
250,-0.035,-0.105
251,-0.075,-0.105
252,-0.075,-0.115
253,-0.095,-0.125
254,-0.075,-0.115
255,-0.085,-0.105
256,-0.085,-0.115
257,-0.085,-0.115
258,-0.075,-0.105
259,-0.075,-0.095
260,-0.065,-0.095
261,-0.035,-0.085
262,-0.055,-0.085
263,-0.005,-0.045
264,0.045,0.115
265,0.325,0.285
266,0.985,0.355
267,1.295,-0.065
268,0.515,-0.465
269,-0.325,-0.855
270,-0.455,-0.435
271,-0.175,-0.035
272,-0.085,-0.005
273,-0.115,-0.035
274,-0.105,-0.045
275,-0.115,-0.055
276,-0.135,-0.045
277,-0.135,-0.055
278,-0.135,-0.055
279,-0.125,-0.045
280,-0.115,-0.045
281,-0.125,-0.045
282,-0.115,-0.045
283,-0.135,-0.045
284,-0.145,-0.045
285,-0.135,-0.045
286,-0.135,-0.045
287,-0.125,-0.025
288,-0.145,-0.025
289,-0.125,-0.035
290,-0.115,-0.025
291,-0.135,-0.005
292,-0.145,-0.025
293,-0.155,-0.025
294,-0.165,-0.025
295,-0.135,-0.035
296,-0.155,-0.045
297,-0.185,-0.055
298,-0.175,-0.055
299,-0.175,-0.065
300,-0.155,-0.065
301,-0.165,-0.085
302,-0.125,-0.085
303,-0.115,-0.075
304,-0.065,-0.065
305,-0.085,-0.075
306,-0.085,-0.095
307,-0.065,-0.085
308,-0.075,-0.085
309,-0.095,-0.105
310,-0.105,-0.115
311,-0.075,-0.105
312,-0.115,-0.105
313,-0.105,-0.115
314,-0.095,-0.115
315,-0.105,-0.095
316,-0.115,-0.095
317,-0.095,-0.105
318,-0.095,-0.105
319,-0.075,-0.085
320,-0.095,-0.095
321,-0.095,-0.105
322,-0.055,-0.095
323,-0.085,-0.075
324,-0.085,-0.095
325,-0.065,-0.105
326,-0.055,-0.105
327,-0.075,-0.095
328,-0.075,-0.095
329,-0.065,-0.105
330,-0.065,-0.105
331,-0.095,-0.095
332,-0.075,-0.105
333,-0.085,-0.115
334,-0.045,-0.105
335,-0.055,-0.105
336,-0.065,-0.105
337,-0.105,-0.125
338,-0.075,-0.115
339,-0.065,-0.105
340,-0.075,-0.105
341,-0.075,-0.115
342,-0.065,-0.115
343,-0.065,-0.105
344,-0.065,-0.115
345,-0.065,-0.115
346,-0.085,-0.115
347,-0.055,-0.105
348,-0.045,-0.095
349,-0.055,-0.095
350,-0.035,-0.075
351,-0.005,-0.065
352,-0.015,-0.075
353,-0.005,-0.085
354,0.015,-0.095
355,0.005,-0.075
356,0.005,-0.085
357,0.005,-0.115
358,-0.025,-0.125
359,-0.025,-0.105
360,-0.045,-0.125
361,-0.075,-0.145
362,-0.095,-0.155
363,-0.105,-0.135
364,-0.105,-0.135
365,-0.075,-0.145
366,-0.095,-0.145
367,-0.075,-0.125
368,-0.105,-0.135
369,-0.075,-0.135
370,-0.055,-0.125
371,-0.055,-0.105
372,-0.065,-0.105
373,-0.025,-0.095
374,0.045,0.055
375,0.305,0.285
376,1.075,0.405
377,1.415,0.045
378,0.695,-0.375
379,-0.305,-0.845
380,-0.515,-0.445
381,-0.225,-0.095
382,-0.095,-0.055
383,-0.075,-0.075
384,-0.105,-0.085
385,-0.135,-0.095
386,-0.115,-0.095
387,-0.125,-0.085
388,-0.125,-0.085
389,-0.135,-0.095
390,-0.115,-0.075
391,-0.115,-0.075
392,-0.105,-0.065
393,-0.125,-0.065
394,-0.105,-0.075
395,-0.135,-0.065
396,-0.095,-0.055
397,-0.115,-0.065
398,-0.145,-0.065
399,-0.125,-0.045
400,-0.135,-0.045
401,-0.105,-0.055
402,-0.145,-0.055
403,-0.135,-0.045
404,-0.135,-0.045
405,-0.145,-0.065
406,-0.155,-0.065
407,-0.145,-0.055
408,-0.165,-0.085
409,-0.165,-0.105
410,-0.145,-0.105
411,-0.145,-0.095
412,-0.105,-0.095
413,-0.075,-0.095
414,-0.055,-0.105
415,-0.035,-0.105
416,-0.055,-0.105
417,-0.055,-0.125
418,-0.065,-0.135
419,-0.065,-0.125
420,-0.075,-0.125
421,-0.065,-0.135
422,-0.055,-0.135
423,-0.085,-0.125
424,-0.105,-0.135
425,-0.095,-0.135
426,-0.065,-0.125
427,-0.085,-0.105
428,-0.085,-0.125
429,-0.075,-0.125
430,-0.045,-0.115
431,-0.075,-0.105
432,-0.075,-0.115
433,-0.015,-0.115
434,-0.065,-0.115
435,-0.085,-0.105
436,-0.045,-0.105
437,-0.035,-0.115
438,-0.065,-0.105
439,-0.045,-0.105
440,-0.045,-0.105
441,-0.035,-0.115
442,-0.035,-0.115
443,-0.055,-0.115
444,-0.055,-0.115
445,-0.045,-0.125
446,-0.045,-0.125
447,-0.035,-0.115
448,-0.075,-0.125
449,-0.055,-0.135
450,-0.035,-0.125
451,-0.065,-0.115
452,-0.055,-0.125
453,-0.065,-0.125
454,-0.055,-0.135
455,-0.045,-0.125
456,-0.085,-0.135
457,-0.045,-0.135
458,-0.055,-0.115
459,-0.055,-0.115
460,-0.035,-0.085
461,-0.015,-0.085
462,0.015,-0.085
463,0.005,-0.085
464,0.035,-0.095
465,0.025,-0.105
466,0.025,-0.105
467,0.005,-0.105
468,-0.025,-0.125
469,0.005,-0.125
470,-0.005,-0.135
471,-0.055,-0.125
472,-0.105,-0.135
473,-0.085,-0.155
474,-0.075,-0.145
475,-0.095,-0.135
476,-0.085,-0.145
477,-0.095,-0.145
478,-0.085,-0.135
479,-0.055,-0.125
480,-0.045,-0.125
481,-0.055,-0.125
482,-0.045,-0.115
483,-0.025,-0.085
484,0.025,-0.015
485,0.155,0.215
486,0.685,0.325
487,1.345,0.205
488,1.075,-0.225
489,0.055,-0.775
490,-0.515,-0.605
491,-0.245,-0.095
492,-0.075,-0.015
493,-0.085,-0.055
494,-0.105,-0.075
495,-0.105,-0.065
496,-0.115,-0.075
497,-0.115,-0.075
498,-0.125,-0.075
499,-0.125,-0.065
500,-0.095,-0.065
501,-0.115,-0.065
502,-0.105,-0.065
503,-0.085,-0.045
504,-0.105,-0.045
505,-0.125,-0.055
506,-0.105,-0.055
507,-0.115,-0.035
508,-0.105,-0.035
509,-0.115,-0.035
510,-0.125,-0.035
511,-0.085,-0.025
512,-0.125,-0.025
513,-0.155,-0.035
514,-0.105,-0.025
515,-0.135,-0.015
516,-0.165,-0.035
517,-0.145,-0.055
518,-0.125,-0.055
519,-0.135,-0.055
520,-0.135,-0.075
521,-0.125,-0.085
522,-0.085,-0.085
523,-0.075,-0.065
524,-0.035,-0.075
525,-0.035,-0.085
526,-0.055,-0.085
527,-0.055,-0.085
528,-0.035,-0.095
529,-0.065,-0.115
530,-0.065,-0.125
531,-0.065,-0.105
532,-0.075,-0.115
533,-0.065,-0.115
534,-0.085,-0.115
535,-0.065,-0.105
536,-0.075,-0.105
537,-0.075,-0.115
538,-0.075,-0.115
539,-0.065,-0.095
540,-0.045,-0.095
541,-0.055,-0.095
542,-0.055,-0.095
543,-0.045,-0.085
544,-0.065,-0.095
545,-0.035,-0.095
546,-0.025,-0.095
547,-0.045,-0.085
548,-0.045,-0.085
549,-0.025,-0.105
550,-0.045,-0.095
551,-0.025,-0.095
552,-0.025,-0.105
553,-0.025,-0.105
554,-0.025,-0.105
555,-0.035,-0.085
556,-0.035,-0.105
557,-0.035,-0.115
558,-0.025,-0.115
559,-0.035,-0.095
560,-0.055,-0.105
561,-0.025,-0.115
562,-0.045,-0.115
563,-0.035,-0.095
564,-0.025,-0.105
565,-0.045,-0.115
566,-0.055,-0.115
567,-0.025,-0.105
568,-0.005,-0.095
569,-0.025,-0.105
570,-0.035,-0.115
571,-0.045,-0.095
572,-0.035,-0.105
573,-0.035,-0.105
574,-0.025,-0.095
575,-0.025,-0.075
576,0.005,-0.055
577,0.015,-0.065
578,0.025,-0.065
579,0.015,-0.055
580,0.025,-0.075
581,0.055,-0.085
582,0.035,-0.085
583,0.025,-0.085
584,0.005,-0.105
585,0.015,-0.105
586,-0.025,-0.105
587,-0.055,-0.115
588,-0.065,-0.125
589,-0.075,-0.135
590,-0.045,-0.125
591,-0.065,-0.115
592,-0.055,-0.115
593,-0.045,-0.115
594,-0.045,-0.115
595,-0.045,-0.105
596,-0.035,-0.095
597,-0.025,-0.105
598,-0.025,-0.095
599,0.005,-0.075
600,0.015,0.015
601,0.135,0.235
602,0.595,0.325
603,1.165,0.195
604,1.005,-0.235
605,0.215,-0.705
606,-0.415,-0.665
607,-0.215,-0.125
608,-0.075,0.005
609,-0.085,-0.045
610,-0.085,-0.055
611,-0.095,-0.055
612,-0.095,-0.055
613,-0.115,-0.065
614,-0.115,-0.055
615,-0.085,-0.045
616,-0.115,-0.045
617,-0.135,-0.055
618,-0.115,-0.045
619,-0.115,-0.035
620,-0.105,-0.035
621,-0.125,-0.035
622,-0.105,-0.035
623,-0.105,-0.025
624,-0.115,-0.025
625,-0.115,-0.025
626,-0.125,-0.025
627,-0.095,-0.015
628,-0.145,-0.005
629,-0.145,-0.015
630,-0.125,-0.015
631,-0.125,-0.005
632,-0.135,-0.025
633,-0.145,-0.035
634,-0.135,-0.045
635,-0.145,-0.045
636,-0.145,-0.055
637,-0.135,-0.075
638,-0.105,-0.065
639,-0.055,-0.055
640,-0.065,-0.055
641,-0.045,-0.075
642,-0.045,-0.075
643,-0.065,-0.055
644,-0.055,-0.095
645,-0.085,-0.105
646,-0.075,-0.105
647,-0.065,-0.095
648,-0.085,-0.095
649,-0.095,-0.105
650,-0.075,-0.115
651,-0.075,-0.095
652,-0.095,-0.095
653,-0.105,-0.105
654,-0.085,-0.095
655,-0.085,-0.095
656,-0.065,-0.095
657,-0.075,-0.095
658,-0.075,-0.095
659,-0.075,-0.085
660,-0.045,-0.085
661,-0.035,-0.085
662,-0.065,-0.085
663,-0.035,-0.075
664,-0.055,-0.085
665,-0.045,-0.085
666,-0.045,-0.095
667,-0.055,-0.075
668,-0.055,-0.085
669,-0.045,-0.095
670,-0.035,-0.095
671,-0.035,-0.085
672,-0.055,-0.085
673,-0.045,-0.105
674,-0.045,-0.105
675,-0.045,-0.085
676,-0.055,-0.095
677,-0.045,-0.095
678,-0.065,-0.095
679,-0.055,-0.085
680,-0.055,-0.085
681,-0.045,-0.095
682,-0.045,-0.095
683,-0.045,-0.085
684,-0.055,-0.085
685,-0.055,-0.095
686,-0.035,-0.085
687,-0.025,-0.075
688,-0.035,-0.065
689,-0.005,-0.055
690,-0.005,-0.045
691,-0.005,-0.045
692,0.035,-0.055
693,0.025,-0.065
694,0.035,-0.065
695,0.045,-0.065
696,0.015,-0.075
697,-0.015,-0.095
698,-0.015,-0.085
699,-0.055,-0.085
700,-0.065,-0.105
701,-0.075,-0.115
702,-0.075,-0.105
703,-0.085,-0.095
704,-0.085,-0.105
705,-0.075,-0.105
706,-0.085,-0.105
707,-0.055,-0.085
708,-0.065,-0.085
709,-0.065,-0.085
710,-0.025,-0.075
711,-0.015,-0.065
712,-0.005,-0.055
713,0.055,0.055
714,0.255,0.285
715,0.905,0.405
716,1.395,0.235
717,0.985,-0.165
718,0.035,-0.665
719,-0.495,-0.645
720,-0.215,-0.125
721,-0.105,0.005
722,-0.075,-0.015
723,-0.095,-0.035
724,-0.085,-0.035
725,-0.135,-0.045
726,-0.085,-0.035
727,-0.075,-0.025
728,-0.095,-0.035
729,-0.085,-0.035
730,-0.085,-0.025
731,-0.085,-0.015
732,-0.065,-0.015
733,-0.095,-0.015
734,-0.115,-0.015
735,-0.095,-0.005
736,-0.115,-0.005
737,-0.075,-0.005
738,-0.095,-0.005
739,-0.085,0.015
740,-0.105,0.005
741,-0.125,0.005
742,-0.075,0.005
743,-0.095,0.015
744,-0.115,0.005
745,-0.125,-0.005
746,-0.125,-0.015
747,-0.125,-0.025
748,-0.125,-0.025
749,-0.125,-0.045
750,-0.085,-0.045
751,-0.065,-0.045
752,-0.065,-0.035
753,-0.035,-0.055
754,-0.035,-0.055
755,-0.035,-0.045
756,-0.025,-0.055
757,-0.035,-0.075
758,-0.035,-0.075
759,-0.055,-0.075
760,-0.045,-0.075
761,-0.075,-0.085
762,-0.055,-0.085
763,-0.055,-0.075
764,-0.075,-0.085
765,-0.055,-0.085
766,-0.095,-0.095
767,-0.065,-0.075
768,-0.055,-0.075
769,-0.045,-0.075
770,-0.065,-0.065
771,-0.045,-0.055
772,-0.045,-0.065
773,-0.055,-0.065
774,-0.025,-0.065
775,-0.015,-0.055
776,-0.015,-0.065
777,-0.045,-0.075
778,-0.035,-0.065
779,-0.045,-0.055
780,-0.045,-0.065
781,-0.045,-0.085
782,-0.035,-0.075
783,-0.055,-0.075
784,-0.055,-0.075
785,-0.035,-0.085
786,-0.055,-0.095
787,-0.045,-0.075
788,-0.025,-0.075
789,-0.055,-0.085
790,-0.065,-0.085
791,-0.055,-0.075
792,-0.035,-0.075
793,-0.045,-0.095
794,-0.055,-0.095
795,-0.035,-0.075
796,-0.045,-0.085
797,-0.055,-0.085
798,-0.055,-0.095
799,-0.045,-0.075
800,-0.035,-0.075
801,-0.035,-0.085
802,-0.045,-0.095
803,-0.025,-0.075
804,-0.065,-0.085
805,-0.045,-0.085
806,-0.045,-0.085
807,0.005,-0.055
808,0.025,-0.035
809,0.005,-0.055
810,0.045,-0.055
811,0.025,-0.065
812,0.065,-0.065
813,0.015,-0.075
814,0.075,-0.075
815,-0.015,-0.085
816,-0.005,-0.085
817,-0.025,-0.105
818,-0.035,-0.105
819,-0.065,-0.105
820,-0.075,-0.125
821,-0.085,-0.135
822,-0.075,-0.125
823,-0.055,-0.105
824,-0.075,-0.105
825,-0.065,-0.115
826,-0.035,-0.105
827,-0.045,-0.085
828,-0.045,-0.085
829,-0.005,-0.075
830,0.015,-0.055
831,0.075,0.095
832,0.385,0.275
833,1.035,0.325
834,1.345,-0.005
835,0.625,-0.385
836,-0.355,-0.805
837,-0.415,-0.465
838,-0.145,-0.065
839,-0.065,0.015
840,-0.075,-0.035
841,-0.085,-0.055
842,-0.115,-0.055
843,-0.085,-0.035
844,-0.125,-0.045
845,-0.095,-0.065
846,-0.105,-0.055
847,-0.115,-0.035
848,-0.115,-0.045
849,-0.105,-0.045
850,-0.115,-0.045
851,-0.115,-0.035
852,-0.105,-0.035
853,-0.105,-0.035
854,-0.085,-0.025
855,-0.105,-0.015
856,-0.105,-0.015
857,-0.125,-0.025
858,-0.125,-0.025
859,-0.105,-0.015
860,-0.115,-0.015
861,-0.115,-0.025
862,-0.115,-0.025
863,-0.145,-0.025
864,-0.125,-0.035
865,-0.135,-0.055
866,-0.155,-0.065
867,-0.125,-0.065
868,-0.115,-0.075
869,-0.065,-0.075
870,-0.075,-0.075
871,-0.045,-0.075
872,-0.045,-0.075
873,0.005,-0.075
874,-0.035,-0.095
875,-0.065,-0.095
876,-0.045,-0.095
877,-0.075,-0.115
878,-0.055,-0.105
879,-0.055,-0.105
880,-0.065,-0.105
881,-0.065,-0.115
882,-0.055,-0.105
883,-0.055,-0.105
884,-0.065,-0.095
885,-0.075,-0.105
886,-0.065,-0.105
887,-0.035,-0.095
888,-0.075,-0.095
889,-0.055,-0.105
890,-0.025,-0.085
891,-0.035,-0.085
892,-0.045,-0.085
893,-0.055,-0.095
894,-0.055,-0.095
895,-0.015,-0.085
896,-0.025,-0.095
897,-0.045,-0.105
898,-0.015,-0.105
899,-0.045,-0.085
900,-0.025,-0.105
901,-0.035,-0.105
902,-0.055,-0.105
903,-0.025,-0.095
904,-0.025,-0.095
905,-0.055,-0.115
906,-0.045,-0.115
907,-0.035,-0.095
908,-0.025,-0.105
909,-0.045,-0.125
910,-0.015,-0.115
911,-0.045,-0.105
912,-0.055,-0.105
913,-0.045,-0.115
914,-0.035,-0.115
915,-0.025,-0.105
916,-0.045,-0.115
917,-0.055,-0.115
918,-0.045,-0.115
919,-0.035,-0.105
920,-0.025,-0.105
921,-0.055,-0.115
922,-0.045,-0.105
923,-0.035,-0.085
924,-0.005,-0.065
925,0.035,-0.075
926,0.015,-0.075
927,0.035,-0.075
928,0.055,-0.085
929,0.025,-0.095
930,0.005,-0.095
931,0.025,-0.095
932,0.005,-0.105
933,0.005,-0.115
934,-0.015,-0.125
935,-0.035,-0.125
936,-0.045,-0.135
937,-0.065,-0.135
938,-0.085,-0.125
939,-0.075,-0.125
940,-0.085,-0.125
941,-0.035,-0.115
942,-0.035,-0.115
943,-0.055,-0.105
944,-0.025,-0.105
945,-0.015,-0.095
946,-0.015,-0.075
947,0.065,-0.005
948,0.135,0.185
949,0.665,0.315
950,1.325,0.255
951,1.105,-0.115
952,0.235,-0.555
953,-0.445,-0.685
954,-0.285,-0.235
955,-0.055,-0.025
956,-0.055,-0.035
957,-0.065,-0.055
958,-0.065,-0.065
959,-0.105,-0.055
960,-0.075,-0.055
961,-0.085,-0.055
962,-0.075,-0.055
963,-0.055,-0.045
964,-0.095,-0.055
965,-0.075,-0.045
966,-0.075,-0.035
967,-0.075,-0.025
968,-0.085,-0.035
969,-0.055,-0.035
970,-0.085,-0.025
971,-0.065,-0.015
972,-0.095,-0.025
973,-0.085,-0.025
974,-0.115,-0.015
975,-0.105,-0.005
976,-0.105,-0.005
977,-0.085,-0.015
978,-0.105,-0.015
979,-0.115,-0.005
980,-0.115,-0.025
981,-0.135,-0.045
982,-0.105,-0.055
983,-0.115,-0.055
984,-0.105,-0.055
985,-0.075,-0.065
986,-0.085,-0.065
987,-0.055,-0.045
988,-0.035,-0.055
989,-0.015,-0.065
990,-0.025,-0.075
991,-0.035,-0.075
992,-0.055,-0.085
993,-0.035,-0.085
994,-0.065,-0.085
995,-0.025,-0.085
996,-0.075,-0.095
997,-0.055,-0.095
998,-0.045,-0.095
999,-0.055,-0.085
1000,-0.065,-0.085
1001,-0.055,-0.095
1002,-0.065,-0.085
1003,-0.045,-0.075
1004,-0.055,-0.075
1005,-0.055,-0.085
1006,-0.035,-0.065
1007,-0.025,-0.065
1008,-0.025,-0.065
1009,-0.035,-0.085
1010,-0.025,-0.075
1011,-0.025,-0.065
1012,-0.025,-0.075
1013,-0.025,-0.085
1014,-0.015,-0.075
1015,-0.035,-0.075
1016,-0.035,-0.075
1017,-0.025,-0.085
1018,-0.035,-0.095
1019,-0.025,-0.075
1020,-0.015,-0.075
1021,-0.045,-0.085
1022,-0.035,-0.095
1023,-0.005,-0.085
1024,-0.045,-0.085
1025,-0.045,-0.085
1026,-0.055,-0.095
1027,-0.035,-0.075
1028,-0.045,-0.085
1029,-0.055,-0.095
1030,-0.025,-0.085
1031,-0.005,-0.085
1032,-0.035,-0.085
1033,-0.045,-0.095
1034,-0.045,-0.085
1035,-0.045,-0.075
1036,-0.015,-0.075
1037,-0.045,-0.075
1038,0.025,-0.055
1039,0.035,-0.035
1040,0.015,-0.045
1041,0.015,-0.055
1042,0.055,-0.075
1043,0.045,-0.055
1044,0.035,-0.065
1045,0.015,-0.085
1046,0.015,-0.095
1047,0.045,-0.085
1048,-0.035,-0.095
1049,-0.055,-0.115
1050,-0.065,-0.115
1051,-0.075,-0.115
1052,-0.075,-0.115
1053,-0.095,-0.115
1054,-0.055,-0.115
1055,-0.055,-0.105
1056,-0.055,-0.105
1057,-0.065,-0.105
1058,-0.045,-0.095
1059,-0.035,-0.075
1060,-0.035,-0.075
1061,0.005,-0.055
1062,0.085,0.105
1063,0.445,0.305
1064,1.135,0.365
1065,1.305,-0.115
1066,0.465,-0.505
1067,-0.425,-0.805
1068,-0.365,-0.315
1069,-0.135,-0.015
1070,-0.065,-0.005
1071,-0.085,-0.035
1072,-0.095,-0.045
1073,-0.095,-0.055
1074,-0.115,-0.035
1075,-0.115,-0.035
1076,-0.095,-0.035
1077,-0.095,-0.035
1078,-0.075,-0.035
1079,-0.105,-0.015
1080,-0.085,-0.035
1081,-0.095,-0.035
1082,-0.105,-0.025
1083,-0.085,-0.015
1084,-0.085,-0.015
1085,-0.105,-0.015
1086,-0.095,-0.015
1087,-0.085,0.005
1088,-0.105,0.005
1089,-0.105,-0.005
1090,-0.115,-0.005
1091,-0.105,0.005
1092,-0.135,-0.015
1093,-0.095,-0.025
1094,-0.115,-0.025
1095,-0.125,-0.025
1096,-0.145,-0.045
1097,-0.135,-0.065
1098,-0.125,-0.055
1099,-0.095,-0.055
1100,-0.065,-0.055
1101,-0.055,-0.055
1102,-0.005,-0.055
1103,-0.025,-0.045
1104,-0.035,-0.055
1105,-0.035,-0.075
1106,-0.065,-0.085
1107,-0.065,-0.075
1108,-0.075,-0.085
1109,-0.055,-0.085
1110,-0.045,-0.085
1111,-0.085,-0.085
1112,-0.065,-0.085
1113,-0.075,-0.095
1114,-0.055,-0.085
1115,-0.085,-0.075
1116,-0.085,-0.085
1117,-0.065,-0.075
1118,-0.065,-0.075
1119,-0.035,-0.075
1120,-0.065,-0.075
1121,-0.065,-0.075
1122,-0.045,-0.075
1123,-0.045,-0.065
1124,-0.035,-0.065
1125,-0.035,-0.075
1126,-0.035,-0.075
1127,-0.025,-0.055
1128,-0.025,-0.065
1129,-0.055,-0.075
1130,-0.035,-0.075
1131,-0.055,-0.065
1132,-0.035,-0.075
1133,-0.035,-0.085
1134,-0.035,-0.085
1135,-0.035,-0.085
1136,-0.045,-0.085
1137,-0.055,-0.095
1138,-0.055,-0.095
1139,-0.035,-0.085
1140,-0.035,-0.085
1141,-0.055,-0.095
1142,-0.065,-0.095
1143,-0.035,-0.085
1144,-0.035,-0.085
1145,-0.055,-0.095
1146,-0.045,-0.085
1147,-0.025,-0.065
1148,-0.045,-0.075
1149,-0.035,-0.085
1150,-0.035,-0.085
1151,0.005,-0.035
1152,-0.015,-0.045
1153,0.015,-0.055
1154,0.025,-0.055
1155,0.055,-0.045
1156,0.045,-0.055
1157,0.035,-0.065
1158,0.025,-0.085
1159,0.005,-0.075
1160,-0.005,-0.085
1161,-0.015,-0.095
1162,-0.065,-0.105
1163,-0.085,-0.105
1164,-0.095,-0.105
1165,-0.065,-0.105
1166,-0.075,-0.105
1167,-0.085,-0.095
1168,-0.065,-0.095
1169,-0.065,-0.095
1170,-0.065,-0.085
1171,-0.035,-0.065
1172,-0.025,-0.065
1173,-0.045,-0.065
1174,0.025,-0.005
1175,0.105,0.175
1176,0.575,0.365
1177,1.285,0.405
1178,1.245,-0.035
1179,0.425,-0.435
1180,-0.485,-0.775
1181,-0.345,-0.285
1182,-0.105,0.005
1183,-0.085,0.005
1184,-0.095,-0.025
1185,-0.105,-0.045
1186,-0.115,-0.045
1187,-0.085,-0.025
1188,-0.125,-0.035
1189,-0.095,-0.035
1190,-0.105,-0.035
1191,-0.085,-0.025
1192,-0.115,-0.025
1193,-0.105,-0.025
1194,-0.105,-0.015
1195,-0.105,-0.015
1196,-0.115,-0.005
1197,-0.115,-0.015
1198,-0.095,-0.005
1199,-0.105,-0.005
1200,-0.105,0.005
1201,-0.135,-0.005
1202,-0.125,-0.005
1203,-0.105,0.015
1204,-0.135,0.005
1205,-0.155,-0.005
1206,-0.105,-0.005
1207,-0.165,-0.005
1208,-0.155,-0.015
1209,-0.135,-0.035
1210,-0.155,-0.045
1211,-0.155,-0.035
1212,-0.135,-0.045
1213,-0.115,-0.055
1214,-0.065,-0.045
1215,-0.035,-0.045
1216,-0.055,-0.055
1217,-0.055,-0.055
1218,-0.035,-0.065
1219,-0.055,-0.065
1220,-0.065,-0.065
1221,-0.065,-0.085
1222,-0.085,-0.085
1223,-0.055,-0.075
1224,-0.075,-0.075
1225,-0.095,-0.095
1226,-0.075,-0.085
1227,-0.095,-0.075
1228,-0.035,-0.065
1229,-0.075,-0.085
1230,-0.065,-0.085
1231,-0.055,-0.065
1232,-0.055,-0.065
1233,-0.055,-0.065
1234,-0.035,-0.075
1235,-0.045,-0.065
1236,-0.045,-0.065
1237,-0.025,-0.065
1238,-0.055,-0.075
1239,-0.035,-0.065
1240,-0.025,-0.055
1241,-0.035,-0.075
1242,-0.035,-0.075
1243,-0.035,-0.065
1244,-0.025,-0.065
1245,-0.045,-0.075
1246,-0.065,-0.075
1247,-0.055,-0.065
1248,-0.035,-0.075
1249,-0.065,-0.085
1250,-0.025,-0.085
1251,-0.065,-0.065
1252,-0.045,-0.075
1253,-0.065,-0.095
1254,-0.055,-0.095
1255,-0.055,-0.085
1256,-0.035,-0.075
1257,-0.065,-0.095
1258,-0.045,-0.095
1259,-0.075,-0.095
1260,-0.045,-0.085
1261,-0.075,-0.095
1262,-0.045,-0.085
1263,-0.035,-0.085
1264,-0.045,-0.085
1265,-0.065,-0.075
1266,-0.015,-0.065
1267,0.005,-0.035
1268,-0.005,-0.045
1269,0.015,-0.055
1270,0.015,-0.065
1271,0.035,-0.055
1272,0.045,-0.065
1273,0.015,-0.075
1274,0.005,-0.095
1275,-0.005,-0.085
1276,-0.035,-0.095
1277,-0.085,-0.105
1278,-0.085,-0.115
1279,-0.095,-0.115
1280,-0.105,-0.105
1281,-0.105,-0.115
1282,-0.065,-0.115
1283,-0.095,-0.095
1284,-0.105,-0.105
1285,-0.085,-0.115
1286,-0.075,-0.105
1287,-0.075,-0.085
1288,-0.035,-0.075
1289,-0.065,-0.085
1290,-0.005,-0.035
1291,0.095,0.195
1292,0.535,0.325
1293,1.185,0.315
1294,1.185,-0.195
1295,0.295,-0.625
1296,-0.475,-0.775
1297,-0.325,-0.225
1298,-0.115,-0.005
1299,-0.095,-0.015
1300,-0.115,-0.045
1301,-0.125,-0.055
1302,-0.115,-0.055
1303,-0.135,-0.055
1304,-0.115,-0.055
1305,-0.135,-0.065
1306,-0.125,-0.065
1307,-0.115,-0.045
1308,-0.135,-0.045
1309,-0.135,-0.055
1310,-0.145,-0.055
1311,-0.115,-0.045
1312,-0.125,-0.045
1313,-0.135,-0.045
1314,-0.135,-0.035
1315,-0.145,-0.025
1316,-0.125,-0.025
1317,-0.155,-0.025
1318,-0.155,-0.025
1319,-0.145,-0.015
1320,-0.155,-0.015
1321,-0.165,-0.025
1322,-0.145,-0.035
1323,-0.175,-0.045
1324,-0.175,-0.055
1325,-0.175,-0.075
1326,-0.165,-0.075
1327,-0.145,-0.065
1328,-0.125,-0.075
1329,-0.095,-0.085
1330,-0.075,-0.085
1331,-0.095,-0.085
1332,-0.065,-0.085
1333,-0.065,-0.105
1334,-0.075,-0.105
1335,-0.105,-0.105
1336,-0.095,-0.115
1337,-0.115,-0.125
1338,-0.095,-0.125
1339,-0.105,-0.115
1340,-0.105,-0.115
1341,-0.095,-0.115
1342,-0.095,-0.115
1343,-0.105,-0.105
1344,-0.115,-0.115
1345,-0.105,-0.125
1346,-0.115,-0.115
1347,-0.085,-0.105
1348,-0.095,-0.115
1349,-0.085,-0.115
1350,-0.105,-0.115
1351,-0.085,-0.095
1352,-0.085,-0.105
1353,-0.095,-0.115
1354,-0.085,-0.105
1355,-0.085,-0.095
1356,-0.085,-0.105
1357,-0.075,-0.125
1358,-0.075,-0.115
1359,-0.085,-0.105
1360,-0.065,-0.115
1361,-0.085,-0.125
1362,-0.085,-0.115
1363,-0.075,-0.115
1364,-0.095,-0.125
1365,-0.105,-0.135
1366,-0.095,-0.135
1367,-0.075,-0.125
1368,-0.075,-0.125
1369,-0.095,-0.135
1370,-0.095,-0.125
1371,-0.075,-0.115
1372,-0.075,-0.135
1373,-0.085,-0.135
1374,-0.105,-0.135
1375,-0.085,-0.125
1376,-0.095,-0.125
1377,-0.085,-0.135
1378,-0.105,-0.135
1379,-0.105,-0.125
1380,-0.105,-0.125
1381,-0.095,-0.135
1382,-0.095,-0.135
1383,-0.085,-0.125
1384,-0.085,-0.125
1385,-0.085,-0.125
1386,-0.105,-0.125
1387,-0.065,-0.105
1388,-0.065,-0.085
1389,-0.045,-0.085
1390,-0.025,-0.095
1391,-0.025,-0.095
1392,-0.015,-0.105
1393,-0.035,-0.115
1394,-0.015,-0.105
1395,-0.025,-0.105
1396,-0.035,-0.125
1397,-0.065,-0.135
1398,-0.085,-0.145
1399,-0.095,-0.145
1400,-0.115,-0.155
1401,-0.125,-0.155
1402,-0.135,-0.155
1403,-0.135,-0.135
1404,-0.115,-0.145
1405,-0.105,-0.145
1406,-0.105,-0.135
1407,-0.115,-0.125
1408,-0.125,-0.125
1409,-0.105,-0.125
1410,-0.065,-0.105
1411,-0.055,-0.075
1412,-0.025,0.025
1413,0.235,0.255
1414,0.895,0.365
1415,1.385,0.115
1416,0.875,-0.255
1417,-0.105,-0.795
1418,-0.565,-0.635
1419,-0.325,-0.145
1420,-0.115,-0.025
1421,-0.145,-0.065
1422,-0.145,-0.085
1423,-0.135,-0.075
1424,-0.145,-0.075
1425,-0.155,-0.085
1426,-0.145,-0.085
1427,-0.155,-0.065
1428,-0.145,-0.075
1429,-0.155,-0.075
1430,-0.155,-0.075
1431,-0.155,-0.065
1432,-0.155,-0.055
1433,-0.155,-0.065
1434,-0.155,-0.065
1435,-0.155,-0.055
1436,-0.155,-0.045
1437,-0.155,-0.045
1438,-0.165,-0.045
1439,-0.135,-0.035
1440,-0.175,-0.045
1441,-0.165,-0.045
1442,-0.155,-0.035
1443,-0.175,-0.035
1444,-0.175,-0.045
1445,-0.175,-0.065
1446,-0.185,-0.065
1447,-0.175,-0.075
1448,-0.185,-0.075
1449,-0.185,-0.095
1450,-0.125,-0.085
1451,-0.125,-0.085
1452,-0.075,-0.085
1453,-0.085,-0.095
1454,-0.075,-0.095
1455,-0.065,-0.095
1456,-0.085,-0.105
1457,-0.085,-0.125
1458,-0.095,-0.125
1459,-0.095,-0.115
1460,-0.085,-0.115
1461,-0.105,-0.125
1462,-0.105,-0.115
1463,-0.095,-0.115
1464,-0.095,-0.125
1465,-0.095,-0.125
1466,-0.095,-0.115
1467,-0.105,-0.115
1468,-0.095,-0.115
1469,-0.075,-0.115
1470,-0.085,-0.105
1471,-0.065,-0.105
1472,-0.085,-0.105
1473,-0.065,-0.105
1474,-0.075,-0.105
1475,-0.065,-0.105
1476,-0.075,-0.095
1477,-0.055,-0.105
1478,-0.075,-0.115
1479,-0.035,-0.105
1480,-0.075,-0.105
1481,-0.065,-0.115
1482,-0.085,-0.115
1483,-0.065,-0.105
1484,-0.065,-0.115
1485,-0.085,-0.125
1486,-0.085,-0.115
1487,-0.075,-0.115
1488,-0.045,-0.115
1489,-0.095,-0.115
1490,-0.095,-0.125
1491,-0.065,-0.115
1492,-0.075,-0.115
1493,-0.085,-0.125
1494,-0.065,-0.125
1495,-0.075,-0.115
1496,-0.075,-0.105
1497,-0.075,-0.125
1498,-0.075,-0.125
1499,-0.055,-0.105
1500,-0.085,-0.115
1501,-0.085,-0.115
1502,-0.055,-0.115
1503,-0.065,-0.105
1504,-0.095,-0.105
1505,-0.085,-0.115
1506,-0.045,-0.115
1507,-0.075,-0.095
1508,-0.085,-0.105
1509,-0.075,-0.115
1510,-0.075,-0.105
1511,-0.045,-0.105
1512,-0.065,-0.095
1513,-0.045,-0.095
1514,-0.015,-0.065
1515,-0.005,-0.055
1516,0.015,-0.065
1517,-0.015,-0.095
1518,0.005,-0.095
1519,0.015,-0.075
1520,0.025,-0.075
1521,-0.015,-0.105
1522,-0.035,-0.115
1523,-0.035,-0.095
1524,-0.025,-0.105
1525,-0.085,-0.125
1526,-0.085,-0.125
1527,-0.115,-0.125
1528,-0.065,-0.115
1529,-0.095,-0.125
1530,-0.085,-0.135
1531,-0.095,-0.115
1532,-0.085,-0.115
1533,-0.055,-0.115
1534,-0.055,-0.105
1535,-0.045,-0.085
1536,-0.025,-0.085
1537,-0.005,-0.045
1538,0.095,0.145
1539,0.485,0.295
1540,1.175,0.295
1541,1.285,-0.155
1542,0.475,-0.525
1543,-0.415,-0.735
1544,-0.365,-0.265
1545,-0.155,-0.035
1546,-0.075,-0.025
1547,-0.105,-0.035
1548,-0.095,-0.045
1549,-0.115,-0.055
1550,-0.095,-0.055
1551,-0.125,-0.055
1552,-0.115,-0.055
1553,-0.155,-0.055
1554,-0.065,-0.045
1555,-0.085,-0.015
1556,-0.105,-0.025
1557,-0.105,-0.045
1558,-0.085,-0.025
1559,-0.085,-0.015
1560,-0.095,-0.015
1561,-0.075,-0.015
1562,-0.105,-0.015
1563,-0.115,0.005
1564,-0.105,-0.005
1565,-0.115,-0.015
1566,-0.115,-0.005
1567,-0.115,0.005
1568,-0.135,-0.005
1569,-0.095,-0.005
1570,-0.125,-0.025
1571,-0.125,-0.025
1572,-0.105,-0.035
1573,-0.105,-0.055
1574,-0.105,-0.055
1575,-0.085,-0.055
1576,-0.075,-0.055
1577,-0.035,-0.065
1578,-0.035,-0.065
1579,-0.075,-0.065
1580,-0.035,-0.065
1581,-0.045,-0.085
1582,-0.065,-0.095
1583,-0.045,-0.075
1584,-0.065,-0.085
1585,-0.065,-0.105
1586,-0.075,-0.095
1587,-0.065,-0.095
1588,-0.055,-0.095
1589,-0.095,-0.115
1590,-0.065,-0.095
1591,-0.085,-0.095
1592,-0.075,-0.095
1593,-0.075,-0.105
1594,-0.075,-0.095
1595,-0.055,-0.085
1596,-0.065,-0.085
1597,-0.055,-0.085
1598,-0.045,-0.075
1599,-0.045,-0.075
1600,-0.055,-0.075
1601,-0.055,-0.095
1602,-0.055,-0.085
1603,-0.045,-0.075
1604,-0.055,-0.085
1605,-0.075,-0.085
1606,-0.055,-0.095
1607,-0.045,-0.085
1608,-0.045,-0.095
1609,-0.075,-0.105
1610,-0.045,-0.105
1611,-0.055,-0.085
1612,-0.075,-0.095
1613,-0.075,-0.105
1614,-0.055,-0.105
1615,-0.065,-0.095
1616,-0.075,-0.095
1617,-0.055,-0.105
1618,-0.055,-0.095
1619,-0.075,-0.105
1620,-0.065,-0.095
1621,-0.075,-0.105
1622,-0.065,-0.105
1623,-0.055,-0.095
1624,-0.065,-0.105
1625,-0.085,-0.105
1626,-0.065,-0.105
1627,-0.065,-0.095
1628,-0.065,-0.095
1629,-0.075,-0.105
1630,-0.085,-0.105
1631,-0.055,-0.095
1632,-0.055,-0.105
1633,-0.075,-0.115
1634,-0.075,-0.115
1635,-0.045,-0.095
1636,-0.065,-0.105
1637,-0.065,-0.105
1638,-0.065,-0.095
1639,-0.075,-0.095
1640,-0.055,-0.095
1641,-0.065,-0.095
1642,-0.025,-0.075
1643,0.005,-0.045
1644,-0.005,-0.055
1645,-0.005,-0.075
1646,0.005,-0.085
1647,0.025,-0.075
1648,0.035,-0.075
1649,0.035,-0.085
1650,-0.025,-0.105
1651,-0.035,-0.095
1652,-0.055,-0.105
1653,-0.105,-0.115
1654,-0.095,-0.125
1655,-0.095,-0.125
1656,-0.105,-0.115
1657,-0.105,-0.125
1658,-0.095,-0.115
1659,-0.075,-0.105
1660,-0.105,-0.115
1661,-0.105,-0.115
1662,-0.095,-0.105
1663,-0.055,-0.075
1664,-0.075,-0.075
1665,-0.025,-0.045
1666,0.075,0.135
1667,0.415,0.325
1668,1.135,0.365
1669,1.325,-0.075
1670,0.425,-0.495
1671,-0.405,-0.825
1672,-0.425,-0.365
1673,-0.145,-0.035
1674,-0.055,-0.025
1675,-0.105,-0.045
1676,-0.105,-0.055
1677,-0.105,-0.055
1678,-0.135,-0.055
1679,-0.125,-0.045
1680,-0.125,-0.055
1681,-0.115,-0.055
1682,-0.105,-0.045
1683,-0.125,-0.025
1684,-0.115,-0.025
1685,-0.135,-0.035
1686,-0.105,-0.035
1687,-0.095,-0.025
1688,-0.125,-0.025
1689,-0.115,-0.025
1690,-0.135,-0.025
1691,-0.145,-0.005
1692,-0.125,-0.005
1693,-0.135,-0.015
1694,-0.135,-0.005
1695,-0.125,-0.005
1696,-0.135,-0.015
1697,-0.115,-0.015
1698,-0.165,-0.025
1699,-0.145,-0.015
1700,-0.145,-0.045
1701,-0.155,-0.055
1702,-0.155,-0.065
1703,-0.105,-0.055
1704,-0.095,-0.055
1705,-0.055,-0.065
1706,-0.075,-0.075
1707,-0.055,-0.055
1708,-0.015,-0.075
1709,-0.065,-0.085
1710,-0.055,-0.075
1711,-0.045,-0.085
1712,-0.055,-0.085
1713,-0.045,-0.095
1714,-0.085,-0.095
1715,-0.105,-0.075
1716,-0.095,-0.085
1717,-0.045,-0.095
1718,-0.075,-0.075
1719,-0.085,-0.075
1720,-0.085,-0.085
1721,-0.045,-0.085
1722,-0.085,-0.065
1723,-0.055,-0.065
1724,-0.065,-0.065
1725,-0.045,-0.075
1726,-0.055,-0.075
1727,-0.035,-0.065
1728,-0.065,-0.065
1729,-0.025,-0.085
1730,-0.055,-0.075
1731,-0.035,-0.065
1732,-0.065,-0.075
1733,-0.035,-0.085
1734,-0.055,-0.075
1735,-0.055,-0.075
1736,-0.055,-0.075
1737,-0.035,-0.085
1738,-0.045,-0.085
1739,-0.065,-0.075
1740,-0.045,-0.085
1741,-0.055,-0.095
1742,-0.025,-0.085
1743,-0.045,-0.085
1744,-0.075,-0.085
1745,-0.055,-0.095
1746,-0.025,-0.095
1747,-0.065,-0.075
1748,-0.075,-0.085
1749,-0.065,-0.085
1750,-0.075,-0.085
1751,-0.045,-0.085
1752,-0.035,-0.085
1753,-0.055,-0.095
1754,-0.045,-0.095
1755,-0.055,-0.075
1756,-0.045,-0.085
1757,-0.035,-0.085
1758,-0.075,-0.095
1759,-0.025,-0.085
1760,-0.045,-0.085
1761,-0.055,-0.085
1762,-0.035,-0.085
1763,-0.015,-0.045
1764,0.015,-0.035
1765,0.015,-0.055
1766,0.035,-0.065
1767,0.045,-0.065
1768,0.025,-0.065
1769,0.035,-0.075
1770,0.065,-0.075
1771,-0.005,-0.085
1772,-0.005,-0.075
1773,-0.055,-0.105
1774,-0.065,-0.105
1775,-0.065,-0.115
1776,-0.085,-0.105
1777,-0.095,-0.115
1778,-0.085,-0.125
1779,-0.075,-0.105
1780,-0.065,-0.105
1781,-0.085,-0.115
1782,-0.065,-0.105
1783,-0.025,-0.085
1784,-0.025,-0.075
1785,-0.035,-0.085
1786,0.015,-0.025
1787,0.115,0.215
1788,0.565,0.325
1789,1.245,0.265
1790,1.175,-0.255
1791,0.255,-0.675
1792,-0.505,-0.725
1793,-0.315,-0.185
1794,-0.115,0.005
1795,-0.085,-0.005
1796,-0.105,-0.035
1797,-0.135,-0.055
1798,-0.125,-0.045
1799,-0.095,-0.045
1800,-0.135,-0.045
1801,-0.135,-0.055
1802,-0.145,-0.045
1803,-0.125,-0.035
1804,-0.105,-0.035
1805,-0.135,-0.045
1806,-0.125,-0.035
1807,-0.135,-0.015
1808,-0.125,-0.015
1809,-0.145,-0.035
1810,-0.135,-0.035
1811,-0.115,-0.005
1812,-0.115,-0.005
1813,-0.145,-0.015
1814,-0.155,-0.015
1815,-0.135,-0.005
1816,-0.145,-0.005
1817,-0.145,-0.015
1818,-0.145,-0.025
1819,-0.155,-0.015
1820,-0.155,-0.035
1821,-0.165,-0.045
1822,-0.145,-0.055
1823,-0.145,-0.045
1824,-0.145,-0.065
1825,-0.125,-0.065
1826,-0.085,-0.065
1827,-0.055,-0.065
1828,-0.065,-0.065
1829,-0.095,-0.085
1830,-0.075,-0.095
1831,-0.055,-0.085
1832,-0.085,-0.095
1833,-0.085,-0.115
1834,-0.085,-0.105
1835,-0.105,-0.105
1836,-0.085,-0.105
1837,-0.105,-0.115
1838,-0.085,-0.115
1839,-0.105,-0.105
1840,-0.095,-0.105
1841,-0.095,-0.125
1842,-0.065,-0.115
1843,-0.065,-0.105
1844,-0.095,-0.105
1845,-0.085,-0.105
1846,-0.095,-0.105
1847,-0.055,-0.095
1848,-0.055,-0.105
1849,-0.055,-0.115
1850,-0.055,-0.105
1851,-0.065,-0.095
1852,-0.045,-0.105
1853,-0.055,-0.115
1854,-0.065,-0.105
1855,-0.045,-0.105
1856,-0.055,-0.105
1857,-0.065,-0.125
1858,-0.045,-0.115
1859,-0.065,-0.105
1860,-0.055,-0.105
1861,-0.075,-0.125
1862,-0.055,-0.125
1863,-0.055,-0.115
1864,-0.065,-0.115
1865,-0.045,-0.125
1866,-0.055,-0.125
1867,-0.045,-0.115
1868,-0.045,-0.125
1869,-0.045,-0.115
1870,-0.055,-0.125
1871,-0.045,-0.125
1872,-0.055,-0.115
1873,-0.045,-0.125
1874,-0.045,-0.125
1875,-0.075,-0.115
1876,-0.035,-0.105
1877,-0.015,-0.105
1878,0.005,-0.085
1879,-0.005,-0.065
1880,0.015,-0.075
1881,0.025,-0.095
1882,0.045,-0.095
1883,0.045,-0.085
1884,0.035,-0.105
1885,-0.005,-0.125
1886,-0.005,-0.115
1887,0.005,-0.105
1888,-0.035,-0.125
1889,-0.045,-0.145
1890,-0.075,-0.145
1891,-0.085,-0.135
1892,-0.085,-0.135
1893,-0.075,-0.135
1894,-0.065,-0.125
1895,-0.055,-0.125
1896,-0.055,-0.125
1897,-0.055,-0.125
1898,-0.025,-0.105
1899,-0.015,-0.085
1900,0.015,-0.055
1901,0.055,0.105
1902,0.425,0.315
1903,1.145,0.425
1904,1.465,-0.015
1905,0.665,-0.415
1906,-0.335,-0.875
1907,-0.435,-0.375
1908,-0.155,-0.035
1909,-0.095,-0.035
1910,-0.085,-0.055
1911,-0.095,-0.055
1912,-0.085,-0.065
1913,-0.125,-0.075
1914,-0.115,-0.065
1915,-0.115,-0.055
1916,-0.115,-0.055
1917,-0.115,-0.065
1918,-0.115,-0.055
1919,-0.085,-0.045
1920,-0.105,-0.055
1921,-0.105,-0.055
1922,-0.095,-0.045
1923,-0.125,-0.035
1924,-0.105,-0.035
1925,-0.115,-0.045
1926,-0.105,-0.035
1927,-0.095,-0.025
1928,-0.115,-0.025
1929,-0.135,-0.035
1930,-0.095,-0.035
1931,-0.135,-0.015
1932,-0.115,-0.015
1933,-0.125,-0.045
1934,-0.135,-0.045
1935,-0.145,-0.055
1936,-0.145,-0.055
1937,-0.125,-0.075
1938,-0.125,-0.085
1939,-0.105,-0.075
1940,-0.075,-0.065
1941,-0.045,-0.085
1942,-0.035,-0.095
1943,-0.025,-0.085
1944,-0.045,-0.095
1945,-0.055,-0.105
1946,-0.055,-0.115
1947,-0.045,-0.105
1948,-0.035,-0.105
1949,-0.045,-0.115
1950,-0.105,-0.125
1951,-0.065,-0.105
1952,-0.065,-0.125
1953,-0.075,-0.125
1954,-0.075,-0.115
1955,-0.075,-0.105
1956,-0.075,-0.105
1957,-0.055,-0.115
1958,-0.055,-0.115
1959,-0.055,-0.105
1960,-0.035,-0.105
1961,-0.045,-0.115
1962,-0.035,-0.105
1963,-0.015,-0.095
1964,-0.065,-0.095
1965,-0.055,-0.115
1966,-0.025,-0.115
1967,-0.025,-0.105
1968,-0.035,-0.105
1969,-0.045,-0.105
1970,-0.025,-0.115
1971,-0.045,-0.105
1972,-0.065,-0.115
1973,-0.045,-0.115
1974,-0.035,-0.115
1975,-0.015,-0.105
1976,-0.045,-0.115
1977,-0.055,-0.125
1978,-0.045,-0.125
1979,-0.025,-0.115
1980,-0.035,-0.115
1981,-0.065,-0.125
1982,-0.055,-0.125
1983,-0.035,-0.105
1984,-0.015,-0.115
1985,-0.065,-0.125
1986,-0.045,-0.125
1987,-0.035,-0.105
1988,-0.045,-0.115
1989,-0.045,-0.115
1990,-0.015,-0.105
1991,0.005,-0.075
1992,0.015,-0.075
1993,0.015,-0.085
1994,0.045,-0.075
1995,0.015,-0.085
1996,0.065,-0.075
1997,0.055,-0.095
1998,0.065,-0.105
1999,-0.005,-0.105
2000,0.015,-0.105
2001,0.005,-0.115
2002,-0.045,-0.135
2003,-0.075,-0.125
2004,-0.085,-0.145
2005,-0.055,-0.135
2006,-0.085,-0.135
2007,-0.075,-0.125
2008,-0.035,-0.125
2009,-0.075,-0.125
2010,-0.045,-0.125
2011,-0.055,-0.105
2012,-0.045,-0.105
2013,-0.035,-0.105
2014,-0.015,-0.085
2015,0.045,0.015
2016,0.195,0.255
2017,0.785,0.345
2018,1.425,0.125
2019,1.075,-0.275
2020,0.095,-0.775
2021,-0.535,-0.635
2022,-0.275,-0.145
2023,-0.075,0.005
2024,-0.055,-0.025
2025,-0.085,-0.055
2026,-0.105,-0.065
2027,-0.135,-0.055
2028,-0.105,-0.055
2029,-0.105,-0.075
2030,-0.115,-0.065
2031,-0.105,-0.045
2032,-0.105,-0.045
2033,-0.125,-0.055
2034,-0.085,-0.045
2035,-0.125,-0.035
2036,-0.135,-0.055
2037,-0.125,-0.045
2038,-0.105,-0.035
2039,-0.095,-0.025
2040,-0.135,-0.025
2041,-0.145,-0.025
2042,-0.135,-0.015
2043,-0.135,-0.005
2044,-0.125,-0.015
2045,-0.125,-0.015
2046,-0.145,-0.015
2047,-0.125,-0.005
2048,-0.135,-0.025
2049,-0.145,-0.045
2050,-0.175,-0.065
2051,-0.165,-0.055
2052,-0.125,-0.065
2053,-0.115,-0.065
2054,-0.095,-0.065
2055,-0.055,-0.055
2056,-0.045,-0.085
2057,-0.075,-0.095
2058,-0.045,-0.085
2059,-0.075,-0.085
2060,-0.055,-0.095
2061,-0.105,-0.105
2062,-0.065,-0.105
2063,-0.085,-0.095
2064,-0.095,-0.095
2065,-0.085,-0.115
2066,-0.105,-0.105
2067,-0.095,-0.095
2068,-0.105,-0.105
2069,-0.095,-0.105
2070,-0.085,-0.095
2071,-0.085,-0.095
2072,-0.075,-0.105
2073,-0.065,-0.105
2074,-0.085,-0.095
2075,-0.055,-0.085
2076,-0.065,-0.095
2077,-0.045,-0.095
2078,-0.035,-0.095
2079,-0.065,-0.085
2080,-0.065,-0.095
2081,-0.045,-0.095
2082,-0.035,-0.105
2083,-0.075,-0.095
2084,-0.045,-0.095
2085,-0.025,-0.105
2086,-0.045,-0.105
2087,-0.015,-0.095
2088,-0.035,-0.105
2089,-0.035,-0.105
2090,-0.055,-0.105
2091,-0.005,-0.095
2092,-0.045,-0.085
2093,-0.065,-0.105
2094,-0.045,-0.105
2095,-0.015,-0.095
2096,-0.045,-0.105
2097,-0.065,-0.105
2098,-0.025,-0.095
2099,-0.025,-0.085
2100,-0.075,-0.095
2101,-0.045,-0.095
2102,-0.025,-0.075
2103,0.005,-0.045
2104,0.005,-0.045
2105,0.015,-0.065
2106,0.015,-0.065
2107,0.025,-0.065
2108,0.055,-0.075
2109,0.045,-0.075
2110,0.015,-0.095
2111,0.015,-0.095
2112,0.015,-0.095
2113,-0.005,-0.115
2114,-0.045,-0.125
2115,-0.095,-0.115
2116,-0.065,-0.115
2117,-0.065,-0.125
2118,-0.075,-0.125
2119,-0.055,-0.105
2120,-0.065,-0.115
2121,-0.085,-0.115
2122,-0.035,-0.095
2123,-0.025,-0.085
2124,-0.045,-0.095
2125,-0.015,-0.075
2126,-0.015,-0.005
2127,0.135,0.245
2128,0.635,0.385
2129,1.325,0.315
2130,1.275,-0.145
2131,0.295,-0.645
2132,-0.485,-0.655
2133,-0.295,-0.115
2134,-0.095,-0.005
2135,-0.065,-0.015
2136,-0.095,-0.045
2137,-0.125,-0.045
2138,-0.135,-0.055
2139,-0.105,-0.035
2140,-0.125,-0.045
2141,-0.125,-0.045
2142,-0.125,-0.045
2143,-0.105,-0.025
2144,-0.125,-0.035
2145,-0.125,-0.035
2146,-0.115,-0.025
2147,-0.115,-0.015
2148,-0.135,-0.015
2149,-0.135,-0.025
2150,-0.115,-0.015
2151,-0.135,-0.005
2152,-0.125,-0.015
2153,-0.125,-0.005
2154,-0.155,-0.005
2155,-0.125,0.005
2156,-0.145,0.005
2157,-0.155,-0.005
2158,-0.155,-0.015
2159,-0.155,-0.015
2160,-0.155,-0.025
2161,-0.175,-0.045
2162,-0.145,-0.055
2163,-0.135,-0.055
2164,-0.135,-0.045
2165,-0.135,-0.055
2166,-0.075,-0.055
2167,-0.045,-0.055
2168,-0.075,-0.065
2169,-0.055,-0.075
2170,-0.055,-0.075
2171,-0.055,-0.065
2172,-0.075,-0.075
2173,-0.085,-0.095
2174,-0.115,-0.085
2175,-0.075,-0.085
2176,-0.095,-0.095
2177,-0.105,-0.095
2178,-0.095,-0.095
2179,-0.095,-0.085
2180,-0.115,-0.085
2181,-0.095,-0.085
2182,-0.075,-0.085
2183,-0.085,-0.075
2184,-0.085,-0.085
2185,-0.095,-0.085
2186,-0.055,-0.085
2187,-0.075,-0.065
2188,-0.045,-0.075
2189,-0.065,-0.085
2190,-0.055,-0.085
2191,-0.045,-0.085
2192,-0.055,-0.085
2193,-0.065,-0.095
2194,-0.055,-0.095
2195,-0.065,-0.085
2196,-0.055,-0.095
2197,-0.075,-0.105
2198,-0.055,-0.095
2199,-0.045,-0.085
2200,-0.055,-0.105
2201,-0.065,-0.105
2202,-0.055,-0.105
2203,-0.065,-0.085
2204,-0.075,-0.095
2205,-0.075,-0.105
2206,-0.075,-0.105
2207,-0.045,-0.085
2208,-0.085,-0.095
2209,-0.055,-0.105
2210,-0.055,-0.105
2211,-0.075,-0.095
2212,-0.065,-0.105
2213,-0.075,-0.115
2214,-0.065,-0.105
2215,-0.045,-0.075
2216,-0.005,-0.055
2217,-0.015,-0.075
2218,0.015,-0.065
2219,0.005,-0.075
2220,0.025,-0.075
2221,0.025,-0.095
2222,0.035,-0.095
2223,0.015,-0.105
2224,-0.005,-0.115
2225,-0.005,-0.115
2226,-0.035,-0.135
2227,-0.085,-0.125
2228,-0.115,-0.135
2229,-0.085,-0.135
2230,-0.075,-0.135
2231,-0.065,-0.125
2232,-0.095,-0.125
2233,-0.085,-0.125
2234,-0.085,-0.125
2235,-0.085,-0.105
2236,-0.055,-0.105
2237,-0.055,-0.085
2238,-0.055,-0.065
2239,0.015,-0.015
2240,0.085,0.185
2241,0.385,0.315
2242,1.055,0.385
2243,1.325,-0.105
2244,0.525,-0.535
2245,-0.375,-0.865
2246,-0.435,-0.355
2247,-0.145,-0.005
2248,-0.085,-0.005
2249,-0.125,-0.055
2250,-0.115,-0.055
2251,-0.125,-0.055
2252,-0.115,-0.055
2253,-0.135,-0.065
2254,-0.125,-0.075
2255,-0.115,-0.065
2256,-0.115,-0.055
2257,-0.125,-0.065
2258,-0.115,-0.065
2259,-0.125,-0.055
2260,-0.135,-0.055
2261,-0.125,-0.065
2262,-0.115,-0.065
2263,-0.085,-0.045
2264,-0.115,-0.045
2265,-0.125,-0.045
2266,-0.125,-0.045
2267,-0.125,-0.025
2268,-0.135,-0.025
2269,-0.145,-0.045
2270,-0.145,-0.045
2271,-0.155,-0.045
2272,-0.155,-0.045
2273,-0.175,-0.075
2274,-0.155,-0.075
2275,-0.185,-0.075
2276,-0.165,-0.085
2277,-0.155,-0.095
2278,-0.115,-0.095
2279,-0.095,-0.075
2280,-0.065,-0.085
2281,-0.055,-0.085
2282,-0.045,-0.085
2283,-0.085,-0.095
2284,-0.085,-0.105
2285,-0.105,-0.115
2286,-0.095,-0.115
2287,-0.075,-0.105
2288,-0.095,-0.105
2289,-0.105,-0.125
2290,-0.095,-0.115
2291,-0.095,-0.105
2292,-0.105,-0.115
2293,-0.105,-0.125
2294,-0.105,-0.105
2295,-0.085,-0.105
2296,-0.095,-0.105
2297,-0.085,-0.115
2298,-0.075,-0.105
2299,-0.065,-0.095
2300,-0.075,-0.105
2301,-0.065,-0.115
2302,-0.075,-0.115
2303,-0.045,-0.105
2304,-0.055,-0.105
2305,-0.075,-0.115
2306,-0.055,-0.115
2307,-0.055,-0.115
2308,-0.065,-0.115
2309,-0.055,-0.125
2310,-0.075,-0.135
2311,-0.075,-0.125
2312,-0.075,-0.125
2313,-0.065,-0.135
2314,-0.055,-0.125
2315,-0.055,-0.125
2316,-0.075,-0.135
2317,-0.075,-0.135
2318,-0.075,-0.125
2319,-0.055,-0.125
2320,-0.075,-0.125
2321,-0.065,-0.135
2322,-0.065,-0.135
2323,-0.075,-0.115
2324,-0.065,-0.105
2325,-0.035,-0.095
2326,-0.035,-0.095
2327,-0.015,-0.095
2328,-0.015,-0.105
2329,0.015,-0.115
2330,0.025,-0.105
2331,0.025,-0.085
2332,-0.005,-0.125
2333,-0.025,-0.135
2334,-0.035,-0.135
2335,-0.035,-0.135
2336,-0.065,-0.155
2337,-0.105,-0.165
2338,-0.105,-0.175
2339,-0.105,-0.145
2340,-0.105,-0.155
2341,-0.105,-0.165
2342,-0.095,-0.155
2343,-0.085,-0.135
2344,-0.085,-0.145
2345,-0.075,-0.155
2346,-0.035,-0.135
2347,-0.065,-0.125
2348,0.005,-0.095
2349,0.055,0.045
2350,0.395,0.295
2351,1.145,0.385
2352,1.405,-0.025
2353,0.605,-0.445
2354,-0.365,-0.905
2355,-0.485,-0.425
2356,-0.155,-0.095
2357,-0.085,-0.075
2358,-0.085,-0.095
2359,-0.095,-0.105
2360,-0.105,-0.115
2361,-0.115,-0.115
2362,-0.115,-0.115
2363,-0.125,-0.105
2364,-0.125,-0.105
2365,-0.115,-0.105
2366,-0.115,-0.105
2367,-0.105,-0.095
2368,-0.125,-0.095
2369,-0.135,-0.095
2370,-0.105,-0.085
2371,-0.115,-0.085
2372,-0.135,-0.085
2373,-0.135,-0.085
2374,-0.105,-0.075
2375,-0.115,-0.065
2376,-0.125,-0.075
2377,-0.145,-0.075
2378,-0.135,-0.065
2379,-0.135,-0.055
2380,-0.145,-0.075
2381,-0.165,-0.095
2382,-0.165,-0.095
2383,-0.155,-0.095
2384,-0.155,-0.115
2385,-0.145,-0.115
2386,-0.115,-0.115
2387,-0.095,-0.105
2388,-0.075,-0.115
2389,-0.055,-0.125
2390,-0.055,-0.125
2391,-0.035,-0.115
2392,-0.065,-0.135
2393,-0.055,-0.145
2394,-0.075,-0.145
2395,-0.085,-0.135
2396,-0.085,-0.145
2397,-0.065,-0.145
2398,-0.075,-0.155
2399,-0.065,-0.135
2400,-0.075,-0.145
2401,-0.075,-0.145
2402,-0.075,-0.145
2403,-0.085,-0.135
2404,-0.085,-0.135
2405,-0.065,-0.135
2406,-0.075,-0.135
2407,-0.065,-0.115
2408,-0.035,-0.125
2409,-0.075,-0.125
2410,-0.045,-0.125
2411,-0.045,-0.125
2412,-0.045,-0.115
2413,-0.055,-0.135
2414,-0.055,-0.125
2415,-0.035,-0.125
2416,-0.065,-0.125
2417,-0.075,-0.145
2418,-0.055,-0.145
2419,-0.065,-0.125
2420,-0.055,-0.135
2421,-0.085,-0.145
2422,-0.085,-0.135
2423,-0.045,-0.135
2424,-0.065,-0.135
2425,-0.055,-0.145
2426,-0.065,-0.145
2427,-0.065,-0.125
2428,-0.085,-0.135
2429,-0.085,-0.145
2430,-0.085,-0.145
2431,-0.055,-0.125
2432,-0.075,-0.125
2433,-0.045,-0.125
2434,-0.035,-0.105
2435,-0.035,-0.085
2436,-0.015,-0.095
2437,-0.015,-0.115
2438,0.005,-0.105
2439,0.015,-0.105
2440,0.035,-0.115
2441,-0.035,-0.145
2442,-0.025,-0.135
2443,-0.045,-0.125
2444,-0.095,-0.145
2445,-0.105,-0.165
2446,-0.105,-0.165
2447,-0.115,-0.145
2448,-0.095,-0.155
2449,-0.115,-0.155
2450,-0.105,-0.145
2451,-0.095,-0.135
2452,-0.125,-0.145
2453,-0.085,-0.135
2454,-0.065,-0.125
2455,-0.045,-0.105
2456,-0.065,-0.095
2457,-0.015,-0.005
2458,0.175,0.225
2459,0.755,0.325
2460,1.365,0.205
2461,1.135,-0.225
2462,0.145,-0.685
2463,-0.575,-0.715
2464,-0.335,-0.215
2465,-0.145,-0.045
2466,-0.105,-0.065
2467,-0.125,-0.075
2468,-0.155,-0.075
2469,-0.145,-0.095
2470,-0.155,-0.095
2471,-0.135,-0.075
2472,-0.155,-0.085
2473,-0.175,-0.095
2474,-0.125,-0.075
2475,-0.145,-0.065
2476,-0.155,-0.065
2477,-0.155,-0.075
2478,-0.155,-0.065
2479,-0.145,-0.055
2480,-0.145,-0.055
2481,-0.165,-0.055
2482,-0.135,-0.055
2483,-0.145,-0.035
2484,-0.155,-0.035
2485,-0.165,-0.045
2486,-0.165,-0.035
2487,-0.135,-0.035
2488,-0.175,-0.025
2489,-0.155,-0.045
2490,-0.175,-0.065
2491,-0.185,-0.055
2492,-0.185,-0.065
2493,-0.165,-0.085
2494,-0.165,-0.095
2495,-0.135,-0.085
2496,-0.115,-0.085
2497,-0.105,-0.095
2498,-0.085,-0.085
2499,-0.065,-0.075
2500,-0.075,-0.095
2501,-0.085,-0.105
2502,-0.095,-0.115
2503,-0.095,-0.105
2504,-0.085,-0.105
2505,-0.105,-0.125
2506,-0.115,-0.125
2507,-0.105,-0.105
2508,-0.105,-0.115
2509,-0.115,-0.125
2510,-0.115,-0.115
2511,-0.105,-0.105
2512,-0.105,-0.105
2513,-0.095,-0.115
2514,-0.085,-0.105
2515,-0.095,-0.085
2516,-0.085,-0.095
2517,-0.085,-0.105
2518,-0.085,-0.095
2519,-0.055,-0.095
2520,-0.075,-0.095
2521,-0.065,-0.105
2522,-0.095,-0.115
2523,-0.065,-0.085
2524,-0.065,-0.105
2525,-0.085,-0.115
2526,-0.075,-0.115
2527,-0.075,-0.105
2528,-0.075,-0.115
2529,-0.085,-0.115
2530,-0.075,-0.115
2531,-0.085,-0.105
2532,-0.085,-0.115
2533,-0.075,-0.125
2534,-0.075,-0.115
2535,-0.075,-0.115
2536,-0.085,-0.115
2537,-0.085,-0.125
2538,-0.085,-0.115
2539,-0.075,-0.105
2540,-0.075,-0.115
2541,-0.085,-0.115
2542,-0.055,-0.095
2543,-0.035,-0.075
2544,-0.035,-0.075
2545,-0.035,-0.085
2546,-0.015,-0.065
2547,-0.005,-0.075
2548,0.015,-0.085
2549,0.005,-0.095
2550,0.005,-0.095
2551,-0.015,-0.095
2552,-0.045,-0.115
2553,-0.035,-0.115
2554,-0.095,-0.135
2555,-0.095,-0.125
2556,-0.105,-0.135
2557,-0.105,-0.145
2558,-0.115,-0.145
2559,-0.105,-0.135
2560,-0.105,-0.135
2561,-0.095,-0.135
2562,-0.095,-0.125
2563,-0.095,-0.105
2564,-0.075,-0.095
2565,-0.075,-0.115
2566,-0.065,-0.095
2567,-0.015,-0.035
2568,0.075,0.145
2569,0.515,0.305
2570,1.165,0.305
2571,1.205,-0.205
2572,0.265,-0.635
2573,-0.495,-0.825
2574,-0.395,-0.325
2575,-0.155,-0.025
2576,-0.105,-0.025
2577,-0.125,-0.065
2578,-0.135,-0.075
2579,-0.145,-0.065
2580,-0.155,-0.065
2581,-0.155,-0.065
2582,-0.155,-0.065
2583,-0.135,-0.065
2584,-0.155,-0.065
2585,-0.145,-0.065
2586,-0.135,-0.065
2587,-0.165,-0.055
2588,-0.155,-0.055
2589,-0.135,-0.055
2590,-0.145,-0.055
2591,-0.135,-0.045
2592,-0.145,-0.035
2593,-0.135,-0.035
2594,-0.135,-0.045
2595,-0.145,-0.025
2596,-0.155,-0.035
2597,-0.175,-0.035
2598,-0.155,-0.045
2599,-0.155,-0.045
2600,-0.165,-0.045
2601,-0.185,-0.065
2602,-0.175,-0.075
2603,-0.185,-0.075
2604,-0.185,-0.085
2605,-0.175,-0.085
2606,-0.145,-0.095
2607,-0.095,-0.075
2608,-0.085,-0.075
2609,-0.085,-0.095
2610,-0.075,-0.095
2611,-0.095,-0.095
2612,-0.095,-0.105
2613,-0.095,-0.115
2614,-0.105,-0.115
2615,-0.095,-0.105
2616,-0.115,-0.115
2617,-0.105,-0.115
2618,-0.115,-0.115
2619,-0.095,-0.105
2620,-0.115,-0.115
2621,-0.105,-0.105
2622,-0.095,-0.105
2623,-0.095,-0.095
2624,-0.085,-0.095
2625,-0.105,-0.105
2626,-0.085,-0.105
2627,-0.095,-0.085
2628,-0.085,-0.095
2629,-0.085,-0.095
2630,-0.065,-0.095
2631,-0.075,-0.095
2632,-0.065,-0.095
2633,-0.085,-0.105
2634,-0.055,-0.095
2635,-0.095,-0.105
2636,-0.075,-0.085
2637,-0.065,-0.105
2638,-0.075,-0.105
2639,-0.075,-0.105
2640,-0.065,-0.105
2641,-0.095,-0.125
2642,-0.075,-0.115
2643,-0.085,-0.105
2644,-0.085,-0.105
2645,-0.075,-0.115
2646,-0.085,-0.115
2647,-0.065,-0.105
2648,-0.075,-0.105
2649,-0.095,-0.105
2650,-0.075,-0.115
2651,-0.045,-0.075
2652,-0.025,-0.065
2653,-0.015,-0.075
2654,-0.025,-0.085
2655,-0.005,-0.085
2656,0.015,-0.085
2657,0.025,-0.095
2658,0.035,-0.095
2659,-0.005,-0.105
2660,-0.005,-0.115
2661,-0.055,-0.125
2662,-0.075,-0.135
2663,-0.085,-0.135
2664,-0.085,-0.135
2665,-0.105,-0.155
2666,-0.095,-0.145
2667,-0.105,-0.135
2668,-0.085,-0.135
2669,-0.105,-0.135
2670,-0.095,-0.125
2671,-0.065,-0.105
2672,-0.045,-0.105
2673,-0.055,-0.115
2674,-0.055,-0.105
2675,-0.025,-0.035
2676,0.075,0.145
2677,0.445,0.315
2678,1.145,0.355
2679,1.355,-0.065
2680,0.565,-0.435
2681,-0.385,-0.805
2682,-0.415,-0.325
2683,-0.155,-0.025
2684,-0.105,-0.025
2685,-0.115,-0.055
2686,-0.135,-0.065
2687,-0.125,-0.055
2688,-0.135,-0.055
2689,-0.145,-0.065
2690,-0.145,-0.055
2691,-0.145,-0.045
2692,-0.125,-0.045
2693,-0.135,-0.045
2694,-0.145,-0.035
2695,-0.145,-0.035
2696,-0.125,-0.025
2697,-0.135,-0.035
2698,-0.125,-0.025
2699,-0.155,-0.015
2700,-0.135,-0.005
2701,-0.135,-0.005
2702,-0.135,-0.005
2703,-0.155,-0.005
2704,-0.155,-0.005
2705,-0.155,-0.005
2706,-0.145,-0.005
2707,-0.175,-0.005
2708,-0.175,-0.015
2709,-0.195,-0.035
2710,-0.185,-0.045
2711,-0.175,-0.035
2712,-0.185,-0.045
2713,-0.155,-0.055
2714,-0.125,-0.045
2715,-0.105,-0.045
2716,-0.085,-0.035
2717,-0.085,-0.055
2718,-0.085,-0.055
2719,-0.075,-0.055
2720,-0.095,-0.065
2721,-0.105,-0.085
2722,-0.105,-0.075
2723,-0.095,-0.075
2724,-0.085,-0.065
2725,-0.105,-0.085
2726,-0.105,-0.075
2727,-0.105,-0.075
2728,-0.095,-0.065
2729,-0.105,-0.075
2730,-0.085,-0.065
2731,-0.095,-0.065
2732,-0.095,-0.065
2733,-0.075,-0.075
2734,-0.075,-0.075
2735,-0.065,-0.055
2736,-0.075,-0.065
2737,-0.075,-0.075
2738,-0.065,-0.065
2739,-0.065,-0.065
2740,-0.075,-0.065
2741,-0.095,-0.075
2742,-0.065,-0.075
2743,-0.035,-0.055
2744,-0.065,-0.075
2745,-0.085,-0.085
2746,-0.085,-0.085
2747,-0.055,-0.075
2748,-0.075,-0.085
2749,-0.095,-0.095
2750,-0.085,-0.095
2751,-0.065,-0.075
2752,-0.065,-0.085
2753,-0.085,-0.095
2754,-0.055,-0.085
2755,-0.085,-0.085
2756,-0.085,-0.085
2757,-0.075,-0.095
2758,-0.055,-0.085
2759,-0.065,-0.075
2760,-0.065,-0.085
2761,-0.065,-0.085
2762,-0.045,-0.055
2763,-0.015,-0.035
2764,-0.025,-0.045
2765,-0.025,-0.055
2766,-0.005,-0.065
2767,0.045,-0.045
2768,0.015,-0.055
2769,0.025,-0.065
2770,-0.005,-0.075
2771,-0.015,-0.075
2772,-0.025,-0.095
2773,-0.075,-0.115
2774,-0.095,-0.115
2775,-0.085,-0.115
2776,-0.105,-0.115
2777,-0.075,-0.115
2778,-0.085,-0.115
2779,-0.105,-0.105
2780,-0.085,-0.105
2781,-0.065,-0.105
2782,-0.065,-0.105
2783,-0.055,-0.085
2784,-0.045,-0.085
2785,-0.045,-0.075
2786,0.005,-0.015
2787,0.115,0.235
2788,0.565,0.345
2789,1.245,0.225
2790,1.195,-0.225
2791,0.235,-0.675
2792,-0.505,-0.695
2793,-0.325,-0.195
2794,-0.095,-0.015
2795,-0.085,-0.025
2796,-0.075,-0.045
2797,-0.115,-0.065
2798,-0.105,-0.055
2799,-0.115,-0.045
2800,-0.105,-0.045
2801,-0.125,-0.065
2802,-0.115,-0.055
2803,-0.115,-0.045
2804,-0.105,-0.045
2805,-0.105,-0.045
2806,-0.105,-0.045
2807,-0.105,-0.035
2808,-0.105,-0.025
2809,-0.095,-0.025
2810,-0.105,-0.035
2811,-0.115,-0.015
2812,-0.115,-0.015
2813,-0.095,-0.025
2814,-0.125,-0.015
2815,-0.095,-0.005
2816,-0.115,-0.015
2817,-0.145,-0.025
2818,-0.135,-0.025
2819,-0.135,-0.035
2820,-0.145,-0.055
2821,-0.145,-0.065
2822,-0.155,-0.075
2823,-0.145,-0.075
2824,-0.105,-0.065
2825,-0.075,-0.065
2826,-0.035,-0.065
2827,-0.045,-0.065
2828,-0.025,-0.075
2829,-0.045,-0.085
2830,-0.025,-0.085
2831,-0.025,-0.085
2832,-0.045,-0.095
2833,-0.055,-0.095
2834,-0.035,-0.105
2835,-0.065,-0.105
2836,-0.065,-0.105
2837,-0.045,-0.105
2838,-0.075,-0.095
2839,-0.045,-0.105
2840,-0.055,-0.095
2841,-0.035,-0.095
2842,-0.045,-0.095
2843,-0.035,-0.085
2844,-0.045,-0.095
2845,-0.045,-0.095
2846,-0.025,-0.085
2847,-0.015,-0.075
2848,-0.025,-0.095
2849,-0.025,-0.105
2850,-0.025,-0.085
2851,-0.015,-0.075
2852,-0.025,-0.095
2853,-0.015,-0.105
2854,-0.025,-0.105
2855,-0.025,-0.095
2856,-0.025,-0.105
2857,-0.035,-0.125
2858,-0.015,-0.115
2859,-0.035,-0.095
2860,-0.035,-0.105
2861,-0.035,-0.115
2862,-0.035,-0.115
2863,-0.015,-0.105
2864,-0.025,-0.115
2865,-0.025,-0.125
2866,-0.035,-0.125
2867,-0.035,-0.105
2868,-0.045,-0.115
2869,-0.025,-0.115
2870,-0.025,-0.115
2871,-0.005,-0.095
2872,0.015,-0.085
2873,0.045,-0.085
2874,0.035,-0.075
2875,0.025,-0.065
2876,0.035,-0.085
2877,0.065,-0.095
2878,0.065,-0.095
2879,0.085,-0.085
2880,0.035,-0.115
2881,0.035,-0.125
2882,0.015,-0.125
2883,-0.025,-0.135
2884,-0.025,-0.145
2885,-0.055,-0.155
2886,-0.045,-0.155
2887,-0.035,-0.145
2888,-0.025,-0.145
2889,-0.045,-0.155
2890,-0.025,-0.145
2891,-0.035,-0.135
2892,-0.025,-0.135
2893,-0.005,-0.135
2894,0.015,-0.125
2895,0.025,-0.105
2896,0.055,-0.045
2897,0.185,0.155
2898,0.645,0.325
2899,1.335,0.305
2900,1.265,-0.135
2901,0.375,-0.645
2902,-0.455,-0.765
2903,-0.305,-0.265
2904,-0.075,-0.065
2905,-0.045,-0.075
2906,-0.055,-0.095
2907,-0.065,-0.095
2908,-0.075,-0.095
2909,-0.075,-0.105
2910,-0.055,-0.095
2911,-0.065,-0.085
2912,-0.055,-0.085
2913,-0.065,-0.085
2914,-0.055,-0.085
2915,-0.075,-0.075
2916,-0.065,-0.075
2917,-0.075,-0.075
2918,-0.055,-0.065
2919,-0.055,-0.055
2920,-0.065,-0.065
2921,-0.075,-0.065
2922,-0.055,-0.045
2923,-0.075,-0.045
2924,-0.085,-0.045
2925,-0.085,-0.055
2926,-0.085,-0.055
2927,-0.085,-0.055
2928,-0.115,-0.065
2929,-0.115,-0.085
2930,-0.115,-0.095
2931,-0.125,-0.095
2932,-0.125,-0.105
2933,-0.105,-0.115
2934,-0.095,-0.115
2935,-0.045,-0.105
2936,-0.025,-0.095
2937,-0.005,-0.105
2938,0.005,-0.105
2939,-0.005,-0.105
2940,-0.015,-0.105
2941,-0.025,-0.115
2942,-0.025,-0.125
2943,-0.015,-0.115
2944,-0.015,-0.115
2945,-0.035,-0.115
2946,-0.025,-0.125
2947,-0.045,-0.115
2948,-0.035,-0.115
2949,-0.045,-0.125
2950,-0.015,-0.115
2951,-0.015,-0.105
2952,-0.015,-0.105
2953,-0.035,-0.105
2954,0.015,-0.095
2955,-0.005,-0.095
2956,-0.005,-0.095
2957,-0.005,-0.105
2958,-0.005,-0.105
2959,0.005,-0.095
2960,0.015,-0.095
2961,0.005,-0.105
2962,-0.005,-0.115
2963,-0.005,-0.105
2964,-0.025,-0.115
2965,-0.005,-0.115
2966,-0.015,-0.115
2967,0.005,-0.105
2968,-0.025,-0.115
2969,-0.005,-0.125
2970,-0.015,-0.125
2971,-0.005,-0.115
2972,-0.015,-0.115
2973,-0.005,-0.125
2974,-0.015,-0.125
2975,0.005,-0.115
2976,-0.015,-0.115
2977,-0.025,-0.135
2978,-0.015,-0.125
2979,0.005,-0.095
2980,0.015,-0.075
2981,0.025,-0.075
2982,0.035,-0.085
2983,0.045,-0.075
2984,0.065,-0.085
2985,0.075,-0.095
2986,0.075,-0.095
2987,0.065,-0.095
2988,0.035,-0.115
2989,0.045,-0.115
2990,0.015,-0.125
2991,-0.025,-0.145
2992,-0.055,-0.155
2993,-0.045,-0.145
2994,-0.045,-0.145
2995,-0.045,-0.135
2996,-0.045,-0.135
2997,-0.045,-0.145
2998,-0.055,-0.135
2999,-0.035,-0.115
3000,-0.025,-0.115
3001,-0.005,-0.115
3002,0.005,-0.105
3003,0.015,-0.085
3004,0.035,0.035
3005,0.245,0.255
3006,0.885,0.365
3007,1.455,0.115
3008,1.015,-0.285
3009,0.015,-0.805
3010,-0.495,-0.595
3011,-0.205,-0.095
3012,-0.025,-0.005
3013,-0.055,-0.055
3014,-0.065,-0.065
3015,-0.075,-0.065
3016,-0.065,-0.065
3017,-0.065,-0.075
3018,-0.065,-0.075
3019,-0.075,-0.055
3020,-0.065,-0.055
3021,-0.065,-0.055
3022,-0.065,-0.055
3023,-0.055,-0.045
3024,-0.065,-0.045
3025,-0.075,-0.045
3026,-0.055,-0.045
3027,-0.075,-0.025
3028,-0.075,-0.025
3029,-0.075,-0.035
3030,-0.085,-0.025
3031,-0.065,-0.015
3032,-0.085,-0.015
3033,-0.085,-0.025
3034,-0.105,-0.035
3035,-0.095,-0.015
3036,-0.105,-0.035
3037,-0.095,-0.045
3038,-0.125,-0.065
3039,-0.105,-0.075
3040,-0.115,-0.075
3041,-0.095,-0.085
3042,-0.065,-0.075
3043,-0.045,-0.065
3044,-0.035,-0.065
3045,-0.015,-0.085
3046,-0.005,-0.085
3047,0.005,-0.085
3048,-0.025,-0.095
3049,-0.045,-0.105
3050,-0.035,-0.095
3051,-0.035,-0.095
3052,-0.035,-0.095
3053,-0.045,-0.105
3054,-0.045,-0.105
3055,-0.045,-0.095
3056,-0.035,-0.095
3057,-0.045,-0.105
3058,-0.045,-0.095
3059,-0.015,-0.085
3060,-0.045,-0.085
3061,-0.025,-0.085
3062,-0.045,-0.095
3063,-0.015,-0.085
3064,-0.025,-0.075
3065,-0.025,-0.085
3066,-0.025,-0.095
3067,-0.005,-0.075
3068,-0.025,-0.095
3069,-0.025,-0.095
3070,-0.015,-0.095
3071,-0.005,-0.095
3072,-0.025,-0.095
3073,-0.035,-0.105
3074,-0.015,-0.105
3075,-0.035,-0.095
3076,-0.015,-0.095
3077,-0.065,-0.105
3078,-0.025,-0.105
3079,-0.025,-0.095
3080,-0.025,-0.105
3081,-0.045,-0.115
3082,-0.045,-0.115
3083,-0.035,-0.105
3084,-0.035,-0.095
3085,-0.035,-0.105
3086,-0.035,-0.095
3087,0.005,-0.075
3088,0.015,-0.065
3089,0.015,-0.075
3090,0.025,-0.075
3091,0.025,-0.075
3092,0.045,-0.075
3093,0.045,-0.085
3094,0.045,-0.095
3095,0.035,-0.095
3096,0.005,-0.115
3097,-0.015,-0.125
3098,-0.055,-0.135
3099,-0.075,-0.135
3100,-0.085,-0.135
3101,-0.095,-0.145
3102,-0.075,-0.135
3103,-0.055,-0.125
3104,-0.085,-0.135
3105,-0.085,-0.135
3106,-0.055,-0.125
3107,-0.055,-0.105
3108,-0.045,-0.105
3109,-0.055,-0.115
3110,-0.025,-0.095
3111,0.025,0.025
3112,0.215,0.255
3113,0.795,0.345
3114,1.305,0.065
3115,0.855,-0.365
3116,-0.095,-0.825
3117,-0.545,-0.595
3118,-0.255,-0.115
3119,-0.085,-0.015
3120,-0.085,-0.055
3121,-0.105,-0.075
3122,-0.115,-0.075
3123,-0.105,-0.055
3124,-0.115,-0.075
3125,-0.125,-0.085
3126,-0.125,-0.075
3127,-0.105,-0.065
3128,-0.125,-0.065
3129,-0.115,-0.065
3130,-0.125,-0.065
3131,-0.115,-0.055
3132,-0.125,-0.055
3133,-0.125,-0.055
3134,-0.125,-0.055
3135,-0.115,-0.035
3136,-0.115,-0.035
3137,-0.125,-0.045
3138,-0.125,-0.035
3139,-0.125,-0.025
3140,-0.135,-0.035
3141,-0.155,-0.055
3142,-0.135,-0.045
3143,-0.145,-0.045
3144,-0.155,-0.065
3145,-0.185,-0.095
3146,-0.165,-0.095
3147,-0.175,-0.085
3148,-0.155,-0.095
3149,-0.135,-0.095
3150,-0.095,-0.085
3151,-0.065,-0.085
3152,-0.045,-0.085
3153,-0.055,-0.095
3154,-0.055,-0.105
3155,-0.075,-0.105
3156,-0.065,-0.105
3157,-0.075,-0.115
3158,-0.095,-0.125
3159,-0.075,-0.115
3160,-0.095,-0.115
3161,-0.075,-0.115
3162,-0.085,-0.125
3163,-0.075,-0.105
3164,-0.085,-0.115
3165,-0.075,-0.115
3166,-0.075,-0.105
3167,-0.065,-0.095
3168,-0.065,-0.095
3169,-0.065,-0.105
3170,-0.055,-0.095
3171,-0.045,-0.095
3172,-0.055,-0.105
3173,-0.075,-0.115
3174,-0.055,-0.105
3175,-0.055,-0.095
3176,-0.055,-0.105
3177,-0.035,-0.115
3178,-0.045,-0.105
3179,-0.065,-0.105
3180,-0.065,-0.115
3181,-0.045,-0.115
3182,-0.055,-0.115
3183,-0.055,-0.115
3184,-0.055,-0.105
3185,-0.065,-0.125
3186,-0.065,-0.125
3187,-0.075,-0.115
3188,-0.075,-0.125
3189,-0.075,-0.125
3190,-0.055,-0.115
3191,-0.055,-0.105
3192,-0.025,-0.085
3193,-0.015,-0.085
3194,-0.005,-0.075
3195,-0.025,-0.065
3196,0.015,-0.075
3197,0.035,-0.085
3198,0.035,-0.095
3199,0.055,-0.075
3200,0.005,-0.115
3201,-0.015,-0.115
3202,-0.015,-0.115
3203,-0.075,-0.125
3204,-0.085,-0.135
3205,-0.105,-0.145
3206,-0.095,-0.155
3207,-0.095,-0.135
3208,-0.095,-0.125
3209,-0.095,-0.135
3210,-0.095,-0.135
3211,-0.095,-0.135
3212,-0.085,-0.115
3213,-0.055,-0.105
3214,-0.065,-0.115
3215,-0.055,-0.095
3216,-0.025,-0.055
3217,0.035,0.085
3218,0.285,0.295
3219,1.065,0.435
3220,1.445,0.045
3221,0.715,-0.405
3222,-0.415,-0.835
3223,-0.465,-0.275
3224,-0.175,-0.035
3225,-0.105,-0.035
3226,-0.105,-0.075
3227,-0.135,-0.065
3228,-0.145,-0.065
3229,-0.135,-0.075
3230,-0.135,-0.075
3231,-0.155,-0.065
3232,-0.145,-0.065
3233,-0.125,-0.065
3234,-0.125,-0.055
3235,-0.135,-0.045
3236,-0.135,-0.055
3237,-0.115,-0.055
3238,-0.155,-0.045
3239,-0.135,-0.035
3240,-0.135,-0.035
3241,-0.145,-0.045
3242,-0.125,-0.035
3243,-0.135,-0.015
3244,-0.125,-0.015
3245,-0.135,-0.025
3246,-0.155,-0.035
3247,-0.155,-0.025
3248,-0.155,-0.035
3249,-0.185,-0.055
3250,-0.185,-0.065
3251,-0.185,-0.065
3252,-0.195,-0.075
3253,-0.155,-0.085
3254,-0.135,-0.085
3255,-0.095,-0.075
3256,-0.075,-0.075
3257,-0.055,-0.085
3258,-0.045,-0.085
3259,-0.055,-0.085
3260,-0.075,-0.105
3261,-0.085,-0.105
3262,-0.085,-0.105
3263,-0.075,-0.095
3264,-0.085,-0.105
3265,-0.085,-0.115
3266,-0.085,-0.105
3267,-0.095,-0.095
3268,-0.085,-0.095
3269,-0.095,-0.105
3270,-0.085,-0.095
3271,-0.075,-0.085
3272,-0.055,-0.085
3273,-0.075,-0.095
3274,-0.055,-0.085
3275,-0.065,-0.085
3276,-0.045,-0.075
3277,-0.045,-0.085
3278,-0.065,-0.095
3279,-0.045,-0.085
3280,-0.045,-0.085
3281,-0.045,-0.095
3282,-0.045,-0.095
3283,-0.055,-0.085
3284,-0.065,-0.095
3285,-0.055,-0.095
3286,-0.045,-0.095
3287,-0.055,-0.095
3288,-0.055,-0.095
3289,-0.035,-0.105
3290,-0.065,-0.115
3291,-0.065,-0.105
3292,-0.065,-0.105
3293,-0.075,-0.115
3294,-0.075,-0.115
3295,-0.055,-0.095
3296,-0.065,-0.095
3297,-0.045,-0.085
3298,-0.005,-0.065
3299,0.005,-0.065
3300,-0.005,-0.055
3301,-0.005,-0.075
3302,0.025,-0.075
3303,0.045,-0.075
3304,0.055,-0.065
3305,0.045,-0.095
3306,-0.005,-0.115
3307,-0.035,-0.105
3308,-0.075,-0.115
3309,-0.085,-0.135
3310,-0.125,-0.155
3311,-0.105,-0.145
3312,-0.095,-0.135
3313,-0.115,-0.135
3314,-0.105,-0.145
3315,-0.105,-0.135
3316,-0.105,-0.125
3317,-0.105,-0.115
3318,-0.075,-0.125
3319,-0.075,-0.115
3320,-0.045,-0.095
3321,-0.035,-0.075
3322,0.015,0.075
3323,0.275,0.275
3324,0.975,0.375
3325,1.365,-0.085
3326,0.685,-0.475
3327,-0.365,-0.815
3328,-0.465,-0.305
3329,-0.185,-0.035
3330,-0.095,-0.035
3331,-0.135,-0.065
3332,-0.135,-0.065
3333,-0.145,-0.075
3334,-0.155,-0.075
3335,-0.135,-0.065
3336,-0.125,-0.065
3337,-0.145,-0.065
3338,-0.145,-0.065
3339,-0.155,-0.055
3340,-0.135,-0.045
3341,-0.135,-0.055
3342,-0.145,-0.055
3343,-0.125,-0.035
3344,-0.145,-0.045
3345,-0.145,-0.035
3346,-0.135,-0.025
3347,-0.135,-0.025
3348,-0.135,-0.015
3349,-0.155,-0.025
3350,-0.155,-0.025
3351,-0.115,-0.015
3352,-0.175,-0.025
3353,-0.145,-0.035
3354,-0.175,-0.055
3355,-0.185,-0.045
3356,-0.175,-0.065
3357,-0.175,-0.075
3358,-0.145,-0.085
3359,-0.125,-0.065
3360,-0.085,-0.075
3361,-0.075,-0.085
3362,-0.065,-0.075
3363,-0.055,-0.075
3364,-0.075,-0.095
3365,-0.075,-0.095
3366,-0.095,-0.115
3367,-0.095,-0.105
3368,-0.115,-0.105
3369,-0.105,-0.115
3370,-0.095,-0.115
3371,-0.105,-0.105
3372,-0.125,-0.105
3373,-0.095,-0.105
3374,-0.075,-0.105
3375,-0.095,-0.095
3376,-0.095,-0.105
3377,-0.095,-0.115
3378,-0.075,-0.105
3379,-0.085,-0.095
3380,-0.085,-0.105
3381,-0.085,-0.115
3382,-0.095,-0.105
3383,-0.045,-0.095
3384,-0.055,-0.095
3385,-0.075,-0.115
3386,-0.075,-0.115
3387,-0.065,-0.095
3388,-0.075,-0.115
3389,-0.085,-0.125
3390,-0.065,-0.115
3391,-0.065,-0.115
3392,-0.075,-0.125
3393,-0.085,-0.135
3394,-0.085,-0.135
3395,-0.085,-0.125
3396,-0.095,-0.135
3397,-0.085,-0.135
3398,-0.075,-0.135
3399,-0.075,-0.135
3400,-0.085,-0.135
3401,-0.095,-0.145
3402,-0.075,-0.135
3403,-0.085,-0.125
3404,-0.095,-0.135
3405,-0.095,-0.135
3406,-0.065,-0.105
3407,-0.035,-0.085
3408,-0.035,-0.085
3409,-0.035,-0.095
3410,-0.015,-0.095
3411,-0.005,-0.085
3412,0.025,-0.095
3413,0.015,-0.115
3414,-0.005,-0.125
3415,-0.015,-0.125
3416,-0.045,-0.135
3417,-0.065,-0.145
3418,-0.105,-0.165
3419,-0.115,-0.155
3420,-0.125,-0.165
3421,-0.125,-0.175
3422,-0.135,-0.165
3423,-0.125,-0.155
3424,-0.105,-0.145
3425,-0.115,-0.155
3426,-0.095,-0.145
3427,-0.095,-0.125
3428,-0.085,-0.125
3429,-0.085,-0.125
3430,-0.035,-0.085
3431,0.005,0.055
3432,0.275,0.235
3433,0.945,0.285
3434,1.345,-0.105
3435,0.605,-0.475
3436,-0.335,-0.795
3437,-0.505,-0.445
3438,-0.205,-0.105
3439,-0.105,-0.045
3440,-0.135,-0.075
3441,-0.145,-0.095
3442,-0.155,-0.095
3443,-0.155,-0.085
3444,-0.155,-0.085
3445,-0.145,-0.085
3446,-0.155,-0.085
3447,-0.145,-0.065
3448,-0.155,-0.075
3449,-0.155,-0.075
3450,-0.135,-0.075
3451,-0.145,-0.065
3452,-0.155,-0.065
3453,-0.155,-0.075
3454,-0.155,-0.055
3455,-0.125,-0.045
3456,-0.135,-0.055
3457,-0.135,-0.045
3458,-0.145,-0.055
3459,-0.155,-0.045
3460,-0.165,-0.055
3461,-0.175,-0.055
3462,-0.175,-0.065
3463,-0.175,-0.055
3464,-0.175,-0.075
3465,-0.205,-0.105
3466,-0.185,-0.105
3467,-0.165,-0.095
3468,-0.155,-0.095
3469,-0.125,-0.105
3470,-0.105,-0.095
3471,-0.085,-0.085
3472,-0.065,-0.095
3473,-0.055,-0.095
3474,-0.085,-0.105
3475,-0.075,-0.105
3476,-0.085,-0.105
3477,-0.085,-0.125
3478,-0.085,-0.115
3479,-0.085,-0.105
3480,-0.105,-0.115
3481,-0.095,-0.115
3482,-0.105,-0.115
3483,-0.085,-0.105
3484,-0.095,-0.105
3485,-0.085,-0.105
3486,-0.085,-0.105
3487,-0.095,-0.095
3488,-0.075,-0.095
3489,-0.065,-0.105
3490,-0.085,-0.105
3491,-0.075,-0.095
3492,-0.065,-0.095
3493,-0.075,-0.105
3494,-0.065,-0.105
3495,-0.055,-0.085
3496,-0.055,-0.095
3497,-0.055,-0.105
3498,-0.065,-0.115
3499,-0.075,-0.105
3500,-0.075,-0.105
3501,-0.085,-0.115
3502,-0.065,-0.115
3503,-0.065,-0.105
3504,-0.085,-0.115
3505,-0.085,-0.125
3506,-0.075,-0.115
3507,-0.085,-0.115
3508,-0.085,-0.115
3509,-0.085,-0.125
3510,-0.095,-0.115
3511,-0.075,-0.105
3512,-0.065,-0.095
3513,-0.055,-0.085
3514,-0.035,-0.075
3515,-0.025,-0.065
3516,-0.015,-0.065
3517,-0.015,-0.085
3518,-0.005,-0.085
3519,0.025,-0.075
3520,0.025,-0.085
3521,-0.015,-0.115
3522,-0.025,-0.125
3523,-0.075,-0.115
3524,-0.095,-0.125
3525,-0.125,-0.145
3526,-0.115,-0.145
3527,-0.115,-0.135
3528,-0.125,-0.135
3529,-0.135,-0.145
3530,-0.105,-0.135
3531,-0.095,-0.125
3532,-0.115,-0.125
3533,-0.105,-0.125
3534,-0.075,-0.105
3535,-0.075,-0.095
3536,-0.055,-0.085
3537,-0.035,-0.025
3538,0.115,0.185
3539,0.685,0.365
3540,1.305,0.315
3541,1.075,-0.125
3542,0.075,-0.655
3543,-0.575,-0.695
3544,-0.335,-0.175
3545,-0.115,-0.025
3546,-0.115,-0.055
3547,-0.125,-0.055
3548,-0.145,-0.065
3549,-0.145,-0.075
3550,-0.155,-0.075
3551,-0.145,-0.065
3552,-0.145,-0.055
3553,-0.145,-0.065
3554,-0.145,-0.055
3555,-0.115,-0.045
3556,-0.145,-0.055
3557,-0.145,-0.055
3558,-0.125,-0.055
3559,-0.145,-0.035
3560,-0.125,-0.045
3561,-0.145,-0.045
3562,-0.125,-0.035
3563,-0.135,-0.025
3564,-0.135,-0.025
3565,-0.155,-0.035
3566,-0.145,-0.035
3567,-0.155,-0.015
3568,-0.165,-0.025
3569,-0.165,-0.045
3570,-0.185,-0.045
3571,-0.185,-0.045
3572,-0.205,-0.065
3573,-0.185,-0.085
3574,-0.175,-0.085
3575,-0.145,-0.075
3576,-0.115,-0.075
3577,-0.085,-0.075
3578,-0.075,-0.075
3579,-0.055,-0.065
3580,-0.075,-0.075
3581,-0.085,-0.085
3582,-0.095,-0.095
3583,-0.075,-0.085
3584,-0.075,-0.085
3585,-0.085,-0.095
3586,-0.085,-0.095
3587,-0.095,-0.085
3588,-0.085,-0.085
3589,-0.095,-0.085
3590,-0.095,-0.085
3591,-0.085,-0.075
3592,-0.075,-0.075
3593,-0.085,-0.085
3594,-0.055,-0.075
3595,-0.055,-0.065
3596,-0.075,-0.065
3597,-0.075,-0.075
3598,-0.055,-0.075
3599,-0.035,-0.065
3600,-0.055,-0.075
3601,-0.065,-0.075
3602,-0.045,-0.075
3603,-0.065,-0.075
3604,-0.085,-0.085
3605,-0.065,-0.095
3606,-0.075,-0.095
3607,-0.055,-0.075
3608,-0.065,-0.085
3609,-0.065,-0.095
3610,-0.085,-0.105
3611,-0.065,-0.085
3612,-0.085,-0.095
3613,-0.075,-0.095
3614,-0.085,-0.095
3615,-0.055,-0.085
3616,-0.065,-0.095
3617,-0.075,-0.095
3618,-0.075,-0.095
3619,-0.065,-0.085
3620,-0.035,-0.065
3621,-0.025,-0.055
3622,-0.005,-0.045
3623,0.015,-0.045
3624,0.015,-0.055
3625,0.005,-0.075
3626,0.035,-0.075
3627,0.055,-0.055
3628,0.015,-0.085
3629,-0.015,-0.095
3630,-0.025,-0.105
3631,-0.065,-0.115
3632,-0.115,-0.115
3633,-0.105,-0.135
3634,-0.105,-0.125
3635,-0.115,-0.115
3636,-0.105,-0.125
3637,-0.105,-0.135
3638,-0.095,-0.115
3639,-0.095,-0.105
3640,-0.085,-0.105
3641,-0.065,-0.105
3642,-0.065,-0.095
3643,-0.055,-0.075
3644,-0.025,-0.015
3645,0.135,0.205
3646,0.685,0.335
3647,1.305,0.265
3648,0.965,-0.205
3649,0.045,-0.665
3650,-0.555,-0.675
3651,-0.285,-0.165
3652,-0.125,-0.005
3653,-0.095,-0.035
3654,-0.115,-0.055
3655,-0.125,-0.045
3656,-0.135,-0.055
3657,-0.125,-0.055
3658,-0.135,-0.055
3659,-0.125,-0.055
3660,-0.125,-0.045
3661,-0.135,-0.055
3662,-0.115,-0.035
3663,-0.135,-0.035
3664,-0.115,-0.035
3665,-0.125,-0.045
3666,-0.115,-0.025
3667,-0.115,-0.025
3668,-0.135,-0.025
3669,-0.125,-0.025
3670,-0.105,-0.015
3671,-0.125,-0.005
3672,-0.115,-0.005
3673,-0.125,-0.015
3674,-0.145,-0.005
3675,-0.135,-0.005
3676,-0.155,-0.025
3677,-0.145,-0.035
3678,-0.145,-0.045
3679,-0.145,-0.045
3680,-0.175,-0.065
3681,-0.125,-0.065
3682,-0.105,-0.055
3683,-0.065,-0.045
3684,-0.055,-0.055
3685,-0.035,-0.065
3686,-0.035,-0.065
3687,-0.025,-0.055
3688,-0.035,-0.065
3689,-0.055,-0.085
3690,-0.045,-0.075
3691,-0.045,-0.065
3692,-0.045,-0.065
3693,-0.055,-0.095
3694,-0.045,-0.085
3695,-0.045,-0.065
3696,-0.035,-0.075
3697,-0.045,-0.085
3698,-0.045,-0.075
3699,-0.035,-0.055
3700,-0.025,-0.065
3701,-0.035,-0.065
3702,-0.015,-0.065
3703,-0.015,-0.055
3704,-0.035,-0.065
3705,-0.015,-0.075
3706,-0.015,-0.065
3707,-0.015,-0.055
3708,-0.015,-0.065
3709,-0.025,-0.075
3710,-0.015,-0.075
3711,0.005,-0.065
3712,-0.015,-0.065
3713,-0.015,-0.075
3714,-0.015,-0.085
3715,-0.015,-0.065
3716,-0.015,-0.075
3717,-0.025,-0.095
3718,-0.035,-0.095
3719,-0.015,-0.085
3720,-0.005,-0.085
3721,-0.025,-0.095
3722,-0.015,-0.095
3723,-0.035,-0.085
3724,-0.025,-0.095
3725,-0.025,-0.095
3726,-0.025,-0.095
3727,-0.015,-0.095
3728,-0.025,-0.095
3729,-0.025,-0.095
3730,-0.005,-0.075
3731,0.025,-0.055
3732,0.025,-0.045
3733,0.045,-0.055
3734,0.065,-0.065
3735,0.055,-0.065
3736,0.075,-0.065
3737,0.075,-0.075
3738,0.035,-0.095
3739,0.035,-0.085
3740,0.005,-0.105
3741,-0.015,-0.125
3742,-0.045,-0.125
3743,-0.045,-0.125
3744,-0.055,-0.135
3745,-0.055,-0.135
3746,-0.065,-0.135
3747,-0.055,-0.115
3748,-0.055,-0.115
3749,-0.045,-0.125
3750,-0.035,-0.115
3751,-0.025,-0.105
3752,-0.005,-0.085
3753,-0.015,-0.085
3754,0.025,-0.045
3755,0.145,0.145
3756,0.575,0.345
3757,1.265,0.395
3758,1.335,-0.055
3759,0.435,-0.485
3760,-0.495,-0.805
3761,-0.335,-0.275
3762,-0.095,-0.015
3763,-0.065,-0.025
3764,-0.075,-0.055
3765,-0.105,-0.065
3766,-0.105,-0.065
3767,-0.095,-0.055
3768,-0.085,-0.065
3769,-0.085,-0.065
3770,-0.115,-0.065
3771,-0.095,-0.045
3772,-0.105,-0.055
3773,-0.085,-0.055
3774,-0.095,-0.055
3775,-0.095,-0.035
3776,-0.085,-0.045
3777,-0.075,-0.045
3778,-0.125,-0.055
3779,-0.105,-0.035
3780,-0.095,-0.025
3781,-0.105,-0.035
3782,-0.085,-0.025
3783,-0.105,-0.015
3784,-0.115,-0.015
3785,-0.135,-0.025
3786,-0.115,-0.035
3787,-0.145,-0.035
3788,-0.135,-0.045
3789,-0.165,-0.065
3790,-0.155,-0.075
3791,-0.125,-0.065
3792,-0.125,-0.075
3793,-0.105,-0.075
3794,-0.055,-0.075
3795,-0.045,-0.075
3796,-0.055,-0.075
3797,-0.035,-0.085
3798,-0.035,-0.095
3799,-0.025,-0.095
3800,-0.035,-0.095
3801,-0.055,-0.105
3802,-0.055,-0.105
3803,-0.055,-0.095
3804,-0.045,-0.095
3805,-0.055,-0.105
3806,-0.065,-0.105
3807,-0.035,-0.095
3808,-0.055,-0.095
3809,-0.045,-0.095
3810,-0.025,-0.095
3811,-0.025,-0.085
3812,-0.025,-0.085
3813,-0.025,-0.095
3814,-0.025,-0.085
3815,-0.005,-0.085
3816,-0.015,-0.075
3817,-0.015,-0.085
3818,0.005,-0.085
3819,-0.005,-0.075
3820,-0.005,-0.085
3821,-0.015,-0.085
3822,-0.015,-0.095
3823,0.005,-0.085
3824,-0.005,-0.085
3825,-0.015,-0.095
3826,-0.015,-0.095
3827,-0.015,-0.095
3828,-0.005,-0.085
3829,-0.015,-0.105
3830,-0.025,-0.105
3831,-0.005,-0.095
3832,-0.035,-0.105
3833,-0.015,-0.105
3834,-0.005,-0.105
3835,-0.005,-0.095
3836,-0.005,-0.095
3837,0.005,-0.085
3838,0.045,-0.065
3839,0.065,-0.055
3840,0.055,-0.055
3841,0.055,-0.075
3842,0.075,-0.075
3843,0.085,-0.065
3844,0.095,-0.065
3845,0.075,-0.095
3846,0.045,-0.105
3847,0.025,-0.095
3848,-0.005,-0.115
3849,-0.045,-0.135
3850,-0.055,-0.145
3851,-0.055,-0.135
3852,-0.035,-0.135
3853,-0.045,-0.145
3854,-0.035,-0.135
3855,-0.035,-0.125
3856,-0.045,-0.125
3857,-0.025,-0.125
3858,-0.025,-0.115
3859,-0.005,-0.095
3860,0.005,-0.095
3861,0.035,-0.055
3862,0.165,0.165
3863,0.645,0.335
3864,1.325,0.355
3865,1.205,-0.145
3866,0.225,-0.625
3867,-0.465,-0.745
3868,-0.265,-0.195
3869,-0.075,-0.015
3870,-0.045,-0.035
3871,-0.075,-0.055
3872,-0.095,-0.065
3873,-0.085,-0.065
3874,-0.095,-0.075
3875,-0.085,-0.055
3876,-0.085,-0.065
3877,-0.095,-0.065
3878,-0.085,-0.065
3879,-0.075,-0.045
3880,-0.085,-0.055
3881,-0.095,-0.055
3882,-0.085,-0.045
3883,-0.085,-0.035
3884,-0.085,-0.035
3885,-0.105,-0.045
3886,-0.095,-0.035
3887,-0.085,-0.015
3888,-0.065,-0.015
3889,-0.085,-0.025
3890,-0.105,-0.025
3891,-0.125,-0.025
3892,-0.115,-0.015
3893,-0.125,-0.035
3894,-0.135,-0.045
3895,-0.135,-0.045
3896,-0.155,-0.075
3897,-0.165,-0.085
3898,-0.145,-0.085
3899,-0.115,-0.075
3900,-0.095,-0.085
3901,-0.055,-0.085
3902,-0.035,-0.095
3903,-0.025,-0.075
3904,-0.045,-0.095
3905,-0.045,-0.105
3906,-0.065,-0.115
3907,-0.055,-0.115
3908,-0.065,-0.115
3909,-0.065,-0.125
3910,-0.075,-0.115
3911,-0.065,-0.115
3912,-0.065,-0.115
3913,-0.065,-0.115
3914,-0.075,-0.115
3915,-0.075,-0.105
3916,-0.055,-0.095
3917,-0.055,-0.115
3918,-0.045,-0.105
3919,-0.035,-0.095
3920,-0.035,-0.095
3921,-0.045,-0.105
3922,-0.045,-0.095
3923,-0.045,-0.095
3924,-0.045,-0.095
3925,-0.025,-0.095
3926,-0.025,-0.105
3927,-0.035,-0.105
3928,-0.045,-0.105
3929,-0.035,-0.115
3930,-0.035,-0.115
3931,-0.035,-0.095
3932,-0.055,-0.105
3933,-0.035,-0.115
3934,-0.045,-0.115
3935,-0.035,-0.115
3936,-0.055,-0.115
3937,-0.035,-0.115
3938,-0.045,-0.115
3939,-0.045,-0.115
3940,-0.055,-0.115
3941,-0.035,-0.115
3942,-0.035,-0.115
3943,-0.045,-0.115
3944,-0.045,-0.115
3945,-0.045,-0.125
3946,-0.045,-0.105
3947,-0.025,-0.095
3948,-0.005,-0.075
3949,0.005,-0.075
3950,0.025,-0.075
3951,0.025,-0.065
3952,0.035,-0.085
3953,0.045,-0.085
3954,0.035,-0.085
3955,0.045,-0.085
3956,0.015,-0.105
3957,0.005,-0.115
3958,-0.015,-0.125
3959,-0.055,-0.125
3960,-0.065,-0.135
3961,-0.075,-0.145
3962,-0.085,-0.145
3963,-0.075,-0.125
3964,-0.075,-0.135
3965,-0.045,-0.135
3966,-0.045,-0.135
3967,-0.055,-0.125
3968,-0.055,-0.125
3969,-0.015,-0.115
3970,-0.025,-0.105
3971,-0.015,-0.075
3972,0.035,-0.005
3973,0.225,0.225
3974,0.815,0.325
3975,1.365,0.195
3976,1.045,-0.265
3977,0.065,-0.735
3978,-0.495,-0.675
3979,-0.255,-0.165
3980,-0.065,-0.015
3981,-0.065,-0.045
3982,-0.075,-0.065
3983,-0.085,-0.055
3984,-0.095,-0.065
3985,-0.095,-0.075
3986,-0.095,-0.075
3987,-0.095,-0.055
3988,-0.085,-0.055
3989,-0.075,-0.055
3990,-0.075,-0.065
3991,-0.085,-0.045
3992,-0.085,-0.045
3993,-0.075,-0.045
3994,-0.095,-0.045
3995,-0.095,-0.025
3996,-0.085,-0.025
3997,-0.095,-0.035
3998,-0.075,-0.025
3999,-0.075,-0.015
4000,-0.085,-0.025
4001,-0.095,-0.015
4002,-0.095,-0.025
4003,-0.115,-0.025
4004,-0.115,-0.025
4005,-0.125,-0.055
4006,-0.105,-0.055
4007,-0.125,-0.065
4008,-0.125,-0.065
4009,-0.125,-0.085
4010,-0.085,-0.085
4011,-0.065,-0.075
4012,-0.035,-0.065
4013,-0.025,-0.075
4014,-0.015,-0.085
4015,-0.015,-0.085
4016,-0.015,-0.085
4017,-0.015,-0.095
4018,-0.025,-0.105
4019,-0.035,-0.085
4020,-0.045,-0.105
4021,-0.055,-0.115
4022,-0.035,-0.115
4023,-0.025,-0.095
4024,-0.045,-0.105
4025,-0.045,-0.105
4026,-0.025,-0.095
4027,-0.025,-0.085
4028,-0.035,-0.085
4029,-0.045,-0.095
4030,-0.015,-0.095
4031,-0.015,-0.085
4032,-0.015,-0.075
4033,-0.025,-0.085
4034,-0.005,-0.085
4035,-0.025,-0.075
4036,-0.015,-0.085
4037,-0.015,-0.085
4038,-0.015,-0.095
4039,0.005,-0.085
4040,-0.015,-0.085
4041,-0.015,-0.105
4042,-0.015,-0.095
4043,-0.015,-0.085
4044,-0.005,-0.085
4045,-0.025,-0.095
4046,-0.025,-0.115
4047,-0.005,-0.095
4048,-0.015,-0.105
4049,-0.025,-0.105
4050,-0.025,-0.105
4051,-0.025,-0.105
4052,-0.035,-0.105
4053,-0.025,-0.105
4054,-0.025,-0.105
4055,-0.015,-0.105
4056,-0.025,-0.095
4057,-0.025,-0.105
4058,-0.025,-0.105
4059,-0.015,-0.095
4060,-0.015,-0.095
4061,-0.005,-0.095
4062,-0.005,-0.075
4063,0.035,-0.055
4064,0.035,-0.055
4065,0.035,-0.055
4066,0.055,-0.065
4067,0.065,-0.075
4068,0.075,-0.075
4069,0.065,-0.085
4070,0.035,-0.105
4071,0.025,-0.095
4072,0.015,-0.095
4073,-0.055,-0.125
4074,-0.035,-0.135
4075,-0.075,-0.125
4076,-0.055,-0.135
4077,-0.075,-0.135
4078,-0.035,-0.125
4079,-0.055,-0.125
4080,-0.065,-0.115
4081,-0.065,-0.125
4082,-0.045,-0.115
4083,-0.035,-0.095
4084,-0.025,-0.095
4085,-0.015,-0.085
4086,0.025,-0.025
4087,0.185,0.225
4088,0.705,0.345
4089,1.325,0.275
4090,1.115,-0.205
4091,0.195,-0.645
4092,-0.495,-0.735
4093,-0.285,-0.205
4094,-0.075,-0.005
4095,-0.075,-0.025
4096,-0.105,-0.055
4097,-0.125,-0.065
4098,-0.105,-0.055
4099,-0.095,-0.045
4100,-0.085,-0.055
4101,-0.125,-0.065
4102,-0.095,-0.065
4103,-0.095,-0.045
4104,-0.095,-0.045
4105,-0.115,-0.045
4106,-0.085,-0.045
4107,-0.095,-0.035
4108,-0.075,-0.025
4109,-0.105,-0.035
4110,-0.085,-0.025
4111,-0.095,-0.025
4112,-0.105,-0.025
4113,-0.095,-0.025
4114,-0.075,-0.015
4115,-0.085,-0.005
4116,-0.105,-0.005
4117,-0.105,-0.015
4118,-0.095,-0.025
4119,-0.105,-0.025
4120,-0.115,-0.035
4121,-0.115,-0.055
4122,-0.135,-0.075
4123,-0.115,-0.075
4124,-0.095,-0.065
4125,-0.055,-0.065
4126,-0.025,-0.065
4127,-0.015,-0.055
4128,-0.015,-0.065
4129,-0.025,-0.075
4130,-0.025,-0.075
4131,-0.025,-0.065
4132,-0.025,-0.075
4133,-0.055,-0.095
4134,-0.025,-0.085
4135,-0.035,-0.085
4136,-0.035,-0.075
4137,-0.055,-0.095
4138,-0.025,-0.085
4139,-0.065,-0.075
4140,-0.065,-0.085
4141,-0.055,-0.095
4142,-0.015,-0.075
4143,-0.025,-0.065
4144,-0.025,-0.065
4145,-0.035,-0.065
4146,-0.035,-0.085
4147,-0.015,-0.065
4148,-0.025,-0.065
4149,-0.035,-0.075
4150,-0.035,-0.075
4151,-0.015,-0.065
4152,-0.035,-0.075
4153,-0.045,-0.095
4154,-0.055,-0.085
4155,-0.035,-0.075
4156,-0.055,-0.085
4157,-0.025,-0.085
4158,-0.015,-0.075
4159,-0.035,-0.085
4160,-0.045,-0.085
4161,-0.055,-0.095
4162,-0.055,-0.095
4163,-0.045,-0.075
4164,-0.045,-0.085
4165,-0.055,-0.095
4166,-0.045,-0.085
4167,-0.025,-0.085
4168,-0.025,-0.085
4169,-0.065,-0.095
4170,-0.055,-0.075
4171,-0.025,-0.055
4172,0.015,-0.045
4173,-0.005,-0.055
4174,0.005,-0.045
4175,0.015,-0.045
4176,0.035,-0.055
4177,0.025,-0.065
4178,0.025,-0.065
4179,0.005,-0.075
4180,-0.005,-0.075
4181,-0.015,-0.085
4182,-0.055,-0.105
4183,-0.085,-0.105
4184,-0.105,-0.115
4185,-0.095,-0.115
4186,-0.115,-0.115
4187,-0.085,-0.095
4188,-0.095,-0.095
4189,-0.105,-0.105
4190,-0.095,-0.105
4191,-0.075,-0.095
4192,-0.075,-0.075
4193,-0.055,-0.075
4194,-0.075,-0.075
4195,-0.015,-0.015
4196,0.095,0.195
4197,0.595,0.355
4198,1.265,0.335
4199,1.165,-0.175
4200,0.165,-0.645
4201,-0.535,-0.745
4202,-0.335,-0.225
4203,-0.125,-0.005
4204,-0.105,-0.005
4205,-0.145,-0.045
4206,-0.145,-0.055
4207,-0.155,-0.045
4208,-0.145,-0.035
4209,-0.155,-0.055
4210,-0.155,-0.045
4211,-0.165,-0.045
4212,-0.155,-0.035
4213,-0.165,-0.055
4214,-0.145,-0.045
4215,-0.155,-0.025
4216,-0.165,-0.035
4217,-0.155,-0.035
4218,-0.175,-0.035
4219,-0.155,-0.015
4220,-0.165,-0.015
4221,-0.175,-0.035
4222,-0.135,-0.025
4223,-0.165,-0.025
4224,-0.175,-0.025
4225,-0.185,-0.035
4226,-0.195,-0.035
4227,-0.195,-0.035
4228,-0.205,-0.045
4229,-0.225,-0.075
4230,-0.215,-0.075
4231,-0.235,-0.075
4232,-0.225,-0.085
4233,-0.195,-0.095
4234,-0.155,-0.085
4235,-0.135,-0.075
4236,-0.125,-0.085
4237,-0.105,-0.085
4238,-0.105,-0.095
4239,-0.115,-0.095
4240,-0.135,-0.085
4241,-0.125,-0.105
4242,-0.125,-0.105
4243,-0.145,-0.105
4244,-0.135,-0.105
4245,-0.155,-0.115
4246,-0.155,-0.105
4247,-0.135,-0.095
4248,-0.125,-0.095
4249,-0.145,-0.105
4250,-0.155,-0.095
4251,-0.115,-0.075
4252,-0.125,-0.085
4253,-0.115,-0.095
4254,-0.105,-0.095
4255,-0.105,-0.085
4256,-0.125,-0.085
4257,-0.115,-0.095
4258,-0.115,-0.095
4259,-0.115,-0.085
4260,-0.105,-0.095
4261,-0.125,-0.095
4262,-0.125,-0.105
4263,-0.105,-0.105
4264,-0.105,-0.095
4265,-0.125,-0.105
4266,-0.125,-0.105
4267,-0.125,-0.095
4268,-0.135,-0.105
4269,-0.135,-0.115
4270,-0.125,-0.115
4271,-0.115,-0.105
4272,-0.125,-0.105
4273,-0.135,-0.125
4274,-0.135,-0.115
4275,-0.125,-0.085
4276,-0.135,-0.115
4277,-0.125,-0.115
4278,-0.125,-0.105
4279,-0.095,-0.065
4280,-0.085,-0.065
4281,-0.065,-0.075
4282,-0.085,-0.085
4283,-0.075,-0.085
4284,-0.045,-0.075
4285,-0.045,-0.085
4286,-0.045,-0.095
4287,-0.065,-0.105
4288,-0.105,-0.115
4289,-0.105,-0.125
4290,-0.145,-0.135
4291,-0.155,-0.135
4292,-0.165,-0.145
4293,-0.175,-0.145
4294,-0.155,-0.145
4295,-0.155,-0.135
4296,-0.135,-0.125
4297,-0.155,-0.125
4298,-0.165,-0.125
4299,-0.135,-0.105
4300,-0.125,-0.105
4301,-0.105,-0.095
4302,-0.085,-0.085
4303,-0.035,0.045
4304,0.295,0.305
4305,0.995,0.435
4306,1.425,0.195
4307,0.735,-0.225
4308,-0.305,-0.825
4309,-0.625,-0.605
4310,-0.305,-0.125
4311,-0.135,-0.015
4312,-0.165,-0.055
4313,-0.175,-0.075
4314,-0.175,-0.075
4315,-0.175,-0.065
4316,-0.185,-0.065
4317,-0.195,-0.075
4318,-0.185,-0.065
4319,-0.185,-0.055
4320,-0.175,-0.055
4321,-0.195,-0.065
4322,-0.155,-0.055
4323,-0.175,-0.045
4324,-0.175,-0.045
4325,-0.185,-0.055
4326,-0.195,-0.045
4327,-0.175,-0.035
4328,-0.175,-0.025
4329,-0.185,-0.035
4330,-0.185,-0.035
4331,-0.185,-0.025
4332,-0.195,-0.025
4333,-0.215,-0.035
4334,-0.215,-0.035
4335,-0.215,-0.035
4336,-0.225,-0.055
4337,-0.235,-0.075
4338,-0.245,-0.085
4339,-0.235,-0.085
4340,-0.225,-0.095
4341,-0.195,-0.095
4342,-0.165,-0.095
4343,-0.125,-0.075
4344,-0.115,-0.075
4345,-0.105,-0.085
4346,-0.115,-0.095
4347,-0.115,-0.095
4348,-0.125,-0.095
4349,-0.145,-0.115
4350,-0.135,-0.105
4351,-0.105,-0.095
4352,-0.125,-0.105
4353,-0.145,-0.105
4354,-0.125,-0.105
4355,-0.135,-0.105
4356,-0.125,-0.105
4357,-0.135,-0.115
4358,-0.125,-0.105
4359,-0.105,-0.095
4360,-0.095,-0.095
4361,-0.115,-0.105
4362,-0.095,-0.085
4363,-0.095,-0.085
4364,-0.095,-0.095
4365,-0.105,-0.095
4366,-0.105,-0.095
4367,-0.095,-0.095
4368,-0.085,-0.095
4369,-0.105,-0.115
4370,-0.105,-0.105
4371,-0.105,-0.105
4372,-0.095,-0.095
4373,-0.095,-0.115
4374,-0.115,-0.115
4375,-0.085,-0.095
4376,-0.095,-0.105
4377,-0.095,-0.115
4378,-0.105,-0.115
4379,-0.095,-0.095
4380,-0.115,-0.105
4381,-0.095,-0.105
4382,-0.075,-0.095
4383,-0.055,-0.065
4384,-0.055,-0.065
4385,-0.035,-0.075
4386,-0.045,-0.075
4387,-0.005,-0.075
4388,0.005,-0.075
4389,0.005,-0.085
4390,-0.005,-0.105
4391,-0.035,-0.115
4392,-0.045,-0.115
4393,-0.085,-0.125
4394,-0.125,-0.135
4395,-0.145,-0.145
4396,-0.135,-0.145
4397,-0.135,-0.155
4398,-0.115,-0.145
4399,-0.135,-0.135
4400,-0.125,-0.135
4401,-0.115,-0.135
4402,-0.115,-0.125
4403,-0.095,-0.115
4404,-0.085,-0.115
4405,-0.075,-0.105
4406,-0.035,-0.055
4407,0.085,0.155
4408,0.485,0.325
4409,1.215,0.405
4410,1.325,-0.045
4411,0.495,-0.435
4412,-0.465,-0.865
4413,-0.455,-0.375
4414,-0.185,-0.055
4415,-0.105,-0.025
4416,-0.135,-0.065
4417,-0.155,-0.085
4418,-0.165,-0.085
4419,-0.145,-0.075
4420,-0.155,-0.075
4421,-0.155,-0.095
4422,-0.165,-0.085
4423,-0.155,-0.065
4424,-0.135,-0.065
4425,-0.155,-0.075
4426,-0.145,-0.065
4427,-0.155,-0.055
4428,-0.135,-0.055
4429,-0.165,-0.065
4430,-0.135,-0.055
4431,-0.135,-0.035
4432,-0.155,-0.055
4433,-0.155,-0.045
4434,-0.145,-0.035
4435,-0.165,-0.025
4436,-0.175,-0.035
4437,-0.165,-0.045
4438,-0.165,-0.045
4439,-0.175,-0.045
4440,-0.185,-0.065
4441,-0.185,-0.085
4442,-0.205,-0.095
4443,-0.175,-0.085
4444,-0.155,-0.095
4445,-0.115,-0.095
4446,-0.095,-0.095
4447,-0.085,-0.085
4448,-0.085,-0.095
4449,-0.075,-0.105
4450,-0.095,-0.115
4451,-0.085,-0.115
4452,-0.105,-0.125
4453,-0.105,-0.135
4454,-0.085,-0.125
4455,-0.105,-0.115
4456,-0.115,-0.115
4457,-0.095,-0.125
4458,-0.115,-0.125
4459,-0.115,-0.115
4460,-0.095,-0.115
4461,-0.085,-0.115
4462,-0.085,-0.105
4463,-0.095,-0.105
4464,-0.085,-0.095
4465,-0.075,-0.115
4466,-0.075,-0.105
4467,-0.075,-0.095
4468,-0.065,-0.105
4469,-0.075,-0.105
4470,-0.065,-0.105
4471,-0.065,-0.095
4472,-0.075,-0.105
4473,-0.055,-0.105
4474,-0.085,-0.115
4475,-0.075,-0.105
4476,-0.085,-0.115
4477,-0.055,-0.115
4478,-0.065,-0.115
4479,-0.075,-0.105
4480,-0.075,-0.115
4481,-0.065,-0.115
4482,-0.085,-0.115
4483,-0.085,-0.105
4484,-0.085,-0.115
4485,-0.085,-0.125
4486,-0.065,-0.115
4487,-0.075,-0.105
4488,-0.065,-0.105
4489,-0.045,-0.105
4490,-0.025,-0.075
4491,-0.015,-0.065
4492,-0.005,-0.065
4493,-0.015,-0.085
4494,0.015,-0.095
4495,0.045,-0.075
4496,0.045,-0.075
4497,-0.005,-0.115
4498,-0.035,-0.135
4499,-0.045,-0.115
4500,-0.075,-0.125
4501,-0.095,-0.145
4502,-0.115,-0.165
4503,-0.105,-0.155
4504,-0.105,-0.155
4505,-0.125,-0.145
4506,-0.105,-0.155
4507,-0.125,-0.145
4508,-0.115,-0.135
4509,-0.095,-0.135
4510,-0.075,-0.125
4511,-0.055,-0.115
4512,-0.055,-0.105
4513,-0.035,-0.085
4514,0.055,0.055
4515,0.335,0.285
4516,1.025,0.385
4517,1.385,-0.005
4518,0.665,-0.395
4519,-0.305,-0.865
4520,-0.465,-0.465
4521,-0.215,-0.065
4522,-0.105,-0.025
4523,-0.115,-0.055
4524,-0.145,-0.065
4525,-0.145,-0.065
4526,-0.165,-0.085
4527,-0.135,-0.065
4528,-0.145,-0.065
4529,-0.135,-0.065
4530,-0.145,-0.065
4531,-0.145,-0.055
4532,-0.135,-0.055
4533,-0.145,-0.055
4534,-0.145,-0.055
4535,-0.135,-0.035
4536,-0.125,-0.035
4537,-0.125,-0.025
4538,-0.145,-0.045
4539,-0.155,-0.035
4540,-0.125,-0.025
4541,-0.145,-0.025
4542,-0.145,-0.025
4543,-0.145,-0.015
4544,-0.155,-0.015
4545,-0.165,-0.035
4546,-0.155,-0.035
4547,-0.195,-0.045
4548,-0.175,-0.065
4549,-0.195,-0.075
4550,-0.165,-0.085
4551,-0.115,-0.075
4552,-0.125,-0.075
4553,-0.095,-0.085
4554,-0.055,-0.085
4555,-0.065,-0.075
4556,-0.065,-0.085
4557,-0.075,-0.105
4558,-0.075,-0.095
4559,-0.085,-0.095
4560,-0.095,-0.105
4561,-0.085,-0.105
4562,-0.115,-0.105
4563,-0.105,-0.105
4564,-0.105,-0.095
4565,-0.095,-0.105
4566,-0.105,-0.105
4567,-0.095,-0.095
4568,-0.105,-0.095
4569,-0.085,-0.095
4570,-0.085,-0.095
4571,-0.075,-0.085
4572,-0.095,-0.085
4573,-0.065,-0.085
4574,-0.065,-0.095
4575,-0.055,-0.085
4576,-0.065,-0.085
4577,-0.065,-0.095
4578,-0.085,-0.095
4579,-0.075,-0.095
4580,-0.075,-0.095
4581,-0.075,-0.095
4582,-0.065,-0.095
4583,-0.075,-0.095
4584,-0.085,-0.105
4585,-0.075,-0.105
4586,-0.095,-0.115
4587,-0.075,-0.105
4588,-0.085,-0.105
4589,-0.095,-0.105
4590,-0.075,-0.105
4591,-0.085,-0.105
4592,-0.085,-0.105
4593,-0.085,-0.115
4594,-0.095,-0.105
4595,-0.095,-0.105
4596,-0.095,-0.095
4597,-0.075,-0.095
4598,-0.035,-0.065
4599,-0.025,-0.055
4600,-0.035,-0.065
4601,-0.015,-0.075
4602,-0.025,-0.085
4603,0.015,-0.065
4604,0.015,-0.075
4605,-0.015,-0.105
4606,-0.035,-0.115
4607,-0.025,-0.105
4608,-0.095,-0.125
4609,-0.105,-0.135
4610,-0.145,-0.145
4611,-0.145,-0.135
4612,-0.135,-0.135
4613,-0.125,-0.135
4614,-0.125,-0.145
4615,-0.125,-0.135
4616,-0.125,-0.125
4617,-0.105,-0.125
4618,-0.115,-0.115
4619,-0.115,-0.105
4620,-0.075,-0.095
4621,-0.065,-0.085
4622,0.005,0.025
4623,0.285,0.305
4624,0.945,0.395
4625,1.375,0.155
4626,0.765,-0.275
4627,-0.215,-0.795
4628,-0.595,-0.645
4629,-0.295,-0.145
4630,-0.145,-0.025
4631,-0.115,-0.035
4632,-0.135,-0.065
4633,-0.165,-0.075
4634,-0.165,-0.075
4635,-0.155,-0.065
4636,-0.175,-0.075
4637,-0.155,-0.085
4638,-0.195,-0.075
4639,-0.135,-0.055
4640,-0.145,-0.045
4641,-0.125,-0.055
4642,-0.135,-0.045
4643,-0.135,-0.035
4644,-0.155,-0.035
4645,-0.145,-0.045
4646,-0.135,-0.045
4647,-0.125,-0.025
4648,-0.135,-0.035
4649,-0.145,-0.025
4650,-0.135,-0.025
4651,-0.165,-0.015
4652,-0.145,-0.025
4653,-0.165,-0.035
4654,-0.155,-0.045
4655,-0.155,-0.045
4656,-0.175,-0.065
4657,-0.185,-0.075
4658,-0.175,-0.085
4659,-0.145,-0.075
4660,-0.115,-0.075
4661,-0.105,-0.075
4662,-0.065,-0.065
4663,-0.045,-0.055
4664,-0.075,-0.065
4665,-0.075,-0.085
4666,-0.095,-0.095
4667,-0.065,-0.085
4668,-0.085,-0.085
4669,-0.085,-0.085
4670,-0.075,-0.095
4671,-0.075,-0.085
4672,-0.075,-0.085
4673,-0.105,-0.095
4674,-0.095,-0.095
4675,-0.075,-0.075
4676,-0.075,-0.075
4677,-0.075,-0.085
4678,-0.085,-0.085
4679,-0.055,-0.065
4680,-0.045,-0.065
4681,-0.065,-0.075
4682,-0.055,-0.075
4683,-0.065,-0.075
4684,-0.055,-0.065
4685,-0.055,-0.085
4686,-0.035,-0.075
4687,-0.055,-0.075
4688,-0.055,-0.085
4689,-0.045,-0.085
4690,-0.055,-0.085
4691,-0.065,-0.075
4692,-0.065,-0.085
4693,-0.045,-0.085
4694,-0.055,-0.085
4695,-0.045,-0.075
4696,-0.055,-0.085
4697,-0.065,-0.085
4698,-0.055,-0.085
4699,-0.035,-0.075
4700,-0.055,-0.085
4701,-0.055,-0.095
4702,-0.055,-0.085
4703,-0.035,-0.075
4704,-0.055,-0.085
4705,-0.045,-0.075
4706,-0.025,-0.055
4707,0.015,-0.025
4708,0.015,-0.025
4709,0.025,-0.045
4710,0.035,-0.055
4711,0.055,-0.045
4712,0.045,-0.045
4713,0.045,-0.065
4714,0.015,-0.075
4715,0.005,-0.065
4716,-0.015,-0.075
4717,-0.075,-0.105
4718,-0.055,-0.105
4719,-0.075,-0.105
4720,-0.075,-0.105
4721,-0.075,-0.105
4722,-0.085,-0.105
4723,-0.075,-0.085
4724,-0.055,-0.095
4725,-0.065,-0.105
4726,-0.045,-0.085
4727,-0.035,-0.075
4728,-0.035,-0.075
4729,-0.015,-0.055
4730,0.015,-0.005
4731,0.205,0.235
4732,0.735,0.365
4733,1.335,0.285
4734,1.025,-0.215
4735,0.095,-0.645
4736,-0.475,-0.685
4737,-0.255,-0.175
4738,-0.085,0.015
4739,-0.075,-0.005
4740,-0.095,-0.025
4741,-0.105,-0.045
4742,-0.085,-0.045
4743,-0.095,-0.035
4744,-0.105,-0.035
4745,-0.095,-0.035
4746,-0.105,-0.025
4747,-0.105,-0.025
4748,-0.085,-0.025
4749,-0.085,-0.025
4750,-0.075,-0.015
4751,-0.105,-0.015
4752,-0.095,-0.005
4753,-0.095,-0.015
4754,-0.095,-0.005
4755,-0.095,0.005
4756,-0.095,0.005
4757,-0.085,-0.005
4758,-0.095,-0.005
4759,-0.095,0.005
4760,-0.105,0.005
4761,-0.105,-0.005
4762,-0.125,-0.015
4763,-0.125,-0.015
4764,-0.135,-0.035
4765,-0.135,-0.055
4766,-0.115,-0.055
4767,-0.095,-0.055
4768,-0.085,-0.055
4769,-0.075,-0.055
4770,-0.045,-0.045
4771,-0.015,-0.035
4772,-0.025,-0.045
4773,-0.045,-0.065
4774,-0.025,-0.065
4775,-0.025,-0.065
4776,-0.045,-0.075
4777,-0.065,-0.085
4778,-0.065,-0.085
4779,-0.045,-0.075
4780,-0.045,-0.085
4781,-0.055,-0.085
4782,-0.045,-0.085
4783,-0.045,-0.075
4784,-0.055,-0.075
4785,-0.045,-0.075
4786,-0.045,-0.075
4787,-0.055,-0.065
4788,-0.045,-0.065
4789,-0.025,-0.065
4790,-0.015,-0.065
4791,-0.025,-0.065
4792,-0.025,-0.065
4793,-0.045,-0.075
4794,-0.025,-0.075
4795,-0.005,-0.055
4796,-0.015,-0.075
4797,-0.015,-0.085
4798,-0.025,-0.085
4799,-0.025,-0.075
4800,-0.025,-0.085
4801,-0.025,-0.085
4802,-0.035,-0.095
4803,-0.015,-0.075
4804,-0.035,-0.095
4805,-0.025,-0.095
4806,-0.025,-0.095
4807,-0.015,-0.085
4808,-0.035,-0.085
4809,-0.015,-0.105
4810,-0.025,-0.085
4811,-0.015,-0.085
4812,-0.015,-0.095
4813,-0.025,-0.105
4814,-0.005,-0.085
4815,0.015,-0.055
4816,0.025,-0.055
4817,0.025,-0.065
4818,0.035,-0.055
4819,0.045,-0.055
4820,0.075,-0.065
4821,0.065,-0.075
4822,0.085,-0.065
4823,0.065,-0.075
4824,0.025,-0.095
4825,0.005,-0.105
4826,-0.025,-0.115
4827,-0.025,-0.125
4828,-0.045,-0.125
4829,-0.045,-0.125
4830,-0.045,-0.115
4831,-0.035,-0.115
4832,-0.045,-0.115
4833,-0.035,-0.115
4834,-0.035,-0.105
4835,-0.015,-0.095
4836,-0.005,-0.095
4837,0.005,-0.095
4838,0.025,-0.075
4839,0.055,0.005
4840,0.285,0.245
4841,0.955,0.395
4842,1.495,0.305
4843,1.085,-0.105
4844,0.105,-0.625
4845,-0.525,-0.755
4846,-0.255,-0.235
4847,-0.065,-0.015
4848,-0.035,-0.025
4849,-0.055,-0.055
4850,-0.075,-0.065
4851,-0.055,-0.055
4852,-0.095,-0.065
4853,-0.075,-0.055
4854,-0.045,-0.055
4855,-0.065,-0.055
4856,-0.075,-0.055
4857,-0.065,-0.055
4858,-0.065,-0.045
4859,-0.055,-0.035
4860,-0.075,-0.045
4861,-0.055,-0.045
4862,-0.075,-0.045
4863,-0.055,-0.025
4864,-0.085,-0.035
4865,-0.075,-0.035
4866,-0.065,-0.025
4867,-0.075,-0.025
4868,-0.085,-0.025
4869,-0.065,-0.025
4870,-0.095,-0.035
4871,-0.085,-0.025
4872,-0.095,-0.045
4873,-0.105,-0.065
4874,-0.115,-0.075
4875,-0.115,-0.075
4876,-0.085,-0.075
4877,-0.075,-0.085
4878,-0.035,-0.085
4879,-0.005,-0.065
4880,-0.005,-0.075
4881,0.005,-0.085
4882,0.005,-0.085
4883,-0.015,-0.085
4884,-0.015,-0.095
4885,-0.015,-0.095
4886,-0.015,-0.105
4887,-0.035,-0.105
4888,-0.015,-0.105
4889,-0.015,-0.105
4890,-0.055,-0.105
4891,-0.025,-0.095
4892,-0.015,-0.105
4893,-0.015,-0.105
4894,-0.015,-0.095
4895,-0.005,-0.085
4896,-0.005,-0.095
4897,0.005,-0.095
4898,-0.005,-0.095
4899,-0.015,-0.085
4900,0.025,-0.085
4901,0.015,-0.095
4902,0.025,-0.095
4903,0.025,-0.085
4904,0.015,-0.085
4905,0.025,-0.095
4906,0.005,-0.105
4907,0.015,-0.085
4908,0.015,-0.095
4909,0.005,-0.105
4910,0.005,-0.105
4911,0.005,-0.095
4912,0.005,-0.105
4913,0.005,-0.105
4914,0.005,-0.105
4915,0.015,-0.095
4916,0.005,-0.105
4917,0.005,-0.115
4918,0.015,-0.105
4919,0.015,-0.105
4920,0.015,-0.095
4921,0.005,-0.115
4922,0.005,-0.105
4923,0.025,-0.095
4924,0.015,-0.085
4925,0.055,-0.075
4926,0.065,-0.065
4927,0.085,-0.055
4928,0.075,-0.055
4929,0.095,-0.085
4930,0.105,-0.075
4931,0.115,-0.075
4932,0.095,-0.085
4933,0.025,-0.125
4934,0.055,-0.115
4935,0.045,-0.095
4936,-0.005,-0.115
4937,-0.035,-0.145
4938,-0.025,-0.145
4939,-0.035,-0.125
4940,-0.025,-0.135
4941,-0.035,-0.135
4942,-0.025,-0.135
4943,-0.015,-0.115
4944,-0.015,-0.115
4945,-0.015,-0.125
4946,-0.005,-0.115
4947,0.025,-0.085
4948,0.025,-0.085
4949,0.055,-0.045
4950,0.195,0.185
4951,0.735,0.335
4952,1.405,0.325
4953,1.255,-0.155
4954,0.345,-0.575
4955,-0.485,-0.765
4956,-0.285,-0.255
4957,-0.045,-0.025
4958,-0.035,-0.035
4959,-0.035,-0.045
4960,-0.065,-0.065
4961,-0.045,-0.075
4962,-0.055,-0.065
4963,-0.045,-0.055
4964,-0.045,-0.055
4965,-0.065,-0.065
4966,-0.065,-0.065
4967,-0.045,-0.055
4968,-0.025,-0.035
4969,-0.055,-0.045
4970,-0.055,-0.045
4971,-0.055,-0.035
4972,-0.035,-0.025
4973,-0.065,-0.045
4974,-0.035,-0.035
4975,-0.035,-0.015
4976,-0.055,-0.015
4977,-0.065,-0.025
4978,-0.055,-0.015
4979,-0.045,0.005
4980,-0.065,-0.015
4981,-0.075,-0.025
4982,-0.075,-0.035
4983,-0.085,-0.045
4984,-0.115,-0.055
4985,-0.075,-0.075
4986,-0.075,-0.075
4987,-0.055,-0.065
4988,-0.035,-0.065
4989,-0.025,-0.075
4990,0.015,-0.075
4991,0.025,-0.065
4992,0.005,-0.075
4993,-0.025,-0.095
4994,-0.025,-0.095
4995,-0.025,-0.085
4996,-0.025,-0.085
4997,-0.055,-0.105
4998,-0.015,-0.105
4999,-0.035,-0.095
5000,-0.025,-0.095
5001,-0.055,-0.105
5002,-0.045,-0.095
5003,-0.045,-0.095
5004,-0.035,-0.085
5005,-0.035,-0.095
5006,-0.035,-0.075
5007,-0.015,-0.085
5008,-0.025,-0.085
5009,-0.025,-0.085
5010,-0.025,-0.075
5011,-0.015,-0.075
5012,-0.025,-0.085
5013,-0.025,-0.085
5014,-0.015,-0.095
5015,-0.025,-0.085
5016,-0.025,-0.085
5017,-0.015,-0.105
5018,-0.045,-0.095
5019,-0.025,-0.085
5020,-0.035,-0.095
5021,-0.035,-0.105
5022,-0.025,-0.095
5023,-0.015,-0.095
5024,-0.025,-0.095
5025,-0.015,-0.095
5026,-0.045,-0.105
5027,-0.035,-0.095
5028,-0.035,-0.105
5029,-0.025,-0.095
5030,-0.035,-0.105
5031,-0.035,-0.095
5032,-0.025,-0.095
5033,-0.035,-0.105
5034,-0.045,-0.105
5035,-0.035,-0.085
5036,-0.015,-0.085
5037,-0.005,-0.075
5038,0.025,-0.055
5039,0.015,-0.055
5040,0.025,-0.055
5041,0.045,-0.075
5042,0.055,-0.075
5043,0.045,-0.075
5044,0.045,-0.085
5045,0.035,-0.095
5046,0.015,-0.105
5047,0.005,-0.095
5048,-0.035,-0.115
5049,-0.045,-0.135
5050,-0.065,-0.135
5051,-0.055,-0.115
5052,-0.065,-0.125
5053,-0.055,-0.125
5054,-0.055,-0.125
5055,-0.045,-0.105
5056,-0.065,-0.115
5057,-0.055,-0.115
5058,-0.045,-0.115
5059,-0.025,-0.085
5060,-0.025,-0.075
5061,0.005,-0.055
5062,0.105,0.145
5063,0.475,0.315
5064,1.055,0.315
5065,1.115,-0.235
5066,0.305,-0.635
5067,-0.395,-0.825
5068,-0.325,-0.285
5069,-0.115,-0.015
5070,-0.065,-0.025
5071,-0.085,-0.045
5072,-0.095,-0.055
5073,-0.125,-0.065
5074,-0.115,-0.065
5075,-0.095,-0.045
5076,-0.115,-0.055
5077,-0.115,-0.055
5078,-0.095,-0.045
5079,-0.075,-0.045
5080,-0.115,-0.055
5081,-0.125,-0.055
5082,-0.115,-0.055
5083,-0.115,-0.035
5084,-0.105,-0.035
5085,-0.115,-0.045
5086,-0.115,-0.035
5087,-0.105,-0.025
5088,-0.115,-0.025
5089,-0.115,-0.025
5090,-0.135,-0.025
5091,-0.135,-0.025
5092,-0.145,-0.025
5093,-0.155,-0.045
5094,-0.135,-0.045
5095,-0.155,-0.045
5096,-0.135,-0.055
5097,-0.155,-0.085
5098,-0.135,-0.075
5099,-0.115,-0.065
5100,-0.095,-0.065
5101,-0.075,-0.075
5102,-0.045,-0.065
5103,-0.035,-0.065
5104,-0.065,-0.085
5105,-0.065,-0.085
5106,-0.095,-0.085
5107,-0.065,-0.075
5108,-0.075,-0.095
5109,-0.085,-0.105
5110,-0.075,-0.095
5111,-0.065,-0.085
5112,-0.085,-0.105
5113,-0.075,-0.105
5114,-0.105,-0.095
5115,-0.075,-0.085
5116,-0.095,-0.085
5117,-0.045,-0.085
5118,-0.075,-0.085
5119,-0.045,-0.075
5120,-0.055,-0.075
5121,-0.055,-0.085
5122,-0.065,-0.085
5123,-0.065,-0.075
5124,-0.055,-0.075
5125,-0.045,-0.085
5126,-0.025,-0.075
5127,-0.045,-0.075
5128,-0.055,-0.085
5129,-0.065,-0.085
5130,-0.045,-0.075
5131,-0.045,-0.075
5132,-0.045,-0.085
5133,-0.065,-0.095
5134,-0.055,-0.085
5135,-0.055,-0.085
5136,-0.055,-0.085
5137,-0.065,-0.085
5138,-0.055,-0.095
5139,-0.055,-0.085
5140,-0.045,-0.085
5141,-0.055,-0.095
5142,-0.055,-0.095
5143,-0.055,-0.075
5144,-0.055,-0.075
5145,-0.025,-0.075
5146,-0.045,-0.075
5147,-0.015,-0.035
5148,0.005,-0.035
5149,-0.005,-0.045
5150,0.005,-0.065
5151,0.045,-0.045
5152,0.045,-0.045
5153,0.035,-0.055
5154,0.015,-0.075
5155,-0.015,-0.075
5156,-0.025,-0.075
5157,-0.055,-0.095
5158,-0.085,-0.105
5159,-0.085,-0.105
5160,-0.105,-0.105
5161,-0.095,-0.105
5162,-0.075,-0.105
5163,-0.085,-0.105
5164,-0.105,-0.095
5165,-0.095,-0.105
5166,-0.085,-0.095
5167,-0.065,-0.085
5168,-0.065,-0.075
5169,-0.045,-0.075
5170,-0.035,-0.035
5171,0.045,0.125
5172,0.385,0.325
5173,1.135,0.405
5174,1.335,-0.015
5175,0.445,-0.435
5176,-0.495,-0.745
5177,-0.385,-0.275
5178,-0.125,-0.015
5179,-0.085,-0.005
5180,-0.115,-0.035
5181,-0.135,-0.045
5182,-0.145,-0.045
5183,-0.115,-0.035
5184,-0.145,-0.035
5185,-0.125,-0.045
5186,-0.125,-0.035
5187,-0.135,-0.025
5188,-0.125,-0.025
5189,-0.135,-0.035
5190,-0.125,-0.025
5191,-0.125,-0.015
5192,-0.115,-0.015
5193,-0.135,-0.015
5194,-0.115,-0.015
5195,-0.125,-0.005
5196,-0.125,0.005
5197,-0.135,0.005
5198,-0.115,0.005
5199,-0.125,0.015
5200,-0.145,0.005
5201,-0.175,-0.005
5202,-0.145,-0.005
5203,-0.155,-0.005
5204,-0.155,-0.015
5205,-0.155,-0.025
5206,-0.165,-0.035
5207,-0.135,-0.025
5208,-0.135,-0.025
5209,-0.105,-0.025
5210,-0.085,-0.035
5211,-0.075,-0.025
5212,-0.055,-0.025
5213,-0.085,-0.055
5214,-0.085,-0.055
5215,-0.085,-0.055
5216,-0.075,-0.055
5217,-0.095,-0.065
5218,-0.085,-0.065
5219,-0.105,-0.055
5220,-0.085,-0.055
5221,-0.095,-0.075
5222,-0.085,-0.065
5223,-0.095,-0.055
5224,-0.095,-0.065
5225,-0.095,-0.075
5226,-0.095,-0.055
5227,-0.075,-0.055
5228,-0.075,-0.055
5229,-0.075,-0.055
5230,-0.065,-0.065
5231,-0.045,-0.055
5232,-0.055,-0.065
5233,-0.075,-0.065
5234,-0.055,-0.065
5235,-0.045,-0.055
5236,-0.055,-0.065
5237,-0.055,-0.085
5238,-0.055,-0.085
5239,-0.065,-0.075
5240,-0.055,-0.085
5241,-0.055,-0.085
5242,-0.075,-0.085
5243,-0.055,-0.075
5244,-0.045,-0.075
5245,-0.055,-0.095
5246,-0.045,-0.085
5247,-0.055,-0.085
5248,-0.055,-0.085
5249,-0.055,-0.085
5250,-0.055,-0.085
5251,-0.055,-0.075
5252,-0.055,-0.085
5253,-0.075,-0.095
5254,-0.065,-0.095
5255,-0.055,-0.085
5256,-0.055,-0.075
5257,-0.035,-0.065
5258,-0.005,-0.045
5259,-0.005,-0.035
5260,0.005,-0.035
5261,0.015,-0.055
5262,0.005,-0.065
5263,0.035,-0.055
5264,0.045,-0.055
5265,0.015,-0.075
5266,-0.005,-0.095
5267,-0.015,-0.075
5268,-0.055,-0.105
5269,-0.095,-0.115
5270,-0.115,-0.125
5271,-0.085,-0.115
5272,-0.105,-0.115
5273,-0.105,-0.125
5274,-0.085,-0.125
5275,-0.105,-0.115
5276,-0.095,-0.105
5277,-0.105,-0.115
5278,-0.085,-0.105
5279,-0.055,-0.085
5280,-0.045,-0.075
5281,-0.035,-0.055
5282,0.035,0.075
5283,0.325,0.295
5284,1.015,0.375
5285,1.345,-0.015
5286,0.605,-0.415
5287,-0.355,-0.795
5288,-0.445,-0.375
5289,-0.185,-0.045
5290,-0.115,-0.015
5291,-0.145,-0.035
5292,-0.145,-0.045
5293,-0.145,-0.055
5294,-0.145,-0.055
5295,-0.145,-0.055
5296,-0.155,-0.055
5297,-0.165,-0.055
5298,-0.155,-0.055
5299,-0.155,-0.035
5300,-0.135,-0.035
5301,-0.155,-0.045
5302,-0.145,-0.045
5303,-0.135,-0.025
5304,-0.135,-0.025
5305,-0.145,-0.035
5306,-0.165,-0.035
5307,-0.155,-0.015
5308,-0.145,-0.015
5309,-0.145,-0.015
5310,-0.145,-0.015
5311,-0.145,-0.005
5312,-0.135,-0.015
5313,-0.165,-0.035
5314,-0.165,-0.035
5315,-0.185,-0.045
5316,-0.165,-0.065
5317,-0.175,-0.075
5318,-0.165,-0.085
5319,-0.125,-0.085
5320,-0.105,-0.085
5321,-0.095,-0.095
5322,-0.075,-0.085
5323,-0.085,-0.085
5324,-0.055,-0.095
5325,-0.095,-0.115
5326,-0.065,-0.105
5327,-0.095,-0.115
5328,-0.095,-0.115
5329,-0.085,-0.125
5330,-0.135,-0.115
5331,-0.095,-0.105
5332,-0.085,-0.125
5333,-0.115,-0.125
5334,-0.145,-0.135
5335,-0.095,-0.105
5336,-0.125,-0.125
5337,-0.105,-0.125
5338,-0.095,-0.115
5339,-0.125,-0.095
5340,-0.095,-0.105
5341,-0.085,-0.115
5342,-0.055,-0.125
5343,-0.095,-0.095
5344,-0.085,-0.105
5345,-0.105,-0.115
5346,-0.095,-0.115
5347,-0.095,-0.115
5348,-0.075,-0.115
5349,-0.065,-0.115
5350,-0.085,-0.135
5351,-0.075,-0.115
5352,-0.065,-0.125
5353,-0.075,-0.145
5354,-0.095,-0.125
5355,-0.105,-0.105
5356,-0.065,-0.125
5357,-0.115,-0.135
5358,-0.065,-0.125
5359,-0.085,-0.105
5360,-0.085,-0.115
5361,-0.065,-0.115
5362,-0.065,-0.095
5363,-0.035,-0.075
5364,-0.005,-0.075
5365,0.005,-0.095
5366,0.005,-0.095
5367,0.005,-0.085
5368,0.035,-0.085
5369,0.055,-0.085
5370,0.015,-0.105
5371,-0.005,-0.115
5372,-0.015,-0.115
5373,-0.065,-0.135
5374,-0.095,-0.145
5375,-0.095,-0.145
5376,-0.115,-0.145
5377,-0.105,-0.145
5378,-0.105,-0.145
5379,-0.085,-0.125
5380,-0.125,-0.135
5381,-0.095,-0.135
5382,-0.065,-0.135
5383,-0.075,-0.105
5384,-0.075,-0.115
5385,-0.065,-0.105
5386,-0.055,-0.045
5387,0.085,0.195
5388,0.645,0.345
5389,1.395,0.365
5390,1.385,-0.045
5391,0.315,-0.555
5392,-0.595,-0.775
5393,-0.385,-0.235
5394,-0.155,-0.035
5395,-0.115,-0.035
5396,-0.155,-0.075
5397,-0.165,-0.085
5398,-0.165,-0.075
5399,-0.145,-0.075
5400,-0.165,-0.085
5401,-0.135,-0.075
5402,-0.185,-0.075
5403,-0.175,-0.065
5404,-0.165,-0.055
5405,-0.155,-0.065
5406,-0.145,-0.055
5407,-0.165,-0.065
5408,-0.175,-0.055
5409,-0.165,-0.035
5410,-0.155,-0.045
5411,-0.165,-0.035
5412,-0.155,-0.025
5413,-0.165,-0.035
5414,-0.145,-0.035
5415,-0.165,-0.025
5416,-0.175,-0.025
5417,-0.155,-0.025
5418,-0.135,-0.045
5419,-0.175,-0.035
5420,-0.235,-0.045
5421,-0.235,-0.065
5422,-0.205,-0.065
5423,-0.185,-0.075
5424,-0.135,-0.075
5425,-0.075,-0.115
5426,0.005,-0.115
5427,-0.155,-0.075
5428,-0.205,-0.085
5429,-0.145,-0.125
5430,-0.155,-0.135
5431,-0.135,-0.135
5432,-0.115,-0.145
5433,-0.125,-0.145
5434,-0.135,-0.135
5435,-0.145,-0.135
5436,-0.135,-0.135
5437,-0.155,-0.135
5438,-0.155,-0.135
5439,-0.155,-0.135
5440,-0.105,-0.115
5441,-0.135,-0.125
5442,-0.075,-0.125
5443,-0.155,-0.105
5444,-0.165,-0.105
5445,-0.105,-0.125
5446,-0.115,-0.105
5447,-0.075,-0.105
5448,-0.075,-0.115
5449,-0.075,-0.115
5450,-0.115,-0.115
5451,-0.105,-0.095
5452,-0.085,-0.095
5453,-0.095,-0.125
5454,-0.075,-0.135
5455,-0.115,-0.105
5456,-0.105,-0.125
5457,-0.095,-0.125
5458,-0.065,-0.125
5459,-0.105,-0.105
5460,-0.135,-0.125
5461,-0.075,-0.135
5462,-0.135,-0.105
5463,-0.095,-0.115
5464,-0.095,-0.135
5465,-0.085,-0.125
5466,-0.055,-0.095
5467,-0.045,-0.075
5468,0.005,-0.085
5469,-0.005,-0.085
5470,-0.025,-0.085
5471,0.035,-0.065
5472,0.025,-0.085
5473,0.045,-0.095
5474,0.025,-0.115
5475,-0.065,-0.095
5476,-0.095,-0.125
5477,-0.135,-0.155
5478,-0.135,-0.155
5479,-0.135,-0.145
5480,-0.115,-0.135
5481,-0.135,-0.155
5482,-0.105,-0.145
5483,-0.135,-0.135
5484,-0.125,-0.135
5485,-0.095,-0.145
5486,-0.115,-0.135
5487,-0.045,-0.105
5488,-0.085,-0.105
5489,-0.075,-0.095
5490,-0.065,-0.035
5491,0.115,0.235
5492,0.715,0.375
5493,1.385,0.225
5494,1.075,-0.195
5495,-0.055,-0.725
5496,-0.555,-0.595
5497,-0.245,-0.135
5498,-0.135,-0.015
5499,-0.155,-0.035
5500,-0.175,-0.055
5501,-0.175,-0.065
5502,-0.155,-0.075
5503,-0.105,-0.055
5504,-0.135,-0.065
5505,-0.115,-0.065
5506,-0.175,-0.065
5507,-0.165,-0.055
5508,-0.125,-0.055
5509,-0.145,-0.055
5510,-0.145,-0.045
5511,-0.135,-0.035
5512,-0.135,-0.035
5513,-0.155,-0.045
5514,-0.165,-0.035
5515,-0.175,-0.025
5516,-0.135,-0.035
5517,-0.145,-0.025
5518,-0.185,-0.025
5519,-0.135,-0.005
5520,-0.165,-0.025
5521,-0.155,-0.035
5522,-0.185,-0.045
5523,-0.195,-0.045
5524,-0.145,-0.065
5525,-0.185,-0.065
5526,-0.225,-0.085
5527,-0.155,-0.065
5528,-0.125,-0.075
5529,-0.095,-0.085
5530,-0.055,-0.085
5531,-0.065,-0.065
5532,-0.075,-0.085
5533,-0.065,-0.115
5534,-0.065,-0.115
5535,-0.085,-0.105
5536,-0.125,-0.115
5537,-0.095,-0.125
5538,-0.135,-0.105
5539,-0.145,-0.105
5540,-0.125,-0.115
5541,-0.115,-0.135
5542,-0.105,-0.115
5543,-0.065,-0.105
5544,-0.105,-0.105
5545,-0.075,-0.115
5546,-0.115,-0.105
5547,-0.095,-0.105
5548,-0.095,-0.095
5549,-0.105,-0.105
5550,-0.105,-0.105
5551,-0.055,-0.085
5552,-0.055,-0.095
5553,-0.045,-0.105
5554,-0.065,-0.105
5555,-0.085,-0.095
5556,-0.095,-0.115
5557,-0.055,-0.105
5558,-0.105,-0.095
5559,-0.085,-0.105
5560,-0.065,-0.105
5561,-0.095,-0.115
5562,-0.035,-0.115
5563,-0.055,-0.105
5564,-0.095,-0.105
5565,-0.095,-0.095
5566,-0.075,-0.115
5567,-0.085,-0.105
5568,-0.085,-0.095
5569,-0.075,-0.095
5570,-0.035,-0.075
5571,0.025,-0.065
5572,-0.025,-0.055
5573,-0.045,-0.085
5574,-0.005,-0.075
5575,0.055,-0.085
5576,0.065,-0.065
5577,0.045,-0.075
5578,0.025,-0.105
5579,-0.055,-0.105
5580,-0.045,-0.115
5581,-0.075,-0.135
5582,-0.095,-0.145
5583,-0.095,-0.145
5584,-0.075,-0.125
5585,-0.135,-0.145
5586,-0.095,-0.145
5587,-0.085,-0.115
5588,-0.135,-0.125
5589,-0.075,-0.135
5590,-0.105,-0.115
5591,-0.055,-0.105
5592,-0.015,-0.095
5593,-0.015,-0.065
5594,0.005,0.085
5595,0.465,0.345
5596,1.285,0.505
5597,1.495,0.115
5598,0.575,-0.365
5599,-0.545,-0.895
5600,-0.565,-0.445
5601,-0.255,-0.095
5602,-0.115,-0.025
5603,-0.135,-0.045
5604,-0.125,-0.065
5605,-0.125,-0.095
5606,-0.085,-0.085
5607,-0.155,-0.065
5608,-0.145,-0.075
5609,-0.155,-0.045
5610,-0.185,-0.055
5611,-0.165,-0.065
5612,-0.145,-0.075
5613,-0.125,-0.075
5614,-0.155,-0.065
5615,-0.115,-0.045
5616,-0.115,-0.045
5617,-0.155,-0.045
5618,-0.145,-0.045
5619,-0.145,-0.015
5620,-0.145,-0.045
5621,-0.145,-0.025
5622,-0.135,-0.035
5623,-0.135,-0.025
5624,-0.165,-0.025
5625,-0.165,-0.015
5626,-0.195,-0.045
5627,-0.205,-0.045
5628,-0.175,-0.055
5629,-0.175,-0.065
5630,-0.145,-0.075
5631,-0.145,-0.065
5632,-0.075,-0.075
5633,-0.095,-0.065
5634,-0.065,-0.065
5635,0.015,-0.065
5636,-0.075,-0.085
5637,-0.115,-0.115
5638,-0.115,-0.095
5639,-0.075,-0.105
5640,-0.085,-0.115
5641,-0.085,-0.115
5642,-0.045,-0.115
5643,-0.195,-0.105
5644,-0.045,-0.065
5645,-0.075,-0.095
5646,-0.115,-0.095
5647,-0.065,-0.095
5648,-0.085,-0.085
5649,-0.075,-0.095
5650,-0.025,-0.085
5651,-0.115,-0.075
5652,-0.025,-0.085
5653,-0.065,-0.095
5654,-0.055,-0.085
5655,-0.035,-0.075
5656,-0.055,-0.085
5657,-0.055,-0.085
5658,-0.065,-0.085
5659,-0.045,-0.065
5660,-0.025,-0.075
5661,-0.055,-0.095
5662,-0.035,-0.095
5663,-0.015,-0.075
5664,-0.015,-0.075
5665,-0.005,-0.095
5666,-0.005,-0.095
5667,-0.075,-0.065
5668,-0.055,-0.075
5669,-0.065,-0.085
5670,-0.035,-0.075
5671,-0.015,-0.045
5672,0.035,-0.035
5673,0.045,-0.055
5674,0.055,-0.045
5675,0.065,-0.045
5676,0.075,-0.045
5677,0.115,-0.045
5678,0.105,-0.035
5679,0.025,-0.085
5680,0.035,-0.095
5681,-0.045,-0.105
5682,-0.055,-0.115
5683,-0.065,-0.105
5684,-0.085,-0.105
5685,-0.065,-0.115
5686,-0.065,-0.105
5687,-0.075,-0.105
5688,-0.075,-0.105
5689,-0.045,-0.115
5690,-0.055,-0.115
5691,-0.055,-0.095
5692,-0.025,-0.075
5693,-0.035,-0.085
5694,0.035,-0.055
5695,-0.005,0.065
5696,0.255,0.305
5697,1.055,0.445
5698,1.715,0.245
5699,1.185,-0.065
5700,-0.085,-0.715
5701,-0.535,-0.445
5702,-0.185,-0.055
5703,-0.075,-0.005
5704,-0.055,-0.015
5705,-0.045,-0.065
5706,-0.135,-0.045
5707,-0.165,-0.035
5708,-0.125,-0.035
5709,-0.105,-0.035
5710,-0.075,-0.025
5711,-0.085,-0.045
5712,-0.095,-0.035
5713,-0.105,-0.055
5714,-0.115,-0.035
5715,-0.085,-0.015
5716,-0.105,-0.005
5717,-0.095,-0.015
5718,-0.075,-0.025
5719,-0.095,-0.005
5720,-0.065,-0.005
5721,-0.095,0.005
5722,-0.115,0.005
5723,-0.105,0.025
5724,-0.075,0.025
5725,-0.105,0.015
5726,-0.115,0.005
5727,-0.115,0.015
5728,-0.095,0.015
5729,-0.125,0.005
5730,-0.105,-0.015
5731,-0.165,-0.015
5732,-0.105,-0.005
5733,-0.065,-0.025
5734,-0.055,-0.035
5735,-0.015,-0.035
5736,-0.015,-0.055
5737,-0.035,-0.085
5738,-0.015,-0.075
5739,-0.035,-0.075
5740,-0.015,-0.085
5741,-0.045,-0.095
5742,-0.075,-0.095
5743,-0.045,-0.075
5744,-0.055,-0.085
5745,-0.065,-0.095
5746,-0.065,-0.095
5747,-0.095,-0.085
5748,-0.055,-0.085
5749,-0.065,-0.085
5750,-0.045,-0.075
5751,-0.015,-0.065
5752,-0.065,-0.085
5753,-0.025,-0.085
5754,-0.025,-0.065
5755,-0.025,-0.065
5756,-0.045,-0.075
5757,-0.025,-0.065
5758,-0.025,-0.055
5759,-0.005,-0.055
5760,0.005,-0.055
5761,-0.025,-0.075
5762,0.025,-0.075
5763,-0.035,-0.075
5764,-0.025,-0.075
5765,-0.035,-0.085
5766,-0.025,-0.095
5767,-0.025,-0.085
5768,0.005,-0.085
5769,-0.025,-0.085
5770,-0.015,-0.085
5771,-0.045,-0.095
5772,-0.065,-0.105
5773,-0.045,-0.095
5774,-0.015,-0.085
5775,-0.005,-0.055
5776,0.055,-0.025
5777,0.025,-0.045
5778,0.055,-0.025
5779,0.085,-0.035
5780,0.055,-0.055
5781,0.075,-0.055
5782,0.075,-0.055
5783,0.065,-0.075
5784,0.015,-0.085
5785,0.025,-0.085
5786,-0.005,-0.095
5787,-0.025,-0.105
5788,-0.055,-0.115
5789,-0.065,-0.115
5790,-0.055,-0.125
5791,-0.075,-0.125
5792,-0.065,-0.125
5793,-0.045,-0.115
5794,-0.065,-0.105
5795,-0.055,-0.095
5796,-0.045,-0.105
5797,-0.045,-0.095
5798,0.025,-0.065
5799,0.035,-0.055
5800,0.015,0.065
5801,0.275,0.275
5802,1.165,0.435
5803,1.775,0.235
5804,1.275,-0.055
5805,-0.015,-0.695
5806,-0.455,-0.405
5807,-0.195,-0.065
5808,-0.105,-0.035
5809,-0.075,-0.045
5810,-0.065,-0.045
5811,-0.095,-0.065
5812,-0.105,-0.055
5813,-0.105,-0.055
5814,-0.115,-0.055
5815,-0.075,-0.045
5816,-0.075,-0.025
5817,-0.135,-0.055
5818,-0.105,-0.045
5819,-0.095,-0.025
5820,-0.125,-0.055
5821,-0.115,-0.045
5822,-0.095,-0.025
5823,-0.095,-0.015
5824,-0.095,0.005
5825,-0.085,-0.005
5826,-0.095,-0.005
5827,-0.075,0.005
5828,-0.085,0.015
5829,-0.115,0.005
5830,-0.075,0.005
5831,-0.135,-0.005
5832,-0.145,-0.035
5833,-0.175,-0.055
5834,-0.135,-0.005
5835,-0.105,-0.005
5836,-0.125,-0.025
5837,-0.105,-0.045
5838,-0.075,-0.035
5839,-0.015,-0.055
5840,-0.055,-0.065
5841,-0.025,-0.065
5842,0.015,-0.075
5843,-0.035,-0.105
5844,-0.065,-0.095
5845,-0.045,-0.095
5846,-0.005,-0.115
5847,-0.065,-0.125
5848,-0.065,-0.105
5849,-0.025,-0.105
5850,-0.065,-0.105
5851,-0.065,-0.115
5852,-0.065,-0.105
5853,-0.075,-0.105
5854,-0.045,-0.115
5855,-0.065,-0.125
5856,-0.035,-0.105
5857,-0.045,-0.105
5858,-0.005,-0.105
5859,-0.055,-0.105
5860,-0.015,-0.085
5861,-0.045,-0.095
5862,-0.055,-0.105
5863,-0.015,-0.085
5864,-0.015,-0.105
5865,-0.035,-0.105
5866,-0.015,-0.105
5867,-0.025,-0.095
5868,-0.015,-0.095
5869,-0.015,-0.095
5870,-0.015,-0.115
5871,-0.065,-0.115
5872,-0.055,-0.105
5873,-0.045,-0.115
5874,-0.035,-0.105
5875,-0.015,-0.105
5876,-0.035,-0.105
5877,-0.015,-0.105
5878,0.015,-0.115
5879,-0.035,-0.105
5880,-0.045,-0.115
5881,-0.055,-0.125
5882,-0.035,-0.115
5883,-0.055,-0.105
5884,-0.035,-0.105
5885,-0.015,-0.105
5886,-0.015,-0.095
5887,0.025,-0.055
5888,0.065,-0.055
5889,0.045,-0.065
5890,0.075,-0.065
5891,0.015,-0.065
5892,0.065,-0.065
5893,0.095,-0.065
5894,0.085,-0.065
5895,0.045,-0.075
5896,0.035,-0.105
5897,-0.065,-0.135
5898,-0.055,-0.125
5899,-0.065,-0.125
5900,-0.055,-0.135
5901,-0.085,-0.145
5902,-0.075,-0.125
5903,-0.065,-0.115
5904,-0.045,-0.135
5905,-0.035,-0.125
5906,-0.075,-0.125
5907,-0.045,-0.105
5908,-0.045,-0.105
5909,-0.045,-0.115
5910,-0.015,-0.085
5911,0.055,0.005
5912,0.155,0.215
5913,0.785,0.345
5914,1.605,0.325
5915,1.475,0.015
5916,0.325,-0.555
5917,-0.525,-0.645
5918,-0.295,-0.165
5919,-0.105,-0.015
5920,-0.055,-0.035
5921,-0.115,-0.065
5922,-0.105,-0.075
5923,-0.075,-0.065
5924,-0.105,-0.075
5925,-0.125,-0.075
5926,-0.135,-0.075
5927,-0.105,-0.055
5928,-0.095,-0.055
5929,-0.055,-0.065
5930,-0.135,-0.055
5931,-0.125,-0.035
5932,-0.095,-0.035
5933,-0.105,-0.045
5934,-0.105,-0.045
5935,-0.115,-0.035
5936,-0.115,-0.035
5937,-0.085,-0.025
5938,-0.095,-0.015
5939,-0.115,-0.005
5940,-0.145,-0.015
5941,-0.135,-0.005
5942,-0.145,-0.015
5943,-0.105,-0.005
5944,-0.155,-0.035
5945,-0.165,-0.055
5946,-0.145,-0.055
5947,-0.145,-0.045
5948,-0.135,-0.055
5949,-0.105,-0.085
5950,-0.075,-0.065
5951,-0.035,-0.065
5952,-0.015,-0.085
5953,-0.045,-0.105
5954,-0.055,-0.115
5955,-0.035,-0.105
5956,-0.045,-0.115
5957,-0.015,-0.115
5958,-0.045,-0.125
5959,0.005,-0.105
5960,-0.025,-0.105
5961,-0.025,-0.125
5962,-0.015,-0.125
5963,-0.065,-0.095
5964,-0.035,-0.105
5965,-0.045,-0.105
5966,-0.055,-0.095
5967,0.025,-0.095
5968,-0.025,-0.105
5969,-0.015,-0.105
5970,-0.005,-0.095
5971,-0.015,-0.085
5972,-0.015,-0.085
5973,-0.025,-0.095
5974,0.025,-0.085
5975,-0.005,-0.085
5976,-0.005,-0.105
5977,-0.015,-0.095
5978,-0.015,-0.095
5979,0.055,-0.095
5980,0.025,-0.085
5981,-0.045,-0.125
5982,-0.015,-0.105
5983,0.025,-0.085
5984,-0.015,-0.085
5985,-0.015,-0.095
5986,-0.015,-0.105
5987,-0.045,-0.115
5988,-0.015,-0.115
5989,-0.015,-0.105
5990,-0.015,-0.105
5991,0.025,-0.095
5992,0.015,-0.095
5993,0.005,-0.105
5994,-0.035,-0.105
5995,0.005,-0.095
5996,-0.005,-0.115
5997,-0.055,-0.105
5998,-0.015,-0.095
5999,0.055,-0.085
6000,0.005,-0.075
6001,0.045,-0.065
6002,0.075,-0.035
6003,0.045,-0.025
6004,0.085,-0.015
6005,0.125,-0.055
6006,0.035,-0.055
6007,0.145,-0.035
6008,0.085,-0.045
6009,0.065,-0.065
6010,0.065,-0.065
6011,-0.005,-0.085
6012,-0.025,-0.095
6013,0.005,-0.115
6014,-0.005,-0.105
6015,-0.065,-0.105
6016,-0.025,-0.105
6017,-0.045,-0.115
6018,-0.065,-0.115
6019,-0.015,-0.095
6020,-0.035,-0.085
6021,0.025,-0.085
6022,0.065,-0.075
6023,-0.005,-0.075
6024,0.015,-0.025
6025,0.185,0.215
6026,0.725,0.385
6027,1.425,0.425
6028,1.425,0.095
6029,0.595,-0.415
6030,-0.315,-0.725
6031,-0.205,-0.195
6032,-0.075,-0.005
6033,-0.045,-0.015
6034,-0.045,-0.045
6035,-0.015,-0.045
6036,-0.055,-0.045
6037,-0.075,-0.045
6038,-0.065,-0.055
6039,-0.025,-0.025
6040,-0.025,-0.035
6041,-0.025,-0.045
6042,-0.015,-0.035
6043,-0.055,-0.015
6044,-0.015,-0.035
6045,-0.035,-0.025
6046,-0.085,-0.025
6047,-0.075,-0.025
6048,0.025,-0.015
6049,-0.045,-0.005
6050,-0.065,-0.015
6051,-0.055,0.005
6052,-0.035,0.025
6053,-0.025,0.015
6054,-0.015,0.005
6055,-0.025,-0.005
6056,-0.085,-0.015
6057,-0.105,-0.025
6058,-0.025,-0.025
6059,-0.135,-0.045
6060,-0.095,-0.065
6061,-0.105,-0.055
6062,-0.035,-0.055
6063,-0.045,-0.055
6064,-0.035,-0.055
6065,0.005,-0.065
6066,0.015,-0.085
6067,-0.005,-0.075
6068,0.045,-0.085
6069,0.005,-0.095
6070,0.025,-0.095
6071,0.015,-0.085
6072,-0.015,-0.085
6073,0.005,-0.105
6074,0.015,-0.095
6075,-0.015,-0.085
6076,-0.005,-0.075
6077,0.015,-0.095
6078,0.005,-0.085
6079,0.015,-0.065
6080,0.005,-0.075
6081,0.015,-0.075
6082,0.065,-0.065
6083,-0.015,-0.055
6084,-0.005,-0.065
6085,-0.005,-0.075
6086,0.035,-0.075
6087,0.015,-0.065
6088,0.015,-0.075
6089,0.025,-0.095
6090,0.005,-0.075
6091,-0.035,-0.065
6092,0.025,-0.075
6093,0.015,-0.095
6094,-0.005,-0.085
6095,-0.005,-0.075
6096,0.025,-0.085
6097,-0.045,-0.085
6098,-0.015,-0.095
6099,-0.035,-0.065
6100,-0.025,-0.075
6101,0.045,-0.075
6102,-0.045,-0.085
6103,-0.015,-0.085
6104,0.015,-0.095
6105,-0.045,-0.095
6106,-0.065,-0.085
6107,-0.035,-0.075
6108,-0.035,-0.085
6109,-0.005,-0.095
6110,-0.025,-0.085
6111,-0.015,-0.065
6112,-0.055,-0.065
6113,-0.045,-0.055
6114,0.025,-0.035
6115,0.005,-0.025
6116,0.045,-0.025
6117,0.025,-0.035
6118,0.065,-0.045
6119,0.085,-0.025
6120,0.065,-0.035
6121,0.105,-0.035
6122,0.085,-0.055
6123,0.025,-0.055
6124,-0.035,-0.085
6125,-0.085,-0.095
6126,-0.085,-0.105
6127,-0.085,-0.095
6128,-0.075,-0.105
6129,-0.065,-0.095
6130,-0.045,-0.095
6131,-0.025,-0.085
6132,-0.085,-0.085
6133,-0.075,-0.075
6134,-0.015,-0.075
6135,-0.015,-0.055
6136,-0.035,-0.045
6137,0.075,0.085
6138,0.295,0.325
6139,1.065,0.485
6140,1.595,0.205
6141,0.875,-0.185
6142,-0.275,-0.755
6143,-0.425,-0.335
6144,-0.135,-0.025
6145,-0.125,-0.025
6146,0.045,-0.035
6147,-0.155,-0.015
6148,-0.145,-0.025
6149,-0.155,-0.035
6150,-0.135,-0.035
6151,-0.095,-0.025
6152,-0.105,-0.015
6153,-0.105,-0.025
6154,-0.135,-0.035
6155,-0.125,-0.015
6156,-0.105,-0.005
6157,-0.115,-0.015
6158,-0.105,-0.015
6159,-0.085,0.005
6160,-0.095,0.015
6161,-0.095,0.015
6162,-0.125,-0.005
6163,-0.145,0.025
6164,-0.115,0.015
6165,-0.115,0.005
6166,-0.155,0.005
6167,-0.135,0.025
6168,-0.175,-0.005
6169,-0.185,-0.015
6170,-0.185,-0.035
6171,-0.205,-0.025
6172,-0.165,-0.035
6173,-0.185,-0.065
6174,-0.215,-0.075
6175,-0.205,-0.055
6176,-0.095,-0.055
6177,-0.095,-0.065
6178,-0.065,-0.055
6179,-0.055,-0.055
6180,-0.005,-0.055
6181,-0.015,-0.065
6182,-0.035,-0.055
6183,-0.095,-0.075
6184,-0.065,-0.085
6185,-0.105,-0.075
6186,-0.025,-0.065
6187,-0.065,-0.065
6188,-0.075,-0.065
6189,-0.055,-0.075
6190,-0.035,-0.065
6191,-0.045,-0.055
6192,-0.035,-0.055
6193,-0.065,-0.045
6194,-0.045,-0.055
6195,-0.045,-0.045
6196,-0.045,-0.045
6197,-0.055,-0.055
6198,-0.035,-0.055
6199,-0.025,-0.035
6200,-0.065,-0.055
6201,-0.045,-0.055
6202,-0.035,-0.065
6203,-0.035,-0.055
6204,-0.045,-0.065
6205,-0.065,-0.075
6206,-0.075,-0.075
6207,-0.065,-0.065
6208,-0.065,-0.065
6209,-0.065,-0.075
6210,-0.045,-0.065
6211,-0.055,-0.085
6212,-0.065,-0.075
6213,-0.095,-0.075
6214,-0.055,-0.075
6215,-0.045,-0.075
6216,-0.065,-0.075
6217,-0.075,-0.085
6218,-0.065,-0.075
6219,-0.065,-0.065
6220,-0.025,-0.075
6221,-0.095,-0.055
6222,-0.025,-0.025
6223,-0.015,-0.025
6224,-0.015,-0.025
6225,0.005,-0.035
6226,0.015,-0.045
6227,0.005,-0.025
6228,0.075,-0.015
6229,0.025,-0.065
6230,-0.005,-0.085
6231,-0.005,-0.065
6232,-0.025,-0.095
6233,-0.085,-0.105
6234,-0.155,-0.115
6235,-0.155,-0.095
6236,-0.125,-0.095
6237,-0.135,-0.115
6238,-0.145,-0.125
6239,-0.125,-0.095
6240,-0.105,-0.095
6241,-0.115,-0.105
6242,-0.105,-0.075
6243,-0.105,-0.065
6244,-0.075,-0.065
6245,-0.065,0.025
6246,0.135,0.275
6247,0.755,0.455
6248,1.385,0.345
6249,1.045,-0.085
6250,-0.105,-0.725
6251,-0.535,-0.485
6252,-0.265,-0.065
6253,-0.125,-0.005
6254,-0.175,-0.025
6255,-0.165,-0.035
6256,-0.175,-0.045
6257,-0.145,-0.045
6258,-0.205,-0.055
6259,-0.165,-0.045
6260,-0.155,-0.035
6261,-0.135,-0.035
6262,-0.155,-0.035
6263,-0.155,-0.025
6264,-0.085,-0.015
6265,-0.195,-0.015
6266,-0.225,-0.015
6267,-0.155,-0.005
6268,-0.175,-0.005
6269,-0.185,-0.015
6270,-0.175,-0.005
6271,-0.175,0.015
6272,-0.175,0.005
6273,-0.175,-0.015
6274,-0.215,-0.025
6275,-0.215,-0.025
6276,-0.215,-0.025
6277,-0.205,-0.045
6278,-0.225,-0.055
6279,-0.295,-0.065
6280,-0.265,-0.075
6281,-0.265,-0.085
6282,-0.235,-0.075
6283,-0.215,-0.075
6284,-0.195,-0.085
6285,-0.145,-0.075
6286,-0.105,-0.065
6287,-0.075,-0.055
6288,-0.105,-0.065
6289,-0.095,-0.075
6290,-0.115,-0.075
6291,-0.075,-0.065
6292,-0.165,-0.065
6293,-0.135,-0.075
6294,-0.165,-0.085
6295,-0.135,-0.065
6296,-0.115,-0.065
6297,-0.105,-0.075
6298,-0.105,-0.065
6299,-0.105,-0.055
6300,-0.105,-0.045
6301,-0.095,-0.075
6302,-0.125,-0.065
6303,-0.085,-0.055
6304,-0.115,-0.055
6305,-0.165,-0.055
6306,-0.135,-0.055
6307,-0.115,-0.055
6308,-0.095,-0.045
6309,-0.125,-0.065
6310,-0.105,-0.065
6311,-0.125,-0.085
6312,-0.135,-0.095
6313,-0.115,-0.095
6314,-0.085,-0.085
6315,-0.105,-0.085
6316,-0.085,-0.085
6317,-0.135,-0.075
6318,-0.115,-0.075
6319,-0.135,-0.075
6320,-0.135,-0.075
6321,-0.115,-0.075
6322,-0.105,-0.085
6323,-0.105,-0.075
6324,-0.105,-0.075
6325,-0.095,-0.055
6326,-0.065,-0.045
6327,-0.025,-0.035
6328,-0.045,-0.045
6329,-0.075,-0.055
6330,-0.015,-0.055
6331,0.005,-0.045
6332,-0.015,-0.045
6333,-0.035,-0.075
6334,-0.045,-0.085
6335,-0.085,-0.085
6336,-0.105,-0.115
6337,-0.135,-0.135
6338,-0.155,-0.125
6339,-0.155,-0.105
6340,-0.215,-0.125
6341,-0.175,-0.125
6342,-0.145,-0.105
6343,-0.185,-0.105
6344,-0.175,-0.115
6345,-0.155,-0.105
6346,-0.125,-0.085
6347,-0.075,-0.065
6348,-0.125,-0.075
6349,-0.095,0.005
6350,0.155,0.305
6351,0.825,0.505
6352,1.215,0.155
6353,0.435,-0.435
6354,-0.465,-0.895
6355,-0.525,-0.495
6356,-0.285,-0.095
6357,-0.165,-0.015
6358,-0.175,-0.045
6359,-0.175,-0.055
6360,-0.215,-0.075
6361,-0.205,-0.085
6362,-0.165,-0.065
6363,-0.185,-0.055
6364,-0.195,-0.065
6365,-0.205,-0.065
6366,-0.195,-0.065
6367,-0.185,-0.055
6368,-0.185,-0.055
6369,-0.175,-0.065
6370,-0.165,-0.055
6371,-0.175,-0.045
6372,-0.165,-0.055
6373,-0.175,-0.055
6374,-0.205,-0.055
6375,-0.165,-0.055
6376,-0.205,-0.045
6377,-0.235,-0.055
6378,-0.255,-0.055
6379,-0.235,-0.055
6380,-0.235,-0.075
6381,-0.235,-0.085
6382,-0.255,-0.115
6383,-0.265,-0.115
6384,-0.245,-0.125
6385,-0.265,-0.145
6386,-0.205,-0.145
6387,-0.175,-0.105
6388,-0.185,-0.095
6389,-0.135,-0.095
6390,-0.115,-0.085
6391,-0.135,-0.065
6392,-0.125,-0.095
6393,-0.105,-0.115
6394,-0.135,-0.115
6395,-0.105,-0.105
6396,-0.115,-0.105
6397,-0.095,-0.115
6398,-0.115,-0.095
6399,-0.095,-0.095
6400,-0.095,-0.095
6401,-0.125,-0.095
6402,-0.125,-0.085
6403,-0.125,-0.095
6404,-0.075,-0.085
6405,-0.105,-0.085
6406,-0.075,-0.095
6407,-0.105,-0.085
6408,-0.105,-0.095
6409,-0.085,-0.095
6410,-0.105,-0.105
6411,-0.105,-0.095
6412,-0.105,-0.095
6413,-0.105,-0.095
6414,-0.095,-0.115
6415,-0.075,-0.115
6416,-0.085,-0.105
6417,-0.115,-0.115
6418,-0.085,-0.115
6419,-0.095,-0.105
6420,-0.125,-0.105
6421,-0.095,-0.115
6422,-0.105,-0.105
6423,-0.095,-0.105
6424,-0.065,-0.095
6425,-0.075,-0.075
6426,-0.075,-0.075
