'sample interval','ECG1','ECG2'
'0.0078125 sec','mV','mV'
0,0.525,0.315
1,0.695,-0.515
2,0.475,-1.005
3,0.015,-1.145
4,-0.155,-0.605
5,-0.115,-0.295
6,-0.065,-0.155
7,-0.035,-0.115
8,-0.015,-0.105
9,-0.015,-0.105
10,-0.015,-0.105
11,-0.015,-0.105
12,-0.015,-0.095
13,-0.015,-0.075
14,-0.015,-0.085
15,-0.015,-0.065
16,-0.015,-0.055
17,-0.005,-0.035
18,-0.015,-0.025
19,-0.015,-0.015
20,-0.025,0.015
21,-0.025,0.025
22,-0.025,0.035
23,-0.035,0.065
24,-0.025,0.105
25,-0.035,0.135
26,-0.035,0.155
27,-0.035,0.185
28,-0.045,0.205
29,-0.055,0.215
30,-0.065,0.195
31,-0.065,0.195
32,-0.075,0.195
33,-0.085,0.185
34,-0.095,0.135
35,-0.085,0.085
36,-0.085,0.065
37,-0.075,0.005
38,-0.085,-0.065
39,-0.065,-0.085
40,-0.065,-0.125
41,-0.075,-0.135
42,-0.085,-0.165
43,-0.095,-0.155
44,-0.115,-0.155
45,-0.125,-0.165
46,-0.135,-0.165
47,-0.125,-0.155
48,-0.105,-0.145
49,-0.115,-0.135
50,-0.115,-0.135
51,-0.115,-0.135
52,-0.115,-0.115
53,-0.115,-0.115
54,-0.105,-0.125
55,-0.095,-0.115
56,-0.085,-0.115
57,-0.095,-0.125
58,-0.095,-0.135
59,-0.085,-0.125
60,-0.095,-0.135
61,-0.085,-0.135
62,-0.095,-0.145
63,-0.105,-0.145
64,-0.105,-0.145
65,-0.115,-0.165
66,-0.115,-0.165
67,-0.125,-0.175
68,-0.155,-0.165
69,-0.145,-0.165
70,-0.145,-0.185
71,-0.145,-0.185
72,-0.135,-0.165
73,-0.145,-0.155
74,-0.105,-0.105
75,-0.055,-0.095
76,-0.055,-0.095
77,-0.045,-0.095
78,-0.025,-0.105
79,0.055,-0.045
80,0.015,-0.095
81,-0.025,-0.125
82,-0.015,-0.145
83,-0.115,-0.195
84,-0.165,-0.185
85,-0.175,-0.185
86,-0.215,-0.215
87,-0.215,-0.205
88,-0.185,-0.175
89,-0.165,-0.125
90,-0.265,0.045
91,0.105,0.265
92,0.955,0.865
93,1.865,0.525
94,2.445,-0.375
95,1.345,-0.845
96,-0.475,-1.015
97,-0.885,-0.535
98,-0.665,-0.305
99,-0.465,-0.185
100,-0.355,-0.125
101,-0.315,-0.105
102,-0.315,-0.125
103,-0.295,-0.115
104,-0.295,-0.105
105,-0.285,-0.095
106,-0.295,-0.095
107,-0.295,-0.095
108,-0.275,-0.065
109,-0.275,-0.055
110,-0.265,-0.065
111,-0.255,-0.045
112,-0.225,-0.005
113,-0.235,-0.005
114,-0.235,0.015
115,-0.225,0.045
116,-0.215,0.055
117,-0.215,0.085
118,-0.205,0.105
119,-0.195,0.135
120,-0.185,0.175
121,-0.205,0.175
122,-0.215,0.165
123,-0.215,0.175
124,-0.225,0.185
125,-0.245,0.145
126,-0.235,0.125
127,-0.235,0.085
128,-0.185,0.065
129,-0.175,0.015
130,-0.155,-0.025
131,-0.145,-0.075
132,-0.155,-0.105
133,-0.155,-0.115
134,-0.155,-0.155
135,-0.165,-0.155
136,-0.155,-0.135
137,-0.155,-0.155
138,-0.165,-0.155
139,-0.155,-0.145
140,-0.185,-0.145
141,-0.155,-0.115
142,-0.165,-0.135
143,-0.135,-0.135
144,-0.125,-0.125
145,-0.125,-0.125
146,-0.115,-0.115
147,-0.095,-0.115
148,-0.095,-0.105
149,-0.085,-0.115
150,-0.075,-0.105
151,-0.075,-0.115
152,-0.055,-0.125
153,-0.075,-0.125
154,-0.085,-0.135
155,-0.065,-0.135
156,-0.095,-0.145
157,-0.085,-0.155
158,-0.085,-0.175
159,-0.085,-0.165
160,-0.095,-0.165
161,-0.105,-0.165
162,-0.115,-0.175
163,-0.085,-0.125
164,-0.045,-0.085
165,-0.025,-0.105
166,-0.025,-0.095
167,0.005,-0.135
168,0.065,-0.085
169,0.085,-0.075
170,0.015,-0.155
171,-0.015,-0.155
172,-0.015,-0.185
173,-0.115,-0.215
174,-0.135,-0.215
175,-0.155,-0.235
176,-0.175,-0.225
177,-0.165,-0.225
178,-0.155,-0.205
179,-0.255,-0.055
180,-0.035,0.145
181,0.745,0.695
182,1.685,0.425
183,2.435,-0.355
184,1.695,-0.865
185,-0.225,-1.095
186,-0.925,-0.665
187,-0.715,-0.355
188,-0.485,-0.205
189,-0.355,-0.155
190,-0.315,-0.155
191,-0.315,-0.155
192,-0.295,-0.145
193,-0.295,-0.145
194,-0.295,-0.155
195,-0.295,-0.135
196,-0.295,-0.115
197,-0.285,-0.115
198,-0.275,-0.105
199,-0.265,-0.085
200,-0.255,-0.065
201,-0.255,-0.065
202,-0.265,-0.055
203,-0.245,-0.025
204,-0.255,0.005
205,-0.235,0.025
206,-0.235,0.025
207,-0.215,0.065
208,-0.205,0.095
209,-0.215,0.135
210,-0.215,0.145
211,-0.205,0.155
212,-0.225,0.145
213,-0.225,0.145
214,-0.225,0.135
215,-0.215,0.125
216,-0.215,0.105
217,-0.195,0.055
218,-0.185,-0.005
219,-0.165,-0.045
220,-0.155,-0.105
221,-0.155,-0.125
222,-0.155,-0.155
223,-0.155,-0.175
224,-0.145,-0.175
225,-0.155,-0.185
226,-0.165,-0.195
227,-0.165,-0.195
228,-0.175,-0.185
229,-0.155,-0.175
230,-0.165,-0.185
231,-0.155,-0.185
232,-0.145,-0.155
233,-0.135,-0.155
234,-0.145,-0.145
235,-0.125,-0.145
236,-0.145,-0.125
237,-0.105,-0.135
238,-0.115,-0.145
239,-0.105,-0.135
240,-0.105,-0.135
241,-0.095,-0.145
242,-0.095,-0.155
243,-0.095,-0.165
244,-0.105,-0.155
245,-0.105,-0.155
246,-0.105,-0.175
247,-0.105,-0.175
248,-0.095,-0.185
249,-0.125,-0.175
250,-0.125,-0.195
251,-0.125,-0.195
252,-0.115,-0.155
253,-0.055,-0.105
254,-0.035,-0.125
255,-0.025,-0.105
256,0.015,-0.115
257,0.025,-0.125
258,0.105,-0.085
259,0.025,-0.145
260,-0.025,-0.155
261,-0.005,-0.165
262,-0.095,-0.235
263,-0.155,-0.235
264,-0.155,-0.245
265,-0.195,-0.255
266,-0.205,-0.255
267,-0.185,-0.225
268,-0.195,-0.145
269,-0.275,0.025
270,0.315,0.375
271,1.275,0.635
272,2.325,-0.075
273,2.445,-0.815
274,0.385,-1.235
275,-0.985,-0.875
276,-0.855,-0.445
277,-0.525,-0.195
278,-0.355,-0.155
279,-0.295,-0.155
280,-0.265,-0.145
281,-0.285,-0.145
282,-0.275,-0.135
283,-0.265,-0.125
284,-0.265,-0.125
285,-0.255,-0.105
286,-0.245,-0.105
287,-0.245,-0.095
288,-0.235,-0.075
289,-0.235,-0.065
290,-0.225,-0.045
291,-0.215,-0.035
292,-0.235,-0.005
293,-0.205,0.015
294,-0.195,0.025
295,-0.195,0.055
296,-0.175,0.105
297,-0.185,0.125
298,-0.175,0.145
299,-0.165,0.165
300,-0.165,0.185
301,-0.155,0.195
302,-0.165,0.185
303,-0.165,0.175
304,-0.165,0.175
305,-0.165,0.145
306,-0.155,0.095
307,-0.125,0.055
308,-0.125,-0.005
309,-0.085,-0.055
310,-0.095,-0.105
311,-0.105,-0.145
312,-0.095,-0.145
313,-0.115,-0.155
314,-0.115,-0.175
315,-0.115,-0.185
316,-0.135,-0.175
317,-0.115,-0.165
318,-0.135,-0.185
319,-0.115,-0.165
320,-0.105,-0.155
321,-0.115,-0.155
322,-0.115,-0.155
323,-0.105,-0.145
324,-0.115,-0.125
325,-0.085,-0.115
326,-0.085,-0.135
327,-0.065,-0.125
328,-0.055,-0.115
329,-0.055,-0.115
330,-0.055,-0.135
331,-0.055,-0.125
332,-0.055,-0.125
333,-0.035,-0.135
334,-0.055,-0.165
335,-0.045,-0.155
336,-0.035,-0.155
337,-0.055,-0.165
338,-0.065,-0.185
339,-0.065,-0.185
340,-0.075,-0.165
341,-0.065,-0.175
342,-0.075,-0.185
343,-0.075,-0.195
344,-0.065,-0.175
345,-0.065,-0.155
346,-0.005,-0.095
347,0.015,-0.115
348,0.005,-0.095
349,0.035,-0.105
350,0.075,-0.115
351,0.155,-0.055
352,0.085,-0.115
353,0.045,-0.135
354,0.045,-0.165
355,-0.025,-0.205
356,-0.095,-0.205
357,-0.075,-0.215
358,-0.135,-0.245
359,-0.115,-0.225
360,-0.095,-0.195
361,-0.095,-0.145
362,-0.215,0.005
363,0.215,0.225
364,1.085,0.725
365,2.085,0.285
366,2.675,-0.535
367,1.505,-1.005
368,-0.495,-1.145
369,-0.935,-0.625
370,-0.625,-0.305
371,-0.355,-0.125
372,-0.215,-0.105
373,-0.205,-0.115
374,-0.215,-0.125
375,-0.205,-0.115
376,-0.195,-0.105
377,-0.185,-0.095
378,-0.185,-0.095
379,-0.175,-0.085
380,-0.155,-0.055
381,-0.175,-0.045
382,-0.155,-0.035
383,-0.145,-0.015
384,-0.145,-0.005
385,-0.125,0.025
386,-0.135,0.035
387,-0.135,0.055
388,-0.115,0.085
389,-0.125,0.115
390,-0.115,0.145
391,-0.095,0.175
392,-0.095,0.205
393,-0.095,0.225
394,-0.105,0.235
395,-0.095,0.235
396,-0.095,0.235
397,-0.105,0.225
398,-0.105,0.215
399,-0.085,0.175
400,-0.065,0.145
401,-0.045,0.085
402,-0.045,0.025
403,-0.045,-0.045
404,-0.035,-0.065
405,-0.045,-0.095
406,-0.055,-0.135
407,-0.055,-0.135
408,-0.055,-0.125
409,-0.065,-0.125
410,-0.065,-0.145
411,-0.085,-0.145
412,-0.085,-0.125
413,-0.075,-0.125
414,-0.065,-0.125
415,-0.075,-0.115
416,-0.055,-0.105
417,-0.045,-0.095
418,-0.035,-0.105
419,-0.035,-0.095
420,-0.025,-0.095
421,-0.015,-0.095
422,-0.005,-0.105
423,-0.005,-0.105
424,0.005,-0.095
425,0.005,-0.105
426,-0.015,-0.125
427,-0.015,-0.125
428,-0.035,-0.125
429,-0.015,-0.135
430,-0.015,-0.145
431,-0.005,-0.135
432,-0.015,-0.145
433,-0.015,-0.155
434,-0.025,-0.165
435,-0.025,-0.165
436,-0.035,-0.155
437,-0.035,-0.155
438,-0.035,-0.165
439,-0.025,-0.135
440,0.045,-0.055
441,0.065,-0.075
442,0.055,-0.075
443,0.075,-0.095
444,0.095,-0.085
445,0.165,-0.035
446,0.105,-0.105
447,0.075,-0.115
448,0.095,-0.135
449,-0.015,-0.185
450,-0.045,-0.175
451,-0.075,-0.195
452,-0.105,-0.195
453,-0.095,-0.185
454,-0.085,-0.175
455,-0.125,-0.075
456,-0.125,0.085
457,0.375,0.385
458,1.235,0.755
459,2.155,0.215
460,2.585,-0.555
461,1.285,-0.995
462,-0.615,-1.115
463,-0.895,-0.535
464,-0.555,-0.225
465,-0.325,-0.115
466,-0.225,-0.095
467,-0.205,-0.095
468,-0.205,-0.095
469,-0.195,-0.095
470,-0.195,-0.095
471,-0.185,-0.075
472,-0.175,-0.065
473,-0.175,-0.055
474,-0.175,-0.055
475,-0.165,-0.035
476,-0.175,-0.025
477,-0.155,-0.015
478,-0.145,0.005
479,-0.145,0.015
480,-0.135,0.045
481,-0.135,0.065
482,-0.125,0.085
483,-0.115,0.125
484,-0.125,0.145
485,-0.105,0.175
486,-0.095,0.195
487,-0.095,0.215
488,-0.095,0.235
489,-0.095,0.225
490,-0.105,0.205
491,-0.095,0.215
492,-0.095,0.195
493,-0.075,0.165
494,-0.055,0.105
495,-0.025,0.065
496,0.005,0.005
497,-0.005,-0.025
498,-0.025,-0.095
499,-0.025,-0.105
500,-0.045,-0.125
501,-0.055,-0.115
502,-0.045,-0.135
503,-0.035,-0.135
504,-0.035,-0.125
505,-0.055,-0.125
506,-0.055,-0.125
507,-0.055,-0.115
508,-0.055,-0.105
509,-0.045,-0.095
510,-0.045,-0.095
511,-0.025,-0.085
512,0.005,-0.075
513,-0.005,-0.065
514,-0.005,-0.085
515,0.005,-0.075
516,0.005,-0.065
517,0.015,-0.075
518,0.005,-0.095
519,0.015,-0.095
520,0.025,-0.085
521,0.015,-0.095
522,-0.005,-0.115
523,0.005,-0.115
524,-0.015,-0.105
525,-0.005,-0.115
526,-0.025,-0.125
527,-0.025,-0.135
528,-0.015,-0.125
529,-0.025,-0.135
530,-0.045,-0.145
531,-0.035,-0.135
532,-0.045,-0.135
533,-0.035,-0.135
534,-0.045,-0.145
535,-0.045,-0.135
536,-0.005,-0.085
537,0.045,-0.055
538,0.045,-0.065
539,0.055,-0.065
540,0.065,-0.075
541,0.145,-0.035
542,0.125,-0.055
543,0.085,-0.095
544,0.065,-0.105
545,0.035,-0.135
546,-0.055,-0.165
547,-0.055,-0.155
548,-0.095,-0.175
549,-0.105,-0.175
550,-0.085,-0.175
551,-0.065,-0.145
552,-0.145,-0.015
553,0.025,0.135
554,0.715,0.615
555,1.635,0.505
556,2.395,-0.225
557,1.775,-0.835
558,-0.155,-1.185
559,-0.865,-0.695
560,-0.625,-0.315
561,-0.375,-0.135
562,-0.265,-0.085
563,-0.205,-0.085
564,-0.225,-0.075
565,-0.205,-0.075
566,-0.215,-0.075
567,-0.205,-0.075
568,-0.185,-0.045
569,-0.175,-0.045
570,-0.205,-0.055
571,-0.185,-0.025
572,-0.195,-0.015
573,-0.175,-0.005
574,-0.175,0.005
575,-0.155,0.005
576,-0.145,0.045
577,-0.155,0.075
578,-0.155,0.075
579,-0.135,0.105
580,-0.145,0.145
581,-0.125,0.185
582,-0.125,0.195
583,-0.115,0.225
584,-0.115,0.235
585,-0.125,0.225
586,-0.135,0.225
587,-0.125,0.225
588,-0.145,0.215
589,-0.115,0.185
590,-0.105,0.135
591,-0.075,0.105
592,-0.045,0.055
593,-0.045,-0.005
594,-0.055,-0.065
595,-0.055,-0.095
596,-0.085,-0.105
597,-0.075,-0.105
598,-0.085,-0.135
599,-0.095,-0.135
600,-0.095,-0.125
601,-0.095,-0.125
602,-0.105,-0.125
603,-0.095,-0.115
604,-0.105,-0.105
605,-0.095,-0.105
606,-0.085,-0.095
607,-0.085,-0.085
608,-0.065,-0.085
609,-0.075,-0.085
610,-0.075,-0.095
611,-0.065,-0.095
612,-0.075,-0.085
613,-0.065,-0.075
614,-0.055,-0.095
615,-0.045,-0.105
616,-0.045,-0.105
617,-0.055,-0.115
618,-0.065,-0.125
619,-0.055,-0.125
620,-0.075,-0.135
621,-0.065,-0.145
622,-0.075,-0.145
623,-0.075,-0.155
624,-0.085,-0.145
625,-0.085,-0.155
626,-0.095,-0.165
627,-0.085,-0.165
628,-0.105,-0.165
629,-0.095,-0.155
630,-0.105,-0.175
631,-0.095,-0.155
632,-0.045,-0.095
633,-0.005,-0.065
634,-0.005,-0.095
635,-0.005,-0.085
636,0.015,-0.105
637,0.105,-0.055
638,0.085,-0.085
639,0.025,-0.125
640,0.025,-0.125
641,-0.025,-0.175
642,-0.115,-0.205
643,-0.105,-0.185
644,-0.155,-0.205
645,-0.175,-0.205
646,-0.165,-0.195
647,-0.125,-0.185
648,-0.205,-0.045
649,-0.065,0.095
650,0.625,0.575
651,1.575,0.535
652,2.445,-0.245
653,1.905,-0.835
654,-0.095,-1.235
655,-0.975,-0.795
656,-0.765,-0.395
657,-0.475,-0.185
658,-0.335,-0.125
659,-0.275,-0.115
660,-0.275,-0.115
661,-0.265,-0.115
662,-0.275,-0.115
663,-0.255,-0.105
664,-0.245,-0.095
665,-0.255,-0.095
666,-0.245,-0.095
667,-0.245,-0.075
668,-0.245,-0.055
669,-0.255,-0.045
670,-0.235,-0.035
671,-0.225,-0.005
672,-0.205,0.015
673,-0.215,0.035
674,-0.215,0.045
675,-0.205,0.065
676,-0.195,0.095
677,-0.185,0.145
678,-0.185,0.165
679,-0.175,0.185
680,-0.165,0.195
681,-0.185,0.185
682,-0.175,0.185
683,-0.185,0.195
684,-0.195,0.175
685,-0.175,0.145
686,-0.165,0.085
687,-0.125,0.045
688,-0.115,0.005
689,-0.105,-0.045
690,-0.115,-0.105
691,-0.105,-0.135
692,-0.135,-0.135
693,-0.125,-0.145
694,-0.135,-0.165
695,-0.145,-0.165
696,-0.135,-0.155
697,-0.135,-0.155
698,-0.145,-0.175
699,-0.145,-0.155
700,-0.145,-0.135
701,-0.135,-0.145
702,-0.135,-0.135
703,-0.115,-0.125
704,-0.105,-0.115
705,-0.105,-0.115
706,-0.105,-0.125
707,-0.095,-0.125
708,-0.105,-0.125
709,-0.095,-0.135
710,-0.095,-0.145
711,-0.075,-0.145
712,-0.065,-0.135
713,-0.065,-0.135
714,-0.095,-0.165
715,-0.075,-0.155
716,-0.105,-0.165
717,-0.095,-0.165
718,-0.105,-0.175
719,-0.105,-0.185
720,-0.095,-0.175
721,-0.105,-0.175
722,-0.125,-0.185
723,-0.105,-0.175
724,-0.115,-0.175
725,-0.075,-0.135
726,-0.025,-0.125
727,-0.015,-0.125
728,0.005,-0.105
729,0.015,-0.125
730,0.085,-0.095
731,0.075,-0.105
732,0.015,-0.135
733,0.005,-0.135
734,-0.015,-0.195
735,-0.105,-0.215
736,-0.085,-0.195
737,-0.155,-0.215
738,-0.145,-0.215
739,-0.125,-0.195
740,-0.115,-0.155
741,-0.225,-0.005
742,0.065,0.175
743,0.875,0.745
744,1.745,0.605
745,2.485,-0.135
746,1.795,-0.705
747,-0.025,-1.065
748,-0.855,-0.745
749,-0.695,-0.395
750,-0.475,-0.245
751,-0.325,-0.165
752,-0.235,-0.125
753,-0.215,-0.125
754,-0.235,-0.145
755,-0.215,-0.125
756,-0.225,-0.115
757,-0.205,-0.105
758,-0.215,-0.105
759,-0.205,-0.095
760,-0.175,-0.075
761,-0.175,-0.065
762,-0.175,-0.065
763,-0.165,-0.045
764,-0.165,-0.015
765,-0.165,-0.015
766,-0.155,0.015
767,-0.135,0.025
768,-0.115,0.075
769,-0.115,0.095
770,-0.125,0.105
771,-0.115,0.145
772,-0.105,0.165
773,-0.115,0.185
774,-0.105,0.165
775,-0.105,0.175
776,-0.105,0.165
777,-0.125,0.155
778,-0.125,0.115
779,-0.105,0.085
780,-0.085,0.045
781,-0.055,0.015
782,-0.055,-0.035
783,-0.035,-0.085
784,-0.035,-0.095
785,-0.045,-0.115
786,-0.055,-0.135
787,-0.055,-0.145
788,-0.075,-0.145
789,-0.065,-0.145
790,-0.065,-0.145
791,-0.075,-0.145
792,-0.065,-0.135
793,-0.065,-0.125
794,-0.075,-0.125
795,-0.065,-0.115
796,-0.055,-0.105
797,-0.045,-0.095
798,-0.035,-0.095
799,-0.025,-0.095
800,-0.015,-0.085
801,-0.015,-0.085
802,-0.015,-0.095
803,-0.015,-0.095
804,-0.015,-0.095
805,-0.015,-0.105
806,-0.025,-0.125
807,-0.015,-0.125
808,-0.005,-0.115
809,-0.015,-0.135
810,-0.025,-0.145
811,-0.015,-0.155
812,-0.035,-0.145
813,-0.025,-0.155
814,-0.025,-0.165
815,-0.035,-0.165
816,-0.015,-0.155
817,-0.035,-0.165
818,-0.045,-0.155
819,-0.015,-0.105
820,0.025,-0.075
821,0.035,-0.085
822,0.045,-0.095
823,0.075,-0.105
824,0.125,-0.055
825,0.095,-0.095
826,0.055,-0.125
827,0.055,-0.135
828,0.015,-0.175
829,-0.045,-0.185
830,-0.045,-0.195
831,-0.085,-0.215
832,-0.085,-0.195
833,-0.085,-0.185
834,-0.075,-0.165
835,-0.155,-0.005
836,-0.015,0.155
837,0.615,0.615
838,1.355,0.295
839,2.025,-0.405
840,1.565,-0.945
841,-0.075,-1.195
842,-0.745,-0.685
843,-0.585,-0.315
844,-0.395,-0.135
845,-0.275,-0.095
846,-0.225,-0.105
847,-0.225,-0.105
848,-0.215,-0.095
849,-0.215,-0.085
850,-0.225,-0.095
851,-0.215,-0.065
852,-0.215,-0.065
853,-0.215,-0.055
854,-0.215,-0.055
855,-0.205,-0.035
856,-0.185,-0.015
857,-0.195,0.005
858,-0.185,0.005
859,-0.175,0.025
860,-0.165,0.045
861,-0.175,0.085
862,-0.165,0.095
863,-0.155,0.125
864,-0.155,0.165
865,-0.135,0.195
866,-0.125,0.215
867,-0.125,0.225
868,-0.115,0.225
869,-0.125,0.245
870,-0.125,0.225
871,-0.115,0.215
872,-0.125,0.195
873,-0.095,0.165
874,-0.095,0.105
875,-0.075,0.045
876,-0.055,-0.005
877,-0.075,-0.065
878,-0.085,-0.105
879,-0.085,-0.125
880,-0.085,-0.125
881,-0.095,-0.135
882,-0.105,-0.145
883,-0.105,-0.145
884,-0.095,-0.135
885,-0.115,-0.135
886,-0.115,-0.145
887,-0.115,-0.135
888,-0.095,-0.115
889,-0.095,-0.115
890,-0.105,-0.125
891,-0.105,-0.105
892,-0.105,-0.095
893,-0.075,-0.095
894,-0.075,-0.115
895,-0.075,-0.105
896,-0.055,-0.105
897,-0.065,-0.105
898,-0.065,-0.115
899,-0.065,-0.125
900,-0.075,-0.115
901,-0.055,-0.125
902,-0.065,-0.135
903,-0.065,-0.145
904,-0.055,-0.125
905,-0.075,-0.135
906,-0.095,-0.155
907,-0.085,-0.155
908,-0.105,-0.155
909,-0.085,-0.155
910,-0.105,-0.165
911,-0.095,-0.175
912,-0.085,-0.165
913,-0.105,-0.165
914,-0.105,-0.185
915,-0.095,-0.175
916,-0.095,-0.145
917,-0.025,-0.095
918,0.005,-0.095
919,0.005,-0.095
920,0.035,-0.085
921,0.045,-0.105
922,0.105,-0.065
923,0.075,-0.105
924,0.025,-0.125
925,0.015,-0.145
926,-0.055,-0.195
927,-0.115,-0.205
928,-0.105,-0.195
929,-0.155,-0.215
930,-0.155,-0.215
931,-0.135,-0.195
932,-0.135,-0.145
933,-0.205,0.025
934,0.185,0.225
935,1.015,0.645
936,1.925,0.225
937,2.455,-0.515
938,1.355,-0.995
939,-0.435,-1.155
940,-0.925,-0.625
941,-0.665,-0.305
942,-0.425,-0.155
943,-0.295,-0.095
944,-0.245,-0.095
945,-0.255,-0.095
946,-0.265,-0.095
947,-0.255,-0.095
948,-0.235,-0.075
949,-0.255,-0.065
950,-0.245,-0.065
951,-0.235,-0.055
952,-0.225,-0.045
953,-0.225,-0.025
954,-0.215,-0.015
955,-0.215,0.005
956,-0.205,0.025
957,-0.205,0.045
958,-0.205,0.055
959,-0.185,0.095
960,-0.165,0.125
961,-0.165,0.165
962,-0.155,0.185
963,-0.155,0.215
964,-0.155,0.235
965,-0.145,0.245
966,-0.135,0.245
967,-0.145,0.235
968,-0.125,0.245
969,-0.135,0.215
970,-0.125,0.165
971,-0.095,0.125
972,-0.085,0.065
973,-0.075,0.015
974,-0.085,-0.055
975,-0.085,-0.085
976,-0.075,-0.095
977,-0.095,-0.125
978,-0.105,-0.135
979,-0.105,-0.135
980,-0.125,-0.135
981,-0.115,-0.135
982,-0.105,-0.145
983,-0.115,-0.135
984,-0.105,-0.115
985,-0.105,-0.115
986,-0.105,-0.115
987,-0.095,-0.115
988,-0.105,-0.095
989,-0.095,-0.105
990,-0.085,-0.105
991,-0.085,-0.095
992,-0.065,-0.095
993,-0.065,-0.095
994,-0.075,-0.105
995,-0.055,-0.105
996,-0.065,-0.105
997,-0.055,-0.115
998,-0.055,-0.125
999,-0.055,-0.135
1000,-0.055,-0.125
1001,-0.055,-0.135
1002,-0.075,-0.145
1003,-0.065,-0.155
1004,-0.085,-0.145
1005,-0.075,-0.155
1006,-0.075,-0.165
1007,-0.075,-0.165
1008,-0.075,-0.165
1009,-0.065,-0.165
1010,-0.085,-0.175
1011,-0.075,-0.185
1012,-0.085,-0.175
1013,-0.085,-0.175
1014,-0.085,-0.185
1015,-0.075,-0.185
1016,-0.065,-0.165
1017,-0.075,-0.165
1018,-0.075,-0.165
1019,-0.045,-0.105
1020,0.005,-0.075
1021,0.005,-0.085
1022,0.005,-0.085
1023,0.035,-0.105
1024,0.105,-0.045
1025,0.085,-0.085
1026,0.035,-0.115
1027,0.025,-0.125
1028,-0.005,-0.165
1029,-0.085,-0.175
1030,-0.095,-0.185
1031,-0.115,-0.205
1032,-0.125,-0.195
1033,-0.115,-0.175
1034,-0.115,-0.175
1035,-0.165,-0.035
1036,-0.035,0.125
1037,0.595,0.575
1038,1.405,0.425
1039,2.225,-0.285
1040,1.915,-0.895
1041,0.045,-1.215
1042,-0.895,-0.745
1043,-0.745,-0.345
1044,-0.465,-0.145
1045,-0.325,-0.095
1046,-0.285,-0.095
1047,-0.285,-0.095
1048,-0.255,-0.085
1049,-0.275,-0.075
1050,-0.275,-0.085
1051,-0.265,-0.075
1052,-0.275,-0.045
1053,-0.255,-0.045
1054,-0.255,-0.035
1055,-0.245,-0.025
1056,-0.235,-0.005
1057,-0.245,0.005
1058,-0.255,0.005
1059,-0.235,0.045
1060,-0.245,0.065
1061,-0.225,0.095
1062,-0.215,0.105
1063,-0.205,0.145
1064,-0.205,0.185
1065,-0.185,0.195
1066,-0.205,0.205
1067,-0.185,0.225
1068,-0.205,0.235
1069,-0.195,0.225
1070,-0.205,0.215
1071,-0.195,0.195
1072,-0.185,0.175
1073,-0.175,0.135
1074,-0.155,0.065
1075,-0.135,0.025
1076,-0.155,-0.025
1077,-0.155,-0.065
1078,-0.155,-0.105
1079,-0.175,-0.115
1080,-0.165,-0.125
1081,-0.165,-0.125
1082,-0.175,-0.135
1083,-0.175,-0.125
1084,-0.185,-0.125
1085,-0.185,-0.125
1086,-0.175,-0.135
1087,-0.195,-0.125
1088,-0.155,-0.115
1089,-0.175,-0.115
1090,-0.175,-0.125
1091,-0.175,-0.125
1092,-0.165,-0.115
1093,-0.165,-0.105
1094,-0.165,-0.115
1095,-0.155,-0.115
1096,-0.125,-0.115
1097,-0.145,-0.115
1098,-0.135,-0.125
1099,-0.135,-0.125
1100,-0.145,-0.115
1101,-0.125,-0.135
1102,-0.135,-0.155
1103,-0.135,-0.155
1104,-0.145,-0.155
1105,-0.135,-0.155
1106,-0.155,-0.155
1107,-0.145,-0.165
1108,-0.155,-0.175
1109,-0.165,-0.175
1110,-0.155,-0.185
1111,-0.155,-0.175
1112,-0.145,-0.175
1113,-0.165,-0.175
1114,-0.165,-0.185
1115,-0.145,-0.165
1116,-0.125,-0.125
1117,-0.075,-0.105
1118,-0.085,-0.115
1119,-0.055,-0.105
1120,-0.015,-0.105
1121,0.065,-0.065
1122,0.035,-0.095
1123,-0.015,-0.125
1124,-0.045,-0.135
1125,-0.065,-0.175
1126,-0.165,-0.215
1127,-0.155,-0.185
1128,-0.175,-0.205
1129,-0.215,-0.215
1130,-0.195,-0.205
1131,-0.155,-0.175
1132,-0.245,-0.025
1133,-0.035,0.135
1134,0.725,0.645
1135,1.585,0.675
1136,2.435,-0.085
1137,2.015,-0.675
1138,0.165,-1.035
1139,-0.865,-0.765
1140,-0.765,-0.405
1141,-0.525,-0.255
1142,-0.385,-0.185
1143,-0.305,-0.135
1144,-0.255,-0.115
1145,-0.265,-0.125
1146,-0.275,-0.125
1147,-0.255,-0.135
1148,-0.245,-0.095
1149,-0.245,-0.085
1150,-0.235,-0.085
1151,-0.225,-0.085
1152,-0.205,-0.055
1153,-0.215,-0.045
1154,-0.215,-0.045
1155,-0.195,-0.015
1156,-0.185,-0.005
1157,-0.185,0.015
1158,-0.175,0.025
1159,-0.165,0.065
1160,-0.145,0.095
1161,-0.145,0.115
1162,-0.145,0.125
1163,-0.125,0.145
1164,-0.125,0.165
1165,-0.125,0.185
1166,-0.135,0.165
1167,-0.125,0.165
1168,-0.135,0.155
1169,-0.135,0.145
1170,-0.125,0.095
1171,-0.095,0.065
1172,-0.085,0.015
1173,-0.075,-0.035
1174,-0.075,-0.085
1175,-0.075,-0.105
1176,-0.065,-0.115
1177,-0.075,-0.135
1178,-0.095,-0.155
1179,-0.085,-0.155
1180,-0.095,-0.145
1181,-0.105,-0.145
1182,-0.105,-0.145
1183,-0.105,-0.135
1184,-0.085,-0.125
1185,-0.095,-0.115
1186,-0.075,-0.125
1187,-0.075,-0.115
1188,-0.075,-0.105
1189,-0.065,-0.105
1190,-0.055,-0.105
1191,-0.045,-0.105
1192,-0.035,-0.095
1193,-0.035,-0.095
1194,-0.035,-0.105
1195,-0.035,-0.105
1196,-0.045,-0.095
1197,-0.035,-0.105
1198,-0.035,-0.125
1199,-0.035,-0.125
1200,-0.035,-0.135
1201,-0.035,-0.135
1202,-0.055,-0.155
1203,-0.045,-0.145
1204,-0.055,-0.145
1205,-0.065,-0.145
1206,-0.065,-0.155
1207,-0.055,-0.145
1208,-0.045,-0.145
1209,-0.055,-0.125
1210,-0.035,-0.105
1211,0.025,-0.065
1212,0.035,-0.075
1213,0.045,-0.055
1214,0.075,-0.085
1215,0.135,-0.055
1216,0.135,-0.055
1217,0.065,-0.085
1218,0.055,-0.105
1219,0.015,-0.135
1220,-0.075,-0.145
1221,-0.075,-0.135
1222,-0.095,-0.155
1223,-0.115,-0.155
1224,-0.085,-0.135
1225,-0.075,-0.125
1226,-0.165,-0.045
1227,0.025,0.075
1228,0.665,0.365
1229,1.545,0.355
1230,2.375,-0.125
1231,1.995,-0.585
1232,0.065,-0.835
1233,-0.865,-0.595
1234,-0.695,-0.305
1235,-0.385,-0.145
1236,-0.285,-0.085
1237,-0.215,-0.075
1238,-0.215,-0.085
1239,-0.195,-0.065
1240,-0.195,-0.065
1241,-0.205,-0.075
1242,-0.195,-0.075
1243,-0.185,-0.055
1244,-0.175,-0.045
1245,-0.175,-0.035
1246,-0.175,-0.025
1247,-0.165,-0.015
1248,-0.145,0.005
1249,-0.165,0.015
1250,-0.155,0.015
1251,-0.145,0.055
1252,-0.145,0.075
1253,-0.125,0.115
1254,-0.115,0.135
1255,-0.105,0.165
1256,-0.085,0.215
1257,-0.085,0.225
1258,-0.085,0.235
1259,-0.075,0.255
1260,-0.095,0.255
1261,-0.075,0.255
1262,-0.065,0.225
1263,-0.095,0.195
1264,-0.045,0.175
1265,-0.035,0.105
1266,-0.015,0.025
1267,-0.025,-0.025
1268,-0.035,-0.055
1269,-0.035,-0.095
1270,-0.035,-0.125
1271,-0.055,-0.125
1272,-0.035,-0.125
1273,-0.055,-0.125
1274,-0.055,-0.135
1275,-0.065,-0.135
1276,-0.075,-0.125
1277,-0.065,-0.125
1278,-0.065,-0.125
1279,-0.075,-0.115
1280,-0.055,-0.105
1281,-0.055,-0.105
1282,-0.045,-0.105
1283,-0.045,-0.095
1284,-0.035,-0.085
1285,-0.045,-0.085
1286,-0.025,-0.095
1287,-0.015,-0.095
1288,-0.005,-0.085
1289,-0.005,-0.095
1290,-0.015,-0.115
1291,-0.005,-0.115
1292,-0.025,-0.105
1293,-0.025,-0.125
1294,-0.025,-0.125
1295,0.005,-0.135
1296,0.015,-0.135
1297,-0.025,-0.135
1298,-0.025,-0.155
1299,-0.025,-0.155
1300,-0.035,-0.155
1301,-0.035,-0.165
1302,-0.035,-0.185
1303,-0.025,-0.185
1304,-0.015,-0.155
1305,-0.035,-0.175
1306,-0.035,-0.165
1307,-0.005,-0.135
1308,0.055,-0.065
1309,0.045,-0.075
1310,0.035,-0.075
1311,0.105,-0.095
1312,0.175,-0.065
1313,0.195,-0.045
1314,0.115,-0.115
1315,0.085,-0.135
1316,0.055,-0.155
1317,-0.025,-0.195
1318,-0.035,-0.185
1319,-0.055,-0.205
1320,-0.065,-0.185
1321,-0.075,-0.185
1322,-0.105,-0.185
1323,-0.115,-0.035
1324,0.075,0.125
1325,0.805,0.605
1326,1.635,0.535
1327,2.455,-0.175
1328,2.065,-0.835
1329,0.225,-1.125
1330,-0.805,-0.795
1331,-0.695,-0.385
1332,-0.395,-0.165
1333,-0.245,-0.105
1334,-0.195,-0.105
1335,-0.205,-0.105
1336,-0.185,-0.095
1337,-0.195,-0.095
1338,-0.185,-0.095
1339,-0.165,-0.075
1340,-0.165,-0.065
1341,-0.175,-0.055
1342,-0.175,-0.055
1343,-0.155,-0.035
1344,-0.145,-0.015
1345,-0.155,-0.005
1346,-0.145,0.005
1347,-0.115,0.025
1348,-0.135,0.055
1349,-0.115,0.085
1350,-0.115,0.115
1351,-0.105,0.135
1352,-0.085,0.175
1353,-0.085,0.205
1354,-0.075,0.215
1355,-0.075,0.235
1356,-0.085,0.245
1357,-0.085,0.245
1358,-0.075,0.225
1359,-0.045,0.205
1360,-0.045,0.185
1361,-0.025,0.145
1362,-0.015,0.075
1363,0.005,0.035
1364,-0.015,-0.025
1365,-0.035,-0.055
1366,-0.025,-0.095
1367,-0.015,-0.115
1368,-0.035,-0.115
1369,-0.055,-0.135
1370,-0.025,-0.145
1371,-0.025,-0.135
1372,-0.055,-0.135
1373,-0.045,-0.125
1374,-0.035,-0.125
1375,-0.045,-0.125
1376,-0.035,-0.105
1377,-0.035,-0.105
1378,-0.045,-0.115
1379,-0.035,-0.095
1380,-0.025,-0.085
1381,-0.005,-0.085
1382,0.005,-0.095
1383,-0.005,-0.095
1384,0.025,-0.085
1385,0.005,-0.095
1386,0.005,-0.105
1387,0.005,-0.115
1388,0.025,-0.105
1389,0.025,-0.115
1390,-0.005,-0.125
1391,0.005,-0.125
1392,0.025,-0.135
1393,0.025,-0.135
1394,-0.005,-0.145
1395,0.005,-0.145
1396,-0.005,-0.135
1397,-0.015,-0.155
1398,-0.015,-0.155
1399,-0.035,-0.155
1400,0.015,-0.155
1401,-0.005,-0.155
1402,-0.005,-0.165
1403,-0.005,-0.175
1404,-0.005,-0.155
1405,0.015,-0.155
1406,0.005,-0.155
1407,0.025,-0.125
1408,0.095,-0.065
1409,0.085,-0.075
1410,0.085,-0.065
1411,0.115,-0.105
1412,0.145,-0.065
1413,0.155,-0.055
1414,0.115,-0.105
1415,0.115,-0.115
1416,0.085,-0.145
1417,0.015,-0.185
1418,-0.025,-0.185
1419,-0.025,-0.195
1420,-0.055,-0.195
1421,-0.055,-0.175
1422,-0.025,-0.165
1423,-0.115,-0.035
1424,0.045,0.125
1425,0.675,0.585
1426,1.465,0.505
1427,2.255,-0.255
1428,1.795,-0.845
1429,0.035,-1.085
1430,-0.775,-0.735
1431,-0.585,-0.365
1432,-0.335,-0.165
1433,-0.245,-0.105
1434,-0.195,-0.095
1435,-0.185,-0.085
1436,-0.185,-0.095
1437,-0.195,-0.075
1438,-0.185,-0.085
1439,-0.185,-0.075
1440,-0.165,-0.055
1441,-0.175,-0.045
1442,-0.165,-0.045
1443,-0.165,-0.035
1444,-0.145,-0.015
1445,-0.145,-0.005
1446,-0.145,0.005
1447,-0.125,0.035
1448,-0.125,0.065
1449,-0.115,0.095
1450,-0.115,0.105
1451,-0.135,0.135
1452,-0.115,0.175
1453,-0.095,0.205
1454,-0.115,0.215
1455,-0.095,0.235
1456,-0.065,0.255
1457,-0.065,0.255
1458,-0.125,0.225
1459,-0.075,0.225
1460,-0.085,0.205
1461,-0.055,0.175
1462,-0.045,0.105
1463,-0.025,0.055
1464,-0.015,0.005
1465,-0.065,-0.045
1466,-0.045,-0.095
1467,-0.035,-0.105
1468,-0.055,-0.105
1469,-0.055,-0.125
1470,-0.075,-0.135
1471,-0.045,-0.125
1472,-0.045,-0.125
1473,-0.065,-0.125
1474,-0.065,-0.125
1475,-0.065,-0.115
1476,-0.065,-0.105
1477,-0.065,-0.105
1478,-0.045,-0.105
1479,-0.065,-0.095
1480,-0.035,-0.085
1481,-0.055,-0.085
1482,-0.035,-0.095
1483,-0.035,-0.085
1484,-0.015,-0.085
1485,-0.015,-0.085
1486,-0.025,-0.105
1487,-0.005,-0.105
1488,-0.065,-0.095
1489,-0.005,-0.105
1490,-0.025,-0.125
1491,-0.005,-0.125
1492,-0.055,-0.135
1493,-0.025,-0.125
1494,-0.045,-0.135
1495,-0.035,-0.145
1496,-0.035,-0.145
1497,-0.055,-0.145
1498,-0.085,-0.145
1499,-0.055,-0.155
1500,-0.085,-0.145
1501,-0.075,-0.145
1502,-0.055,-0.155
1503,-0.055,-0.155
1504,-0.045,-0.145
1505,-0.075,-0.165
1506,-0.075,-0.165
1507,-0.065,-0.155
1508,-0.065,-0.135
1509,-0.015,-0.085
1510,0.035,-0.065
1511,0.035,-0.085
1512,0.045,-0.065
1513,0.075,-0.085
1514,0.155,-0.055
1515,0.135,-0.065
1516,0.065,-0.085
1517,0.065,-0.105
1518,0.005,-0.155
1519,-0.055,-0.175
1520,-0.075,-0.165
1521,-0.095,-0.185
1522,-0.115,-0.205
1523,-0.185,-0.195
1524,-0.085,-0.155
1525,-0.135,-0.055
1526,0.015,0.085
1527,0.765,0.525
1528,1.685,0.535
1529,2.545,-0.235
1530,1.885,-0.835
1531,-0.155,-1.095
1532,-0.985,-0.725
1533,-0.685,-0.365
1534,-0.375,-0.155
1535,-0.265,-0.105
1536,-0.205,-0.075
1537,-0.225,-0.095
1538,-0.225,-0.095
1539,-0.245,-0.085
1540,-0.245,-0.075
1541,-0.225,-0.065
1542,-0.195,-0.075
1543,-0.195,-0.055
1544,-0.215,-0.025
1545,-0.175,-0.025
1546,-0.175,-0.025
1547,-0.185,0.005
1548,-0.185,0.025
1549,-0.175,0.035
1550,-0.165,0.055
1551,-0.175,0.075
1552,-0.145,0.115
1553,-0.155,0.145
1554,-0.165,0.155
1555,-0.105,0.185
1556,-0.115,0.215
1557,-0.135,0.225
1558,-0.105,0.225
1559,-0.105,0.225
1560,-0.095,0.235
1561,-0.125,0.215
1562,-0.115,0.185
1563,-0.135,0.145
1564,-0.085,0.105
1565,-0.055,0.045
1566,-0.075,-0.025
1567,-0.045,-0.055
1568,-0.035,-0.085
1569,-0.055,-0.095
1570,-0.075,-0.115
1571,-0.085,-0.125
1572,-0.085,-0.115
1573,-0.105,-0.125
1574,-0.085,-0.135
1575,-0.055,-0.135
1576,-0.085,-0.115
1577,-0.075,-0.115
1578,-0.075,-0.115
1579,-0.085,-0.115
1580,-0.065,-0.105
1581,-0.085,-0.105
1582,-0.055,-0.095
1583,-0.045,-0.095
1584,-0.045,-0.085
1585,-0.075,-0.085
1586,-0.035,-0.105
1587,-0.045,-0.105
1588,-0.085,-0.105
1589,-0.015,-0.105
1590,-0.055,-0.125
1591,-0.035,-0.125
1592,-0.035,-0.115
1593,-0.035,-0.125
1594,-0.055,-0.135
1595,-0.065,-0.145
1596,-0.065,-0.145
1597,-0.075,-0.145
1598,-0.055,-0.165
1599,-0.095,-0.155
1600,-0.075,-0.145
1601,-0.075,-0.155
1602,-0.085,-0.165
1603,-0.065,-0.165
1604,-0.085,-0.165
1605,-0.095,-0.165
1606,-0.105,-0.175
1607,-0.095,-0.175
1608,-0.085,-0.165
1609,-0.075,-0.165
1610,-0.105,-0.175
1611,-0.065,-0.155
1612,-0.055,-0.095
1613,0.035,-0.065
1614,0.025,-0.085
1615,0.025,-0.095
1616,0.065,-0.095
1617,0.095,-0.045
1618,0.075,-0.105
1619,0.065,-0.115
1620,0.025,-0.125
1621,-0.065,-0.185
1622,-0.115,-0.205
1623,-0.125,-0.205
1624,-0.135,-0.205
1625,-0.155,-0.195
1626,-0.145,-0.195
1627,-0.145,-0.125
1628,-0.205,0.035
1629,0.265,0.315
1630,1.245,0.715
1631,2.215,0.125
1632,2.555,-0.645
1633,0.875,-0.995
1634,-0.815,-0.995
1635,-0.885,-0.525
1636,-0.555,-0.245
1637,-0.355,-0.135
1638,-0.265,-0.115
1639,-0.255,-0.105
1640,-0.245,-0.095
1641,-0.245,-0.105
1642,-0.235,-0.115
1643,-0.225,-0.095
1644,-0.235,-0.075
1645,-0.225,-0.065
1646,-0.215,-0.075
1647,-0.225,-0.055
1648,-0.205,-0.025
1649,-0.215,-0.015
1650,-0.195,-0.015
1651,-0.185,0.005
1652,-0.175,0.025
1653,-0.165,0.055
1654,-0.155,0.065
1655,-0.165,0.085
1656,-0.145,0.135
1657,-0.135,0.155
1658,-0.145,0.175
1659,-0.135,0.185
1660,-0.175,0.215
1661,-0.135,0.215
1662,-0.145,0.205
1663,-0.145,0.195
1664,-0.145,0.195
1665,-0.115,0.175
1666,-0.145,0.125
1667,-0.095,0.085
1668,-0.105,0.025
1669,-0.085,-0.015
1670,-0.105,-0.075
1671,-0.085,-0.095
1672,-0.085,-0.115
1673,-0.095,-0.125
1674,-0.105,-0.145
1675,-0.115,-0.135
1676,-0.125,-0.135
1677,-0.105,-0.135
1678,-0.135,-0.135
1679,-0.095,-0.135
1680,-0.115,-0.135
1681,-0.115,-0.115
1682,-0.085,-0.125
1683,-0.075,-0.115
1684,-0.115,-0.105
1685,-0.075,-0.095
1686,-0.075,-0.115
1687,-0.085,-0.105
1688,-0.065,-0.095
1689,-0.065,-0.095
1690,-0.075,-0.115
1691,-0.075,-0.115
1692,-0.085,-0.115
1693,-0.065,-0.115
1694,-0.095,-0.135
1695,-0.105,-0.145
1696,-0.055,-0.125
1697,-0.085,-0.145
1698,-0.075,-0.155
1699,-0.105,-0.155
1700,-0.115,-0.155
1701,-0.115,-0.155
1702,-0.105,-0.165
1703,-0.105,-0.175
1704,-0.105,-0.165
1705,-0.115,-0.165
1706,-0.125,-0.175
1707,-0.125,-0.175
1708,-0.125,-0.165
1709,-0.135,-0.175
1710,-0.135,-0.185
1711,-0.125,-0.175
1712,-0.125,-0.155
1713,-0.125,-0.125
1714,-0.045,-0.085
1715,-0.025,-0.095
1716,-0.015,-0.075
1717,0.025,-0.095
1718,0.075,-0.075
1719,0.105,-0.045
1720,0.045,-0.105
1721,0.005,-0.115
1722,-0.025,-0.175
1723,-0.125,-0.195
1724,-0.145,-0.165
1725,-0.135,-0.205
1726,-0.205,-0.215
1727,-0.145,-0.195
1728,-0.085,-0.165
1729,-0.175,-0.075
1730,-0.115,0.095
1731,0.555,0.475
1732,1.415,0.795
1733,2.335,0.135
1734,2.325,-0.665
1735,0.525,-0.965
1736,-0.875,-0.865
1737,-0.825,-0.465
1738,-0.565,-0.245
1739,-0.355,-0.155
1740,-0.315,-0.115
1741,-0.275,-0.125
1742,-0.255,-0.125
1743,-0.275,-0.105
1744,-0.245,-0.095
1745,-0.235,-0.095
1746,-0.245,-0.105
1747,-0.305,-0.095
1748,-0.235,-0.075
1749,-0.195,-0.055
1750,-0.235,-0.045
1751,-0.215,-0.035
1752,-0.195,-0.015
1753,-0.225,-0.005
1754,-0.185,0.015
1755,-0.175,0.035
1756,-0.195,0.055
1757,-0.185,0.085
1758,-0.225,0.105
1759,-0.145,0.135
1760,-0.115,0.165
1761,-0.135,0.175
1762,-0.145,0.165
1763,-0.175,0.175
1764,-0.185,0.165
1765,-0.175,0.165
1766,-0.165,0.135
1767,-0.145,0.115
1768,-0.145,0.085
1769,-0.125,0.045
1770,-0.085,-0.015
1771,-0.095,-0.055
1772,-0.135,-0.085
1773,-0.115,-0.105
1774,-0.115,-0.135
1775,-0.085,-0.125
1776,-0.115,-0.125
1777,-0.115,-0.135
1778,-0.145,-0.135
1779,-0.115,-0.145
1780,-0.115,-0.115
1781,-0.105,-0.125
1782,-0.165,-0.125
1783,-0.095,-0.115
1784,-0.085,-0.095
1785,-0.085,-0.095
1786,-0.125,-0.105
1787,-0.075,-0.095
1788,-0.085,-0.085
1789,-0.065,-0.085
1790,-0.115,-0.095
1791,-0.055,-0.105
1792,-0.005,-0.095
1793,-0.045,-0.105
1794,-0.055,-0.115
1795,-0.045,-0.115
1796,-0.075,-0.115
1797,-0.065,-0.125
1798,-0.065,-0.145
1799,-0.065,-0.135
1800,-0.075,-0.135
1801,-0.075,-0.145
1802,-0.075,-0.155
1803,-0.065,-0.155
1804,-0.105,-0.155
1805,-0.075,-0.145
1806,-0.095,-0.155
1807,-0.035,-0.105
1808,0.035,-0.065
1809,0.025,-0.065
1810,0.015,-0.075
1811,0.055,-0.085
1812,0.075,-0.055
1813,0.135,-0.045
1814,0.065,-0.095
1815,0.025,-0.115
1816,0.025,-0.145
1817,-0.095,-0.175
1818,-0.105,-0.175
1819,-0.125,-0.195
1820,-0.145,-0.185
1821,-0.135,-0.175
1822,-0.145,-0.165
1823,-0.175,-0.085
1824,-0.135,0.085
1825,0.445,0.395
1826,1.355,0.805
1827,2.305,0.235
1828,2.465,-0.595
1829,0.515,-0.965
1830,-0.895,-0.845
1831,-0.775,-0.415
1832,-0.535,-0.185
1833,-0.295,-0.115
1834,-0.245,-0.115
1835,-0.195,-0.105
1836,-0.235,-0.105
1837,-0.265,-0.115
1838,-0.215,-0.115
1839,-0.205,-0.095
1840,-0.265,-0.075
1841,-0.175,-0.075
1842,-0.155,-0.075
1843,-0.255,-0.055
1844,-0.165,-0.035
1845,-0.195,-0.025
1846,-0.195,-0.015
1847,-0.155,-0.005
1848,-0.135,0.035
1849,-0.105,0.055
1850,-0.125,0.065
1851,-0.155,0.085
1852,-0.115,0.135
1853,-0.115,0.155
1854,-0.135,0.175
1855,-0.095,0.185
1856,-0.105,0.195
1857,-0.085,0.195
1858,-0.105,0.175
1859,-0.135,0.155
1860,-0.125,0.145
1861,-0.115,0.125
1862,-0.115,0.065
1863,-0.055,0.025
1864,-0.055,-0.025
1865,-0.045,-0.075
1866,-0.055,-0.105
1867,-0.065,-0.115
1868,-0.075,-0.115
1869,-0.055,-0.125
1870,-0.055,-0.145
1871,-0.065,-0.145
1872,-0.065,-0.125
1873,-0.075,-0.125
1874,-0.105,-0.135
1875,-0.055,-0.125
1876,-0.055,-0.105
1877,-0.075,-0.105
1878,-0.095,-0.105
1879,-0.005,-0.085
1880,-0.015,-0.085
1881,0.025,-0.075
1882,-0.025,-0.095
1883,-0.005,-0.085
1884,-0.025,-0.085
1885,-0.015,-0.095
1886,0.025,-0.095
1887,0.015,-0.105
1888,-0.045,-0.105
1889,-0.015,-0.115
1890,-0.015,-0.125
1891,-0.025,-0.135
1892,-0.035,-0.135
1893,-0.025,-0.135
1894,-0.035,-0.145
1895,-0.095,-0.155
1896,-0.065,-0.145
1897,-0.055,-0.145
1898,-0.045,-0.155
1899,-0.085,-0.155
1900,-0.085,-0.145
1901,-0.025,-0.105
1902,0.015,-0.065
1903,0.045,-0.075
1904,0.005,-0.045
1905,0.055,-0.075
1906,0.115,-0.075
1907,0.145,-0.045
1908,0.035,-0.085
1909,0.055,-0.115
1910,0.055,-0.145
1911,-0.105,-0.185
1912,-0.055,-0.155
1913,-0.085,-0.195
1914,-0.175,-0.215
1915,-0.115,-0.195
1916,-0.105,-0.175
1917,-0.145,-0.065
1918,-0.065,0.085
1919,0.645,0.495
1920,1.475,0.605
1921,2.305,-0.075
1922,2.005,-0.755
1923,0.395,-1.085
1924,-0.785,-0.875
1925,-0.705,-0.425
1926,-0.415,-0.175
1927,-0.305,-0.105
1928,-0.235,-0.085
1929,-0.225,-0.095
1930,-0.255,-0.115
1931,-0.215,-0.105
1932,-0.215,-0.085
1933,-0.215,-0.075
1934,-0.215,-0.085
1935,-0.195,-0.055
1936,-0.205,-0.045
1937,-0.195,-0.035
1938,-0.195,-0.035
1939,-0.165,-0.015
1940,-0.175,0.005
1941,-0.165,0.025
1942,-0.175,0.035
1943,-0.165,0.065
1944,-0.145,0.095
1945,-0.145,0.115
1946,-0.145,0.145
1947,-0.125,0.165
1948,-0.125,0.215
1949,-0.135,0.225
1950,-0.135,0.225
1951,-0.125,0.225
1952,-0.125,0.235
1953,-0.125,0.215
1954,-0.125,0.175
1955,-0.105,0.155
1956,-0.095,0.105
1957,-0.075,0.045
1958,-0.075,-0.015
1959,-0.065,-0.055
1960,-0.045,-0.085
1961,-0.055,-0.105
1962,-0.055,-0.125
1963,-0.055,-0.135
1964,-0.075,-0.125
1965,-0.065,-0.135
1966,-0.075,-0.145
1967,-0.075,-0.135
1968,-0.085,-0.105
1969,-0.105,-0.085
1970,-0.095,-0.085
1971,-0.095,-0.075
1972,-0.105,-0.055
1973,-0.025,-0.045
1974,-0.035,-0.065
1975,-0.075,-0.065
1976,-0.045,-0.065
1977,0.005,-0.075
1978,-0.015,-0.095
1979,-0.065,-0.095
1980,-0.025,-0.095
1981,-0.025,-0.105
1982,-0.015,-0.125
1983,-0.025,-0.125
1984,-0.025,-0.115
1985,-0.035,-0.125
1986,-0.065,-0.145
1987,-0.055,-0.145
1988,-0.075,-0.145
1989,-0.075,-0.135
1990,-0.085,-0.145
1991,-0.075,-0.135
1992,-0.065,-0.105
1993,-0.055,-0.075
1994,-0.015,-0.065
1995,-0.005,-0.075
1996,-0.005,-0.065
1997,0.025,-0.085
1998,0.095,-0.045
1999,0.055,-0.065
2000,0.035,-0.095
2001,0.045,-0.105
2002,-0.015,-0.175
2003,-0.085,-0.185
2004,-0.105,-0.165
2005,-0.155,-0.205
2006,-0.195,-0.205
2007,-0.075,-0.185
2008,-0.095,-0.145
2009,-0.185,-0.005
2010,0.135,0.165
2011,0.935,0.845
2012,1.795,0.605
2013,2.365,-0.345
2014,1.265,-0.895
2015,-0.435,-1.035
2016,-0.795,-0.565
2017,-0.615,-0.285
2018,-0.395,-0.175
2019,-0.285,-0.135
2020,-0.275,-0.125
2021,-0.305,-0.135
2022,-0.255,-0.135
2023,-0.255,-0.125
2024,-0.245,-0.115
2025,-0.265,-0.115
2026,-0.265,-0.115
2027,-0.245,-0.105
2028,-0.245,-0.085
2029,-0.265,-0.075
2030,-0.235,-0.075
2031,-0.175,-0.065
2032,-0.155,-0.035
2033,-0.185,-0.015
2034,-0.175,-0.015
2035,-0.185,0.005
2036,-0.185,0.035
2037,-0.145,0.055
2038,-0.145,0.085
2039,-0.145,0.105
2040,-0.125,0.125
2041,-0.145,0.115
2042,-0.155,0.105
2043,-0.155,0.115
2044,-0.175,0.125
2045,-0.155,0.105
2046,-0.145,0.085
2047,-0.165,0.075
2048,-0.075,0.045
2049,-0.065,0.005
2050,-0.085,-0.055
2051,-0.095,-0.075
2052,-0.085,-0.105
2053,-0.115,-0.115
2054,-0.125,-0.135
2055,-0.115,-0.135
2056,-0.025,-0.135
2057,-0.045,-0.135
2058,-0.095,-0.145
2059,-0.095,-0.135
2060,-0.115,-0.125
2061,-0.085,-0.115
2062,-0.125,-0.125
2063,-0.075,-0.105
2064,-0.065,-0.085
2065,-0.065,-0.085
2066,-0.065,-0.105
2067,-0.055,-0.095
2068,-0.115,-0.095
2069,-0.055,-0.085
2070,-0.025,-0.105
2071,-0.015,-0.105
2072,-0.015,-0.105
2073,-0.025,-0.115
2074,-0.065,-0.125
2075,-0.065,-0.125
2076,-0.055,-0.125
2077,-0.055,-0.135
2078,-0.065,-0.145
2079,-0.045,-0.145
2080,-0.055,-0.145
2081,-0.065,-0.155
2082,-0.085,-0.145
2083,-0.055,-0.125
2084,-0.025,-0.085
2085,-0.005,-0.085
2086,-0.015,-0.085
2087,0.055,-0.095
2088,0.045,-0.045
2089,0.135,-0.055
2090,0.115,-0.105
2091,0.025,-0.135
2092,0.005,-0.165
2093,-0.055,-0.195
2094,-0.085,-0.185
2095,-0.155,-0.215
2096,-0.105,-0.205
2097,-0.115,-0.195
2098,-0.105,-0.185
2099,-0.185,-0.055
2100,-0.065,0.125
2101,0.655,0.725
2102,1.455,0.905
2103,2.285,0.125
2104,1.935,-0.695
2105,0.245,-1.055
2106,-0.825,-0.885
2107,-0.725,-0.485
2108,-0.505,-0.285
2109,-0.335,-0.185
2110,-0.255,-0.155
2111,-0.225,-0.145
2112,-0.205,-0.135
2113,-0.205,-0.135
2114,-0.205,-0.135
2115,-0.195,-0.125
2116,-0.185,-0.105
2117,-0.185,-0.115
2118,-0.185,-0.115
2119,-0.165,-0.085
2120,-0.145,-0.075
2121,-0.145,-0.065
2122,-0.145,-0.065
2123,-0.115,-0.055
2124,-0.115,-0.025
2125,-0.115,-0.015
2126,-0.155,-0.005
2127,-0.105,0.025
2128,-0.035,0.045
2129,-0.065,0.075
2130,-0.055,0.075
2131,-0.075,0.085
2132,-0.045,0.085
2133,-0.065,0.085
2134,-0.065,0.085
2135,-0.095,0.085
2136,-0.085,0.075
2137,-0.025,0.065
2138,-0.065,0.065
2139,-0.025,0.045
2140,0.005,-0.005
2141,-0.015,-0.035
2142,-0.045,-0.075
2143,-0.035,-0.095
2144,-0.055,-0.115
2145,-0.035,-0.115
2146,-0.075,-0.135
2147,-0.085,-0.145
2148,-0.045,-0.135
2149,-0.065,-0.125
2150,-0.075,-0.125
2151,-0.055,-0.135
2152,-0.055,-0.115
2153,-0.025,-0.125
2154,-0.035,-0.115
2155,-0.065,-0.115
2156,-0.035,-0.115
2157,-0.055,-0.115
2158,-0.025,-0.125
2159,-0.025,-0.125
2160,-0.015,-0.115
2161,-0.015,-0.125
2162,-0.055,-0.135
2163,-0.035,-0.135
2164,-0.025,-0.135
2165,-0.035,-0.135
2166,-0.075,-0.175
2167,-0.055,-0.165
2168,-0.025,-0.155
2169,-0.055,-0.165
2170,-0.065,-0.175
2171,-0.055,-0.165
2172,-0.055,-0.135
2173,-0.025,-0.095
2174,-0.005,-0.105
2175,0.005,-0.075
2176,0.035,-0.095
2177,0.075,-0.075
2178,0.125,-0.075
2179,0.055,-0.125
2180,0.015,-0.125
2181,-0.005,-0.175
2182,-0.085,-0.215
2183,-0.125,-0.205
2184,-0.125,-0.215
2185,-0.135,-0.215
2186,-0.125,-0.215
2187,-0.105,-0.195
2188,-0.175,-0.065
2189,-0.015,0.105
2190,0.615,0.585
2191,1.375,0.885
2192,2.175,0.255
2193,1.825,-0.625
2194,0.245,-1.045
2195,-0.725,-0.885
2196,-0.735,-0.515
2197,-0.575,-0.335
2198,-0.415,-0.235
2199,-0.315,-0.175
2200,-0.215,-0.155
2201,-0.215,-0.155
2202,-0.235,-0.185
2203,-0.235,-0.155
2204,-0.245,-0.145
2205,-0.225,-0.135
2206,-0.235,-0.125
2207,-0.245,-0.135
2208,-0.205,-0.105
2209,-0.175,-0.105
2210,-0.215,-0.095
2211,-0.175,-0.085
2212,-0.175,-0.065
2213,-0.185,-0.055
2214,-0.165,-0.025
2215,-0.145,-0.005
2216,-0.145,0.015
2217,-0.125,0.035
2218,-0.125,0.035
2219,-0.125,0.065
2220,-0.145,0.085
2221,-0.145,0.085
2222,-0.105,0.065
2223,-0.105,0.075
2224,-0.105,0.085
2225,-0.125,0.065
2226,-0.135,0.055
2227,-0.075,0.035
2228,-0.075,0.015
2229,-0.055,-0.025
2230,-0.095,-0.075
2231,-0.115,-0.095
2232,-0.105,-0.115
2233,-0.085,-0.125
2234,-0.115,-0.145
2235,-0.105,-0.135
2236,-0.155,-0.135
2237,-0.125,-0.135
2238,-0.135,-0.145
2239,-0.145,-0.145
2240,-0.115,-0.135
2241,-0.135,-0.125
2242,-0.115,-0.135
2243,-0.115,-0.115
2244,-0.105,-0.105
2245,-0.115,-0.105
2246,-0.095,-0.105
2247,-0.095,-0.105
2248,-0.055,-0.085
2249,-0.045,-0.095
2250,-0.065,-0.105
2251,-0.055,-0.105
2252,-0.075,-0.105
2253,-0.055,-0.105
2254,-0.035,-0.125
2255,-0.045,-0.125
2256,-0.075,-0.115
2257,-0.075,-0.125
2258,-0.075,-0.135
2259,-0.065,-0.095
2260,-0.015,-0.065
2261,-0.025,-0.065
2262,-0.025,-0.055
2263,0.015,-0.085
2264,0.125,-0.055
2265,0.125,-0.055
2266,0.035,-0.105
2267,0.025,-0.115
2268,-0.035,-0.145
2269,-0.105,-0.175
2270,-0.145,-0.175
2271,-0.155,-0.205
2272,-0.145,-0.195
2273,-0.135,-0.185
2274,-0.165,-0.185
2275,-0.165,-0.095
2276,-0.095,0.085
2277,0.515,0.445
2278,1.335,0.875
2279,2.305,0.325
2280,2.265,-0.535
2281,0.485,-0.905
2282,-0.865,-0.935
2283,-0.795,-0.515
2284,-0.595,-0.305
2285,-0.405,-0.195
2286,-0.285,-0.145
2287,-0.215,-0.135
2288,-0.225,-0.125
2289,-0.245,-0.125
2290,-0.225,-0.135
2291,-0.245,-0.115
2292,-0.255,-0.105
2293,-0.195,-0.095
2294,-0.175,-0.095
2295,-0.185,-0.075
2296,-0.155,-0.055
2297,-0.195,-0.045
2298,-0.215,-0.055
2299,-0.145,-0.035
2300,-0.155,-0.015
2301,-0.145,0.005
2302,-0.145,0.025
2303,-0.115,0.045
2304,-0.115,0.075
2305,-0.105,0.105
2306,-0.105,0.115
2307,-0.075,0.125
2308,-0.085,0.145
2309,-0.075,0.145
2310,-0.075,0.125
2311,-0.055,0.125
2312,-0.025,0.135
2313,-0.025,0.105
2314,-0.045,0.065
2315,-0.035,0.035
2316,-0.045,-0.005
2317,-0.045,-0.055
2318,-0.085,-0.105
2319,-0.075,-0.115
2320,-0.065,-0.105
2321,-0.105,-0.115
2322,-0.105,-0.135
2323,-0.135,-0.135
2324,-0.075,-0.135
2325,-0.075,-0.115
2326,-0.125,-0.135
2327,-0.075,-0.125
2328,-0.065,-0.115
2329,-0.085,-0.115
2330,-0.115,-0.115
2331,-0.095,-0.115
2332,-0.065,-0.095
2333,-0.145,-0.085
2334,-0.035,-0.095
2335,-0.035,-0.095
2336,-0.045,-0.075
2337,-0.025,-0.085
2338,-0.035,-0.105
2339,-0.025,-0.095
2340,-0.055,-0.095
2341,-0.065,-0.105
2342,-0.055,-0.115
2343,-0.045,-0.115
2344,-0.025,-0.115
2345,-0.035,-0.115
2346,-0.065,-0.135
2347,-0.085,-0.125
2348,-0.085,-0.125
2349,-0.035,-0.115
2350,-0.025,-0.085
2351,0.025,-0.065
2352,0.025,-0.055
2353,0.005,-0.045
2354,0.025,-0.075
2355,0.065,-0.055
2356,0.105,-0.045
2357,0.045,-0.085
2358,0.055,-0.115
2359,-0.015,-0.135
2360,-0.065,-0.145
2361,-0.065,-0.145
2362,-0.155,-0.185
2363,-0.135,-0.175
2364,-0.125,-0.165
2365,-0.135,-0.155
2366,-0.185,-0.055
2367,0.045,0.065
2368,0.635,0.465
2369,1.525,0.565
2370,2.395,-0.095
2371,1.785,-0.685
2372,-0.075,-0.995
2373,-0.905,-0.775
2374,-0.735,-0.425
2375,-0.455,-0.205
2376,-0.285,-0.135
2377,-0.225,-0.105
2378,-0.225,-0.125
2379,-0.225,-0.115
2380,-0.205,-0.095
2381,-0.225,-0.095
2382,-0.235,-0.095
2383,-0.185,-0.075
2384,-0.155,-0.055
2385,-0.145,-0.045
2386,-0.175,-0.045
2387,-0.165,-0.035
2388,-0.185,-0.015
2389,-0.125,-0.005
2390,-0.155,0.005
2391,-0.125,0.025
2392,-0.125,0.055
2393,-0.105,0.075
2394,-0.115,0.115
2395,-0.075,0.145
2396,-0.075,0.185
2397,-0.035,0.195
2398,-0.045,0.205
2399,-0.005,0.205
2400,-0.025,0.225
2401,0.005,0.225
2402,0.015,0.195
2403,0.015,0.165
2404,0.005,0.145
2405,0.025,0.105
2406,0.035,0.045
2407,-0.005,-0.015
2408,-0.005,-0.035
2409,-0.015,-0.075
2410,-0.065,-0.105
2411,-0.055,-0.115
2412,-0.055,-0.105
2413,-0.085,-0.115
2414,-0.065,-0.115
2415,-0.035,-0.115
2416,-0.045,-0.115
2417,-0.055,-0.115
2418,-0.075,-0.125
2419,-0.075,-0.115
2420,-0.105,-0.095
2421,-0.075,-0.105
2422,-0.085,-0.115
2423,-0.065,-0.095
2424,-0.045,-0.085
2425,-0.055,-0.085
2426,-0.055,-0.095
2427,-0.045,-0.085
2428,-0.065,-0.075
2429,-0.055,-0.095
2430,-0.055,-0.095
2431,-0.035,-0.105
2432,-0.025,-0.095
2433,-0.025,-0.105
2434,-0.035,-0.125
2435,-0.035,-0.115
2436,-0.045,-0.115
2437,-0.045,-0.115
2438,-0.045,-0.125
2439,-0.035,-0.135
2440,-0.055,-0.125
2441,-0.055,-0.135
2442,-0.055,-0.145
2443,-0.055,-0.145
2444,-0.055,-0.115
2445,-0.005,-0.075
2446,0.005,-0.065
2447,0.025,-0.065
2448,0.015,-0.045
2449,0.085,-0.065
2450,0.145,-0.035
2451,0.135,-0.065
2452,0.075,-0.095
2453,0.045,-0.095
2454,-0.015,-0.155
2455,-0.075,-0.165
2456,-0.035,-0.145
2457,-0.115,-0.175
2458,-0.135,-0.185
2459,-0.125,-0.165
2460,-0.095,-0.145
2461,-0.145,-0.025
2462,-0.025,0.095
2463,0.585,0.535
2464,1.465,0.585
2465,2.355,-0.205
2466,1.775,-0.805
2467,-0.075,-1.125
2468,-0.915,-0.765
2469,-0.715,-0.405
2470,-0.435,-0.195
2471,-0.295,-0.115
2472,-0.265,-0.075
2473,-0.225,-0.085
2474,-0.225,-0.095
2475,-0.215,-0.085
2476,-0.265,-0.075
2477,-0.225,-0.065
2478,-0.185,-0.065
2479,-0.175,-0.055
2480,-0.185,-0.035
2481,-0.195,-0.025
2482,-0.195,-0.025
2483,-0.165,-0.005
2484,-0.185,0.015
2485,-0.165,0.025
2486,-0.155,0.035
2487,-0.155,0.065
2488,-0.135,0.105
2489,-0.145,0.115
2490,-0.125,0.145
2491,-0.075,0.175
2492,-0.125,0.205
2493,-0.075,0.215
2494,-0.075,0.215
2495,-0.075,0.225
2496,-0.065,0.225
2497,-0.035,0.215
2498,-0.065,0.185
2499,-0.015,0.165
2500,-0.055,0.125
2501,0.005,0.065
2502,-0.035,0.005
2503,-0.085,-0.045
2504,-0.015,-0.065
2505,-0.025,-0.085
2506,-0.075,-0.115
2507,-0.085,-0.115
2508,-0.115,-0.115
2509,-0.065,-0.115
2510,-0.065,-0.125
2511,-0.095,-0.115
2512,-0.045,-0.105
2513,-0.075,-0.115
2514,-0.115,-0.115
2515,-0.105,-0.105
2516,-0.095,-0.095
2517,-0.065,-0.085
2518,-0.055,-0.095
2519,-0.045,-0.105
2520,-0.025,-0.085
2521,-0.045,-0.085
2522,-0.055,-0.105
2523,-0.025,-0.105
2524,-0.035,-0.085
2525,-0.025,-0.095
2526,-0.035,-0.105
2527,-0.015,-0.105
2528,-0.005,-0.105
2529,-0.005,-0.105
2530,-0.005,-0.115
2531,-0.005,-0.115
2532,-0.005,-0.115
2533,-0.025,-0.125
2534,-0.045,-0.135
2535,-0.025,-0.125
2536,0.005,-0.095
2537,0.025,-0.055
2538,0.015,-0.075
2539,0.035,-0.055
2540,0.055,-0.065
2541,0.105,-0.045
2542,0.095,-0.055
2543,0.075,-0.085
2544,0.055,-0.105
2545,0.045,-0.125
2546,-0.045,-0.165
2547,-0.045,-0.145
2548,-0.075,-0.165
2549,-0.085,-0.165
2550,-0.095,-0.165
2551,-0.075,-0.155
2552,-0.095,-0.055
2553,-0.115,0.095
2554,0.295,0.345
2555,1.005,0.805
2556,1.845,0.385
2557,2.185,-0.385
2558,0.815,-0.825
2559,-0.545,-0.955
2560,-0.705,-0.525
2561,-0.535,-0.325
2562,-0.365,-0.185
2563,-0.245,-0.125
2564,-0.205,-0.105
2565,-0.195,-0.105
2566,-0.195,-0.115
2567,-0.175,-0.095
2568,-0.155,-0.085
2569,-0.165,-0.075
2570,-0.165,-0.085
2571,-0.155,-0.065
2572,-0.155,-0.055
2573,-0.155,-0.035
2574,-0.145,-0.035
2575,-0.115,-0.025
2576,-0.115,-0.005
2577,-0.105,0.025
2578,-0.115,0.035
2579,-0.095,0.065
2580,-0.105,0.085
2581,-0.065,0.125
2582,-0.065,0.145
2583,-0.035,0.175
2584,-0.025,0.195
2585,-0.015,0.195
2586,-0.015,0.195
2587,-0.005,0.195
2588,-0.005,0.185
2589,0.005,0.175
2590,0.005,0.135
2591,0.025,0.105
2592,0.035,0.055
2593,0.015,0.005
2594,0.005,-0.055
2595,-0.015,-0.095
2596,-0.035,-0.105
2597,-0.045,-0.125
2598,-0.045,-0.135
2599,-0.065,-0.135
2600,-0.055,-0.135
2601,-0.065,-0.135
2602,-0.065,-0.145
2603,-0.065,-0.135
2604,-0.085,-0.135
2605,-0.085,-0.125
2606,-0.085,-0.135
2607,-0.085,-0.105
2608,-0.065,-0.095
2609,-0.065,-0.105
2610,-0.065,-0.115
2611,-0.045,-0.095
2612,-0.065,-0.085
2613,-0.035,-0.105
2614,-0.055,-0.115
2615,-0.035,-0.105
2616,-0.035,-0.105
2617,-0.025,-0.115
2618,-0.035,-0.135
2619,-0.025,-0.125
2620,-0.045,-0.125
2621,-0.045,-0.145
2622,-0.055,-0.155
2623,-0.055,-0.155
2624,-0.055,-0.155
2625,-0.065,-0.155
2626,-0.065,-0.145
2627,-0.025,-0.105
2628,0.005,-0.085
2629,0.035,-0.095
2630,0.035,-0.085
2631,0.065,-0.105
2632,0.125,-0.075
2633,0.145,-0.055
2634,0.055,-0.135
2635,0.035,-0.135
2636,0.005,-0.165
2637,-0.085,-0.185
2638,-0.095,-0.185
2639,-0.115,-0.215
2640,-0.135,-0.205
2641,-0.125,-0.195
2642,-0.115,-0.195
2643,-0.155,-0.095
2644,-0.155,0.055
2645,0.385,0.305
2646,1.195,0.595
2647,2.125,0.075
2648,2.525,-0.605
2649,0.865,-0.965
2650,-0.795,-0.985
2651,-0.855,-0.545
2652,-0.555,-0.275
2653,-0.365,-0.155
2654,-0.275,-0.115
2655,-0.245,-0.105
2656,-0.225,-0.105
2657,-0.245,-0.105
2658,-0.245,-0.115
2659,-0.235,-0.105
2660,-0.235,-0.075
2661,-0.215,-0.075
2662,-0.215,-0.075
2663,-0.205,-0.055
2664,-0.185,-0.025
2665,-0.195,-0.025
2666,-0.195,-0.025
2667,-0.185,0.005
2668,-0.185,0.005
2669,-0.165,0.035
2670,-0.155,0.055
2671,-0.145,0.085
2672,-0.125,0.125
2673,-0.105,0.155
2674,-0.115,0.165
2675,-0.085,0.185
2676,-0.095,0.205
2677,-0.065,0.215
2678,-0.065,0.195
2679,-0.055,0.205
2680,-0.025,0.195
2681,-0.025,0.155
2682,-0.025,0.095
2683,-0.015,0.045
2684,-0.035,-0.005
2685,-0.035,-0.045
2686,-0.065,-0.105
2687,-0.065,-0.115
2688,-0.065,-0.125
2689,-0.085,-0.145
2690,-0.095,-0.155
2691,-0.085,-0.155
2692,-0.105,-0.165
2693,-0.105,-0.165
2694,-0.115,-0.165
2695,-0.095,-0.155
2696,-0.085,-0.145
2697,-0.095,-0.145
2698,-0.105,-0.145
2699,-0.105,-0.155
2700,-0.115,-0.135
2701,-0.105,-0.135
2702,-0.105,-0.135
2703,-0.105,-0.145
2704,-0.075,-0.135
2705,-0.095,-0.125
2706,-0.095,-0.155
2707,-0.085,-0.145
2708,-0.095,-0.145
2709,-0.075,-0.155
2710,-0.085,-0.155
2711,-0.085,-0.165
2712,-0.075,-0.155
2713,-0.085,-0.165
2714,-0.095,-0.175
2715,-0.085,-0.185
2716,-0.105,-0.175
2717,-0.095,-0.185
2718,-0.105,-0.195
2719,-0.095,-0.185
2720,-0.075,-0.185
2721,-0.105,-0.185
2722,-0.105,-0.175
2723,-0.075,-0.145
2724,-0.025,-0.105
2725,-0.015,-0.115
2726,-0.005,-0.105
2727,0.035,-0.125
2728,0.115,-0.085
2729,0.085,-0.105
2730,0.015,-0.155
2731,0.005,-0.145
2732,-0.015,-0.175
2733,-0.105,-0.215
2734,-0.125,-0.205
2735,-0.125,-0.225
2736,-0.165,-0.215
2737,-0.145,-0.205
2738,-0.135,-0.205
2739,-0.175,-0.085
2740,-0.065,0.055
2741,0.565,0.455
2742,1.415,0.445
2743,2.365,-0.205
2744,2.125,-0.785
2745,0.365,-1.075
2746,-0.875,-0.925
2747,-0.795,-0.485
2748,-0.525,-0.245
2749,-0.355,-0.155
2750,-0.275,-0.125
2751,-0.265,-0.125
2752,-0.245,-0.125
2753,-0.255,-0.115
2754,-0.255,-0.125
2755,-0.235,-0.115
2756,-0.245,-0.095
2757,-0.235,-0.095
2758,-0.235,-0.085
2759,-0.235,-0.075
2760,-0.205,-0.055
2761,-0.215,-0.045
2762,-0.225,-0.025
2763,-0.205,-0.015
2764,-0.205,0.015
2765,-0.195,0.025
2766,-0.185,0.055
2767,-0.165,0.095
2768,-0.155,0.125
2769,-0.145,0.145
2770,-0.155,0.175
2771,-0.125,0.195
2772,-0.105,0.215
2773,-0.115,0.225
2774,-0.105,0.225
2775,-0.095,0.205
2776,-0.085,0.195
2777,-0.075,0.175
2778,-0.065,0.125
2779,-0.055,0.065
2780,-0.045,0.005
2781,-0.075,-0.045
2782,-0.085,-0.095
2783,-0.095,-0.115
2784,-0.095,-0.125
2785,-0.115,-0.135
2786,-0.115,-0.155
2787,-0.125,-0.165
2788,-0.125,-0.145
2789,-0.125,-0.145
2790,-0.115,-0.145
2791,-0.115,-0.135
2792,-0.125,-0.135
2793,-0.125,-0.125
2794,-0.135,-0.135
2795,-0.125,-0.135
2796,-0.145,-0.135
2797,-0.125,-0.125
2798,-0.125,-0.135
2799,-0.125,-0.125
2800,-0.115,-0.125
2801,-0.115,-0.125
2802,-0.125,-0.135
2803,-0.115,-0.135
2804,-0.125,-0.125
2805,-0.105,-0.135
2806,-0.115,-0.155
2807,-0.115,-0.155
2808,-0.105,-0.155
2809,-0.115,-0.165
2810,-0.125,-0.175
2811,-0.125,-0.175
2812,-0.135,-0.175
2813,-0.135,-0.185
2814,-0.135,-0.195
2815,-0.135,-0.185
2816,-0.135,-0.185
2817,-0.145,-0.185
2818,-0.135,-0.195
2819,-0.145,-0.185
2820,-0.155,-0.165
2821,-0.095,-0.135
2822,-0.065,-0.115
2823,-0.055,-0.105
2824,-0.035,-0.095
2825,-0.005,-0.115
2826,0.065,-0.085
2827,0.025,-0.125
2828,-0.035,-0.145
2829,-0.045,-0.155
2830,-0.085,-0.205
2831,-0.165,-0.215
2832,-0.165,-0.185
2833,-0.185,-0.225
2834,-0.215,-0.225
2835,-0.195,-0.205
2836,-0.195,-0.185
2837,-0.235,-0.085
2838,-0.125,0.045
2839,0.485,0.395
2840,1.275,0.495
2841,2.215,-0.145
2842,1.975,-0.745
2843,0.105,-1.025
2844,-0.935,-0.785
2845,-0.805,-0.445
2846,-0.545,-0.245
2847,-0.405,-0.155
2848,-0.315,-0.115
2849,-0.315,-0.115
2850,-0.315,-0.125
2851,-0.315,-0.115
2852,-0.315,-0.105
2853,-0.295,-0.095
2854,-0.285,-0.105
2855,-0.295,-0.085
2856,-0.265,-0.065
2857,-0.265,-0.055
2858,-0.265,-0.055
2859,-0.265,-0.035
2860,-0.265,-0.015
2861,-0.245,0.005
2862,-0.255,0.005
2863,-0.235,0.025
2864,-0.225,0.065
2865,-0.215,0.095
2866,-0.215,0.115
2867,-0.205,0.125
2868,-0.205,0.175
2869,-0.185,0.195
2870,-0.185,0.185
2871,-0.175,0.185
2872,-0.155,0.195
2873,-0.155,0.185
2874,-0.155,0.165
2875,-0.135,0.125
2876,-0.135,0.075
2877,-0.105,0.025
2878,-0.105,-0.025
2879,-0.115,-0.065
2880,-0.105,-0.095
2881,-0.135,-0.125
2882,-0.145,-0.145
2883,-0.155,-0.145
2884,-0.165,-0.135
2885,-0.155,-0.145
2886,-0.165,-0.165
2887,-0.155,-0.155
2888,-0.145,-0.135
2889,-0.155,-0.135
2890,-0.165,-0.145
2891,-0.155,-0.145
2892,-0.165,-0.135
2893,-0.165,-0.135
2894,-0.175,-0.125
2895,-0.155,-0.115
2896,-0.155,-0.115
2897,-0.145,-0.125
2898,-0.155,-0.135
2899,-0.135,-0.135
2900,-0.145,-0.125
2901,-0.135,-0.135
2902,-0.135,-0.145
2903,-0.135,-0.155
2904,-0.135,-0.155
2905,-0.135,-0.155
2906,-0.145,-0.165
2907,-0.145,-0.175
2908,-0.155,-0.175
2909,-0.155,-0.165
2910,-0.165,-0.175
2911,-0.165,-0.185
2912,-0.145,-0.175
2913,-0.175,-0.175
2914,-0.175,-0.175
2915,-0.155,-0.155
2916,-0.085,-0.115
2917,-0.105,-0.105
2918,-0.095,-0.115
2919,-0.055,-0.105
2920,0.005,-0.095
2921,0.055,-0.065
2922,-0.025,-0.125
2923,-0.065,-0.145
2924,-0.045,-0.155
2925,-0.135,-0.185
2926,-0.195,-0.195
2927,-0.165,-0.205
2928,-0.225,-0.225
2929,-0.215,-0.205
2930,-0.205,-0.195
2931,-0.195,-0.135
2932,-0.265,0.035
2933,0.255,0.345
2934,1.095,0.725
2935,2.185,0.045
2936,2.055,-0.685
2937,0.105,-1.095
2938,-0.975,-0.785
2939,-0.765,-0.445
2940,-0.555,-0.265
2941,-0.385,-0.175
2942,-0.315,-0.145
2943,-0.275,-0.125
2944,-0.265,-0.125
2945,-0.275,-0.115
2946,-0.275,-0.125
2947,-0.275,-0.115
2948,-0.265,-0.095
2949,-0.255,-0.085
2950,-0.245,-0.085
2951,-0.245,-0.075
2952,-0.225,-0.055
2953,-0.225,-0.045
2954,-0.215,-0.025
2955,-0.205,-0.005
2956,-0.205,0.015
2957,-0.175,0.035
2958,-0.175,0.055
2959,-0.165,0.085
2960,-0.135,0.125
2961,-0.135,0.145
2962,-0.125,0.155
2963,-0.105,0.165
2964,-0.125,0.185
2965,-0.105,0.195
2966,-0.105,0.165
2967,-0.095,0.165
2968,-0.085,0.165
2969,-0.085,0.125
2970,-0.075,0.075
2971,-0.055,0.035
2972,-0.075,-0.015
2973,-0.075,-0.055
2974,-0.075,-0.105
2975,-0.085,-0.115
2976,-0.085,-0.125
2977,-0.095,-0.145
2978,-0.095,-0.145
2979,-0.105,-0.145
2980,-0.125,-0.145
2981,-0.115,-0.145
2982,-0.125,-0.155
2983,-0.115,-0.145
2984,-0.105,-0.115
2985,-0.105,-0.115
2986,-0.115,-0.115
2987,-0.095,-0.115
2988,-0.095,-0.105
2989,-0.085,-0.105
2990,-0.085,-0.115
2991,-0.075,-0.125
2992,-0.065,-0.105
2993,-0.055,-0.115
2994,-0.065,-0.125
2995,-0.055,-0.125
2996,-0.085,-0.125
2997,-0.075,-0.125
2998,-0.075,-0.145
2999,-0.075,-0.155
3000,-0.065,-0.145
3001,-0.085,-0.155
3002,-0.095,-0.175
3003,-0.095,-0.175
3004,-0.115,-0.155
3005,-0.105,-0.155
3006,-0.085,-0.145
3007,-0.025,-0.095
3008,0.015,-0.085
3009,0.005,-0.065
3010,0.025,-0.095
3011,0.065,-0.095
3012,0.115,-0.055
3013,0.035,-0.115
3014,-0.005,-0.145
3015,0.005,-0.165
3016,-0.065,-0.185
3017,-0.125,-0.195
3018,-0.135,-0.225
3019,-0.175,-0.225
3020,-0.165,-0.205
3021,-0.145,-0.195
3022,-0.165,-0.115
3023,-0.175,0.045
3024,0.305,0.315
3025,1.135,0.575
3026,2.085,-0.035
3027,2.455,-0.705
3028,0.805,-1.085
3029,-0.855,-1.015
3030,-0.935,-0.545
3031,-0.565,-0.235
3032,-0.345,-0.125
3033,-0.275,-0.095
3034,-0.265,-0.105
3035,-0.255,-0.105
3036,-0.275,-0.095
3037,-0.255,-0.095
3038,-0.245,-0.085
3039,-0.245,-0.085
3040,-0.225,-0.065
3041,-0.235,-0.055
3042,-0.235,-0.055
3043,-0.225,-0.035
3044,-0.225,-0.005
3045,-0.215,0.015
3046,-0.205,0.005
3047,-0.195,0.035
3048,-0.175,0.065
3049,-0.165,0.105
3050,-0.175,0.115
3051,-0.165,0.145
3052,-0.165,0.185
3053,-0.145,0.215
3054,-0.125,0.225
3055,-0.115,0.225
3056,-0.115,0.245
3057,-0.105,0.235
3058,-0.115,0.215
3059,-0.105,0.185
3060,-0.115,0.165
3061,-0.075,0.115
3062,-0.085,0.045
3063,-0.065,-0.015
3064,-0.065,-0.055
3065,-0.075,-0.095
3066,-0.095,-0.125
3067,-0.095,-0.145
3068,-0.125,-0.145
3069,-0.115,-0.145
3070,-0.125,-0.155
3071,-0.115,-0.155
3072,-0.105,-0.145
3073,-0.125,-0.145
3074,-0.125,-0.145
3075,-0.135,-0.135
3076,-0.135,-0.125
3077,-0.125,-0.125
3078,-0.135,-0.135
3079,-0.115,-0.115
3080,-0.095,-0.105
3081,-0.105,-0.115
3082,-0.105,-0.125
3083,-0.095,-0.135
3084,-0.095,-0.125
3085,-0.095,-0.125
3086,-0.095,-0.135
3087,-0.095,-0.145
3088,-0.085,-0.145
3089,-0.095,-0.145
3090,-0.105,-0.165
3091,-0.095,-0.155
3092,-0.105,-0.155
3093,-0.115,-0.165
3094,-0.115,-0.185
3095,-0.105,-0.175
3096,-0.105,-0.165
3097,-0.105,-0.175
3098,-0.115,-0.175
3099,-0.085,-0.135
3100,-0.025,-0.085
3101,-0.025,-0.095
3102,-0.025,-0.095
3103,0.015,-0.115
3104,0.095,-0.055
3105,0.085,-0.085
3106,0.015,-0.135
3107,-0.015,-0.155
3108,-0.055,-0.195
3109,-0.145,-0.215
3110,-0.125,-0.205
3111,-0.175,-0.225
3112,-0.175,-0.215
3113,-0.165,-0.205
3114,-0.145,-0.195
3115,-0.255,-0.035
3116,0.025,0.165
3117,0.855,0.685
3118,1.815,0.225
3119,2.525,-0.555
3120,1.485,-0.995
3121,-0.515,-1.115
3122,-0.955,-0.635
3123,-0.625,-0.315
3124,-0.425,-0.165
3125,-0.295,-0.125
3126,-0.265,-0.125
3127,-0.275,-0.135
3128,-0.275,-0.125
3129,-0.275,-0.125
3130,-0.285,-0.115
3131,-0.265,-0.115
3132,-0.275,-0.085
3133,-0.255,-0.085
3134,-0.255,-0.085
3135,-0.255,-0.065
3136,-0.235,-0.035
3137,-0.235,-0.025
3138,-0.235,-0.025
3139,-0.215,0.005
3140,-0.235,0.025
3141,-0.225,0.055
3142,-0.205,0.085
3143,-0.205,0.095
3144,-0.195,0.135
3145,-0.195,0.155
3146,-0.175,0.165
3147,-0.245,0.185
3148,-0.185,0.185
3149,-0.155,0.185
3150,-0.145,0.165
3151,-0.165,0.145
3152,-0.155,0.145
3153,-0.115,0.095
3154,-0.145,0.035
3155,-0.105,0.005
3156,-0.125,-0.035
3157,-0.115,-0.095
3158,-0.105,-0.135
3159,-0.085,-0.135
3160,-0.125,-0.155
3161,-0.125,-0.145
3162,-0.125,-0.175
3163,-0.135,-0.165
3164,-0.145,-0.175
3165,-0.135,-0.165
3166,-0.135,-0.175
3167,-0.135,-0.165
3168,-0.115,-0.165
3169,-0.115,-0.155
3170,-0.125,-0.165
3171,-0.115,-0.165
3172,-0.105,-0.145
3173,-0.095,-0.135
3174,-0.105,-0.155
3175,-0.095,-0.155
3176,-0.085,-0.145
3177,-0.085,-0.145
3178,-0.095,-0.165
3179,-0.085,-0.175
3180,-0.085,-0.165
3181,-0.105,-0.165
3182,-0.085,-0.175
3183,-0.085,-0.195
3184,-0.075,-0.185
3185,-0.095,-0.175
3186,-0.105,-0.195
3187,-0.105,-0.195
3188,-0.085,-0.175
3189,-0.055,-0.115
3190,0.015,-0.105
3191,-0.005,-0.115
3192,0.005,-0.105
3193,0.075,-0.115
3194,0.115,-0.085
3195,0.075,-0.115
3196,0.025,-0.135
3197,0.025,-0.165
3198,-0.065,-0.215
3199,-0.115,-0.225
3200,-0.115,-0.225
3201,-0.155,-0.225
3202,-0.155,-0.225
3203,-0.135,-0.215
3204,-0.125,-0.145
3205,-0.175,0.005
3206,0.265,0.285
3207,1.065,0.685
3208,1.915,0.175
3209,2.285,-0.575
3210,0.975,-1.015
3211,-0.585,-1.035
3212,-0.795,-0.575
3213,-0.555,-0.305
3214,-0.375,-0.185
3215,-0.275,-0.135
3216,-0.235,-0.125
3217,-0.235,-0.135
3218,-0.255,-0.145
3219,-0.255,-0.125
3220,-0.245,-0.115
3221,-0.245,-0.105
3222,-0.245,-0.095
3223,-0.225,-0.085
3224,-0.215,-0.065
3225,-0.215,-0.055
3226,-0.215,-0.055
3227,-0.205,-0.025
3228,-0.205,-0.005
3229,-0.185,0.025
3230,-0.175,0.035
3231,-0.165,0.065
3232,-0.145,0.095
3233,-0.145,0.125
3234,-0.155,0.135
3235,-0.145,0.155
3236,-0.145,0.175
3237,-0.135,0.175
3238,-0.135,0.165
3239,-0.145,0.165
3240,-0.125,0.155
3241,-0.125,0.135
3242,-0.105,0.095
3243,-0.085,0.045
3244,-0.075,0.015
3245,-0.065,-0.035
3246,-0.085,-0.095
3247,-0.085,-0.115
3248,-0.085,-0.115
3249,-0.085,-0.135
3250,-0.095,-0.145
3251,-0.095,-0.155
3252,-0.105,-0.145
3253,-0.095,-0.135
3254,-0.105,-0.145
3255,-0.095,-0.135
3256,-0.095,-0.125
3257,-0.095,-0.125
3258,-0.095,-0.125
3259,-0.085,-0.105
3260,-0.085,-0.105
3261,-0.085,-0.105
3262,-0.075,-0.115
3263,-0.065,-0.105
3264,-0.065,-0.095
3265,-0.065,-0.105
3266,-0.065,-0.115
3267,-0.065,-0.125
3268,-0.055,-0.125
3269,-0.075,-0.125
3270,-0.065,-0.125
3271,-0.065,-0.135
3272,-0.075,-0.145
3273,-0.075,-0.135
3274,-0.075,-0.145
3275,-0.085,-0.145
3276,-0.075,-0.155
3277,-0.075,-0.135
3278,-0.035,-0.075
3279,0.005,-0.085
3280,0.005,-0.065
3281,0.035,-0.075
3282,0.065,-0.085
3283,0.105,-0.035
3284,0.065,-0.095
3285,0.025,-0.115
3286,0.005,-0.125
3287,-0.045,-0.185
3288,-0.085,-0.185
3289,-0.105,-0.185
3290,-0.125,-0.205
3291,-0.135,-0.195
3292,-0.105,-0.185
3293,-0.105,-0.105
3294,-0.075,0.045
3295,0.375,0.365
3296,1.105,0.735
3297,1.815,0.075
3298,1.905,-0.695
3299,0.685,-1.135
3300,-0.535,-1.015
3301,-0.695,-0.515
3302,-0.495,-0.235
3303,-0.335,-0.135
3304,-0.255,-0.105
3305,-0.235,-0.115
3306,-0.245,-0.125
3307,-0.235,-0.115
3308,-0.235,-0.095
3309,-0.235,-0.085
3310,-0.235,-0.085
3311,-0.215,-0.065
3312,-0.205,-0.045
3313,-0.195,-0.035
3314,-0.215,-0.035
3315,-0.195,-0.015
3316,-0.195,0.005
3317,-0.185,0.025
3318,-0.175,0.035
3319,-0.155,0.065
3320,-0.155,0.105
3321,-0.145,0.125
3322,-0.155,0.135
3323,-0.135,0.165
3324,-0.145,0.195
3325,-0.125,0.215
3326,-0.125,0.195
3327,-0.125,0.195
3328,-0.125,0.205
3329,-0.125,0.195
3330,-0.115,0.155
3331,-0.085,0.125
3332,-0.085,0.075
3333,-0.055,0.035
3334,-0.055,-0.015
3335,-0.055,-0.065
3336,-0.055,-0.085
3337,-0.075,-0.115
3338,-0.085,-0.135
3339,-0.095,-0.135
3340,-0.105,-0.125
3341,-0.095,-0.125
3342,-0.105,-0.135
3343,-0.105,-0.125
3344,-0.085,-0.105
3345,-0.085,-0.105
3346,-0.085,-0.105
3347,-0.075,-0.105
3348,-0.095,-0.095
3349,-0.065,-0.085
3350,-0.065,-0.105
3351,-0.065,-0.085
3352,-0.065,-0.095
3353,-0.055,-0.095
3354,-0.075,-0.105
3355,-0.065,-0.105
3356,-0.085,-0.105
3357,-0.065,-0.115
3358,-0.085,-0.125
3359,-0.075,-0.125
3360,-0.085,-0.125
3361,-0.075,-0.135
3362,-0.095,-0.165
3363,-0.105,-0.155
3364,-0.115,-0.145
3365,-0.095,-0.115
3366,-0.035,-0.065
3367,-0.005,-0.075
3368,0.005,-0.055
3369,0.015,-0.075
3370,0.045,-0.085
3371,0.105,-0.035
3372,0.035,-0.085
3373,0.025,-0.095
3374,0.015,-0.125
3375,-0.055,-0.165
3376,-0.115,-0.165
3377,-0.135,-0.185
3378,-0.185,-0.215
3379,-0.185,-0.195
3380,-0.185,-0.185
3381,-0.155,-0.135
3382,-0.285,-0.005
3383,0.085,0.185
3384,0.895,0.765
3385,1.825,0.485
3386,2.595,-0.335
3387,1.455,-0.865
3388,-0.565,-1.095
3389,-0.985,-0.645
3390,-0.695,-0.345
3391,-0.475,-0.205
3392,-0.365,-0.145
3393,-0.335,-0.125
3394,-0.315,-0.125
3395,-0.325,-0.115
3396,-0.285,-0.125
3397,-0.455,-0.115
3398,-0.365,-0.095
3399,-0.365,-0.095
3400,-0.145,-0.095
3401,-0.205,-0.125
3402,-0.255,-0.085
3403,-0.255,-0.045
3404,-0.395,-0.055
3405,-0.305,-0.065
3406,-0.205,0.045
3407,-0.195,0.045
3408,-0.175,0.085
3409,-0.205,0.085
3410,-0.215,0.145
3411,-0.195,0.155
3412,-0.205,0.185
3413,-0.205,0.235
3414,-0.185,0.185
3415,-0.165,0.195
3416,-0.185,0.185
3417,-0.175,0.185
3418,-0.175,0.175
3419,-0.125,0.175
3420,-0.165,0.125
3421,-0.085,0.105
3422,-0.135,0.005
3423,-0.205,-0.005
3424,-0.005,-0.025
3425,-0.045,-0.075
3426,-0.095,-0.105
3427,-0.095,-0.095
3428,-0.115,-0.105
3429,-0.125,-0.115
3430,-0.135,-0.115
3431,-0.135,-0.145
3432,-0.125,-0.135
3433,-0.105,-0.095
3434,-0.085,-0.105
3435,-0.085,-0.095
3436,-0.095,-0.065
3437,-0.095,-0.075
3438,-0.075,-0.085
3439,-0.075,-0.085
3440,-0.055,-0.075
3441,-0.065,-0.085
3442,-0.055,-0.065
3443,-0.055,-0.125
3444,-0.065,-0.015
3445,-0.065,-0.075
3446,-0.065,-0.135
3447,-0.085,-0.125
3448,-0.065,-0.105
3449,-0.085,-0.165
3450,-0.235,-0.465
3451,-0.135,-0.205
3452,-0.015,-0.045
3453,0.055,0.135
3454,0.025,-0.025
3455,0.005,-0.015
3456,0.085,0.035
3457,0.165,0.045
3458,0.085,-0.015
3459,0.055,-0.035
3460,0.015,-0.055
3461,-0.015,-0.095
3462,-0.145,-0.115
3463,-0.165,-0.235
3464,-0.175,-0.185
3465,-0.115,-0.085
3466,-0.115,-0.125
3467,-0.185,-0.085
3468,-0.265,0.045
3469,0.165,0.305
3470,1.085,0.755
3471,2.185,0.545
3472,2.725,-0.135
3473,1.365,-0.645
3474,-0.555,-1.035
3475,-0.905,-0.645
3476,-0.625,-0.285
3477,-0.415,0.025
3478,-0.365,-0.315
3479,-0.235,0.065
3480,-0.235,-0.075
3481,-0.225,-0.045
3482,-0.225,-0.055
3483,-0.225,-0.065
3484,-0.235,-0.045
3485,-0.215,-0.015
3486,-0.245,-0.025
3487,-0.215,-0.005
3488,-0.195,0.015
3489,-0.195,0.025
3490,-0.205,0.035
3491,-0.175,0.065
3492,-0.185,0.075
3493,-0.195,0.085
3494,-0.175,0.075
3495,-0.185,0.135
3496,-0.145,0.225
3497,-0.195,0.235
3498,-0.155,0.185
3499,-0.135,0.125
3500,-0.145,0.305
3501,-0.105,0.335
3502,-0.115,0.295
3503,-0.125,0.255
3504,-0.125,0.205
3505,-0.135,0.185
3506,-0.125,0.125
3507,-0.085,0.065
3508,-0.155,0.035
3509,-0.085,0.065
3510,-0.075,-0.075
3511,-0.075,-0.055
3512,-0.065,-0.095
3513,-0.115,-0.185
3514,-0.105,-0.055
3515,-0.105,-0.055
3516,-0.135,-0.125
3517,-0.085,-0.075
3518,-0.115,-0.175
3519,-0.095,-0.065
3520,-0.095,-0.065
3521,-0.095,-0.205
3522,-0.085,-0.075
3523,-0.025,0.005
3524,-0.035,-0.045
3525,-0.055,-0.095
3526,-0.035,-0.055
3527,-0.045,-0.095
3528,-0.035,-0.085
3529,-0.015,-0.025
3530,-0.055,-0.095
3531,-0.035,-0.065
3532,-0.035,-0.145
3533,-0.015,-0.085
3534,-0.025,-0.115
3535,-0.015,-0.105
3536,-0.015,-0.095
3537,-0.015,-0.095
3538,-0.015,-0.065
3539,0.025,-0.035
3540,0.025,-0.005
3541,0.035,0.005
3542,0.055,-0.115
3543,0.085,-0.075
3544,0.125,-0.025
3545,0.075,-0.095
3546,0.055,-0.135
3547,0.055,-0.135
3548,-0.005,-0.145
3549,-0.005,-0.155
3550,-0.045,-0.175
3551,-0.045,-0.165
3552,-0.045,-0.145
3553,-0.045,-0.125
3554,-0.115,-0.035
3555,-0.025,0.135
3556,0.395,0.755
3557,1.055,0.705
3558,1.685,-0.005
3559,1.355,-0.665
3560,0.045,-1.175
3561,-0.535,-0.725
3562,-0.495,-0.335
3563,-0.335,-0.155
3564,-0.245,-0.105
3565,-0.185,-0.095
3566,-0.195,-0.105
3567,-0.205,-0.105
3568,-0.205,-0.105
3569,-0.215,-0.085
3570,-0.215,-0.085
3571,-0.215,-0.075
3572,-0.235,-0.075
3573,-0.235,-0.065
3574,-0.215,-0.075
3575,-0.205,-0.065
3576,-0.205,-0.035
3577,-0.215,-0.025
3578,-0.225,-0.035
3579,-0.205,0.025
3580,-0.215,0.035
3581,-0.205,0.065
3582,-0.205,0.065
3583,-0.185,0.105
3584,-0.185,0.135
3585,-0.185,0.145
3586,-0.185,0.135
3587,-0.195,0.135
3588,-0.195,0.145
3589,-0.215,0.135
3590,-0.205,0.105
3591,-0.195,0.075
3592,-0.175,0.085
3593,-0.145,0.045
3594,-0.135,-0.025
3595,-0.135,-0.075
3596,-0.135,-0.105
3597,-0.145,-0.145
3598,-0.155,-0.165
3599,-0.155,-0.175
3600,-0.145,-0.185
3601,-0.165,-0.185
3602,-0.165,-0.185
3603,-0.155,-0.185
3604,-0.175,-0.185
3605,-0.165,-0.165
3606,-0.165,-0.175
3607,-0.145,-0.155
3608,-0.135,-0.145
3609,-0.135,-0.145
3610,-0.135,-0.155
3611,-0.125,-0.145
3612,-0.135,-0.135
3613,-0.115,-0.135
3614,-0.135,-0.165
3615,-0.115,-0.155
3616,-0.115,-0.165
3617,-0.135,-0.165
3618,-0.145,-0.195
3619,-0.145,-0.195
3620,-0.155,-0.195
3621,-0.155,-0.185
3622,-0.155,-0.195
3623,-0.145,-0.165
3624,-0.065,-0.115
3625,-0.055,-0.115
3626,-0.055,-0.115
3627,-0.025,-0.125
3628,0.045,-0.105
3629,0.065,-0.105
3630,-0.005,-0.145
3631,-0.035,-0.165
3632,-0.035,-0.185
3633,-0.155,-0.215
3634,-0.155,-0.225
3635,-0.185,-0.245
3636,-0.215,-0.235
3637,-0.195,-0.225
3638,-0.175,-0.215
3639,-0.265,-0.135
3640,-0.155,0.015
3641,0.475,0.435
3642,1.345,0.745
3643,2.425,0.075
3644,2.055,-0.605
3645,0.075,-1.035
3646,-0.935,-0.835
3647,-0.775,-0.495
3648,-0.525,-0.275
3649,-0.375,-0.195
3650,-0.285,-0.165
3651,-0.275,-0.165
3652,-0.285,-0.155
3653,-0.265,-0.145
3654,-0.275,-0.175
3655,-0.275,-0.155
3656,-0.235,-0.135
3657,-0.235,-0.125
3658,-0.245,-0.125
3659,-0.225,-0.105
3660,-0.225,-0.085
3661,-0.215,-0.095
3662,-0.215,-0.085
3663,-0.205,-0.065
3664,-0.185,-0.035
3665,-0.195,-0.015
3666,-0.185,-0.005
3667,-0.175,0.015
3668,-0.175,0.045
3669,-0.165,0.065
3670,-0.155,0.065
3671,-0.165,0.085
3672,-0.165,0.085
3673,-0.185,0.065
3674,-0.205,0.065
3675,-0.195,0.065
3676,-0.185,0.045
3677,-0.155,0.055
3678,-0.155,0.015
3679,-0.115,-0.005
3680,-0.095,-0.045
3681,-0.095,-0.075
3682,-0.095,-0.115
3683,-0.095,-0.135
3684,-0.095,-0.135
3685,-0.105,-0.145
3686,-0.115,-0.165
3687,-0.105,-0.175
3688,-0.105,-0.145
3689,-0.115,-0.135
3690,-0.125,-0.145
3691,-0.115,-0.135
3692,-0.105,-0.125
3693,-0.105,-0.115
3694,-0.095,-0.125
3695,-0.085,-0.115
3696,-0.085,-0.115
3697,-0.075,-0.105
3698,-0.085,-0.115
3699,-0.075,-0.125
3700,-0.065,-0.125
3701,-0.085,-0.125
3702,-0.095,-0.155
3703,-0.085,-0.145
3704,-0.075,-0.135
3705,-0.095,-0.135
3706,-0.065,-0.115
3707,-0.035,-0.115
3708,-0.055,-0.095
3709,-0.015,-0.085
3710,0.025,-0.115
3711,0.085,-0.085
3712,0.045,-0.105
3713,-0.005,-0.125
3714,-0.015,-0.155
3715,-0.055,-0.195
3716,-0.145,-0.205
3717,-0.135,-0.195
3718,-0.185,-0.225
3719,-0.195,-0.225
3720,-0.155,-0.195
3721,-0.145,-0.165
3722,-0.305,-0.045
3723,0.045,0.145
3724,0.825,0.795
3725,1.795,0.595
3726,2.425,-0.255
3727,1.185,-0.685
3728,-0.515,-0.985
3729,-0.885,-0.585
3730,-0.665,-0.405
3731,-0.455,-0.265
3732,-0.355,-0.185
3733,-0.285,-0.155
3734,-0.275,-0.165
3735,-0.265,-0.165
3736,-0.265,-0.155
3737,-0.245,-0.135
3738,-0.245,-0.145
3739,-0.225,-0.115
3740,-0.235,-0.115
3741,-0.215,-0.105
3742,-0.215,-0.095
3743,-0.195,-0.095
3744,-0.185,-0.065
3745,-0.175,-0.055
3746,-0.175,-0.045
3747,-0.145,-0.035
3748,-0.155,-0.015
3749,-0.145,0.015
3750,-0.145,0.025
3751,-0.135,0.045
3752,-0.125,0.065
3753,-0.125,0.065
3754,-0.125,0.055
3755,-0.135,0.065
3756,-0.145,0.065
3757,-0.145,0.055
3758,-0.125,0.045
3759,-0.105,0.025
3760,-0.055,0.025
3761,-0.045,-0.015
3762,-0.035,-0.055
3763,-0.025,-0.085
3764,-0.045,-0.115
3765,-0.035,-0.135
3766,-0.045,-0.155
3767,-0.045,-0.155
3768,-0.045,-0.155
3769,-0.055,-0.155
3770,-0.065,-0.165
3771,-0.055,-0.155
3772,-0.065,-0.145
3773,-0.055,-0.135
3774,-0.055,-0.135
3775,-0.035,-0.135
3776,-0.015,-0.115
3777,-0.015,-0.115
3778,-0.015,-0.115
3779,-0.005,-0.105
3780,-0.005,-0.105
3781,-0.005,-0.105
3782,0.005,-0.115
3783,0.005,-0.115
3784,0.025,-0.105
3785,0.015,-0.115
3786,-0.015,-0.125
3787,0.025,-0.095
3788,0.055,-0.065
3789,0.075,-0.055
3790,0.065,-0.065
3791,0.115,-0.085
3792,0.165,-0.075
3793,0.175,-0.065
3794,0.075,-0.135
3795,0.055,-0.145
3796,0.035,-0.165
3797,-0.025,-0.195
3798,-0.075,-0.205
3799,-0.075,-0.215
3800,-0.095,-0.225
3801,-0.095,-0.205
3802,-0.085,-0.205
3803,-0.185,-0.105
3804,-0.105,0.025
3805,0.585,0.485
3806,1.535,0.455
3807,2.525,-0.255
3808,2.085,-0.805
3809,-0.005,-1.135
3810,-0.895,-0.745
3811,-0.675,-0.375
3812,-0.405,-0.175
3813,-0.275,-0.125
3814,-0.225,-0.125
3815,-0.215,-0.135
3816,-0.205,-0.115
3817,-0.215,-0.115
3818,-0.215,-0.115
3819,-0.215,-0.105
3820,-0.215,-0.095
3821,-0.205,-0.085
3822,-0.205,-0.085
3823,-0.195,-0.065
3824,-0.185,-0.035
3825,-0.185,-0.035
3826,-0.185,-0.025
3827,-0.175,-0.005
3828,-0.185,0.025
3829,-0.165,0.045
3830,-0.165,0.065
3831,-0.145,0.095
3832,-0.145,0.125
3833,-0.135,0.155
3834,-0.145,0.155
3835,-0.125,0.165
3836,-0.155,0.165
3837,-0.135,0.165
3838,-0.145,0.145
3839,-0.135,0.125
3840,-0.115,0.105
3841,-0.085,0.065
3842,-0.065,0.005
3843,-0.065,-0.045
3844,-0.075,-0.085
3845,-0.065,-0.125
3846,-0.065,-0.145
3847,-0.085,-0.175
3848,-0.065,-0.155
3849,-0.085,-0.165
3850,-0.095,-0.175
3851,-0.095,-0.175
3852,-0.105,-0.155
3853,-0.105,-0.165
3854,-0.095,-0.165
3855,-0.085,-0.155
3856,-0.085,-0.145
3857,-0.085,-0.125
3858,-0.105,-0.145
3859,-0.075,-0.145
3860,-0.085,-0.125
3861,-0.065,-0.125
3862,-0.075,-0.135
3863,-0.065,-0.135
3864,-0.065,-0.135
3865,-0.055,-0.125
3866,-0.075,-0.135
3867,-0.075,-0.135
3868,-0.065,-0.115
3869,0.005,-0.065
3870,0.015,-0.075
3871,0.005,-0.065
3872,0.045,-0.065
3873,0.065,-0.095
3874,0.115,-0.065
3875,0.065,-0.115
3876,0.015,-0.125
3877,0.005,-0.145
3878,-0.045,-0.195
3879,-0.125,-0.205
3880,-0.085,-0.185
3881,-0.165,-0.225
3882,-0.185,-0.215
3883,-0.145,-0.195
3884,-0.195,-0.145
3885,-0.245,-0.015
3886,0.215,0.275
3887,1.105,0.545
3888,2.145,0.005
3889,2.495,-0.615
3890,0.945,-1.005
3891,-0.735,-1.025
3892,-0.845,-0.505
3893,-0.555,-0.225
3894,-0.375,-0.155
3895,-0.275,-0.115
3896,-0.255,-0.115
3897,-0.255,-0.125
3898,-0.265,-0.125
3899,-0.255,-0.115
3900,-0.265,-0.105
3901,-0.245,-0.095
3902,-0.245,-0.095
3903,-0.245,-0.085
3904,-0.225,-0.055
3905,-0.225,-0.055
3906,-0.225,-0.045
3907,-0.225,-0.025
3908,-0.225,-0.005
3909,-0.215,0.015
3910,-0.205,0.035
3911,-0.195,0.065
3912,-0.175,0.105
3913,-0.185,0.135
3914,-0.175,0.145
3915,-0.175,0.165
3916,-0.185,0.185
3917,-0.175,0.195
3918,-0.175,0.165
3919,-0.165,0.175
3920,-0.145,0.185
3921,-0.145,0.155
3922,-0.125,0.095
3923,-0.095,0.045
3924,-0.095,-0.005
3925,-0.085,-0.055
3926,-0.095,-0.105
3927,-0.085,-0.125
3928,-0.095,-0.145
3929,-0.115,-0.145
3930,-0.115,-0.165
3931,-0.115,-0.165
3932,-0.115,-0.155
3933,-0.105,-0.165
3934,-0.115,-0.155
3935,-0.115,-0.155
3936,-0.095,-0.145
3937,-0.105,-0.145
3938,-0.105,-0.135
3939,-0.105,-0.125
3940,-0.105,-0.115
3941,-0.095,-0.115
3942,-0.095,-0.125
3943,-0.095,-0.105
3944,-0.075,-0.115
3945,-0.085,-0.115
3946,-0.085,-0.115
3947,-0.085,-0.115
3948,-0.085,-0.085
3949,-0.005,-0.045
3950,0.005,-0.065
3951,0.015,-0.045
3952,0.045,-0.065
3953,0.045,-0.085
3954,0.075,-0.055
3955,0.045,-0.095
3956,-0.035,-0.125
3957,-0.015,-0.135
3958,-0.075,-0.185
3959,-0.135,-0.195
3960,-0.125,-0.185
3961,-0.175,-0.215
3962,-0.195,-0.215
3963,-0.175,-0.195
3964,-0.185,-0.135
3965,-0.295,-0.025
3966,0.055,0.205
3967,0.855,0.635
3968,1.905,0.215
3969,2.565,-0.515
3970,1.345,-0.965
3971,-0.625,-1.085
3972,-0.955,-0.565
3973,-0.655,-0.265
3974,-0.425,-0.145
3975,-0.305,-0.115
3976,-0.285,-0.125
3977,-0.305,-0.125
3978,-0.305,-0.125
3979,-0.295,-0.125
3980,-0.275,-0.115
3981,-0.295,-0.095
3982,-0.285,-0.095
3983,-0.265,-0.085
3984,-0.265,-0.065
3985,-0.265,-0.055
3986,-0.265,-0.055
3987,-0.245,-0.035
3988,-0.235,-0.015
3989,-0.255,0.005
3990,-0.235,0.025
3991,-0.225,0.025
3992,-0.225,0.075
3993,-0.195,0.105
3994,-0.205,0.125
3995,-0.215,0.135
3996,-0.195,0.155
3997,-0.225,0.165
3998,-0.205,0.165
3999,-0.205,0.165
4000,-0.205,0.165
4001,-0.205,0.145
4002,-0.175,0.125
4003,-0.145,0.095
4004,-0.095,0.055
4005,-0.115,-0.005
4006,-0.105,-0.065
4007,-0.115,-0.095
4008,-0.115,-0.105
4009,-0.135,-0.125
4010,-0.145,-0.145
4011,-0.145,-0.135
4012,-0.145,-0.145
4013,-0.155,-0.125
4014,-0.145,-0.145
4015,-0.145,-0.135
4016,-0.145,-0.125
4017,-0.135,-0.115
4018,-0.135,-0.115
4019,-0.105,-0.105
4020,-0.065,-0.065
4021,-0.125,-0.105
4022,-0.115,-0.105
4023,-0.115,-0.105
4024,-0.095,-0.095
4025,-0.085,-0.095
4026,-0.105,-0.095
4027,-0.095,-0.105
4028,-0.075,-0.105
4029,-0.105,-0.105
4030,-0.105,-0.125
4031,-0.095,-0.115
4032,-0.045,-0.065
4033,-0.015,-0.045
4034,-0.025,-0.045
4035,0.015,-0.045
4036,0.025,-0.075
4037,0.095,-0.025
4038,0.045,-0.095
4039,-0.005,-0.115
4040,0.005,-0.115
4041,-0.055,-0.165
4042,-0.135,-0.175
4043,-0.125,-0.165
4044,-0.185,-0.195
4045,-0.185,-0.185
4046,-0.185,-0.185
4047,-0.145,-0.165
4048,-0.255,-0.045
4049,-0.135,0.075
4050,0.415,0.535
4051,1.465,0.395
4052,2.425,-0.365
4053,1.725,-0.905
4054,-0.345,-1.145
4055,-0.965,-0.635
4056,-0.695,-0.295
4057,-0.435,-0.135
4058,-0.315,-0.095
4059,-0.265,-0.095
4060,-0.285,-0.105
4061,-0.255,-0.095
4062,-0.275,-0.105
4063,-0.265,-0.085
4064,-0.245,-0.075
4065,-0.245,-0.065
4066,-0.255,-0.075
4067,-0.245,-0.055
4068,-0.255,-0.045
4069,-0.235,-0.025
4070,-0.235,-0.015
4071,-0.225,0.005
4072,-0.205,0.025
4073,-0.215,0.035
4074,-0.205,0.065
4075,-0.195,0.075
4076,-0.205,0.115
4077,-0.195,0.125
4078,-0.205,0.145
4079,-0.195,0.155
4080,-0.185,0.175
4081,-0.185,0.165
4082,-0.205,0.145
4083,-0.185,0.155
4084,-0.195,0.145
4085,-0.155,0.135
4086,-0.135,0.085
4087,-0.095,0.045
4088,-0.095,0.005
4089,-0.085,-0.045
4090,-0.105,-0.095
4091,-0.105,-0.115
4092,-0.125,-0.125
4093,-0.135,-0.125
4094,-0.135,-0.135
4095,-0.135,-0.135
4096,-0.125,-0.135
4097,-0.145,-0.135
4098,-0.135,-0.135
4099,-0.145,-0.135
4100,-0.125,-0.115
4101,-0.135,-0.105
4102,-0.125,-0.105
4103,-0.115,-0.105
4104,-0.115,-0.095
4105,-0.085,-0.095
4106,-0.105,-0.105
4107,-0.105,-0.105
4108,-0.095,-0.105
4109,-0.105,-0.105
4110,-0.095,-0.115
4111,-0.095,-0.135
4112,-0.105,-0.125
4113,-0.095,-0.125
4114,-0.105,-0.135
4115,-0.115,-0.145
4116,-0.105,-0.145
4117,-0.115,-0.155
4118,-0.125,-0.165
4119,-0.125,-0.165
4120,-0.115,-0.145
4121,-0.115,-0.155
4122,-0.125,-0.155
4123,-0.095,-0.105
4124,-0.025,-0.075
4125,-0.035,-0.075
4126,-0.025,-0.085
4127,0.005,-0.105
4128,0.095,-0.055
4129,0.065,-0.085
4130,-0.005,-0.125
4131,-0.025,-0.145
4132,-0.055,-0.175
4133,-0.135,-0.195
4134,-0.135,-0.195
4135,-0.175,-0.215
4136,-0.175,-0.205
4137,-0.175,-0.195
4138,-0.155,-0.165
4139,-0.255,-0.005
4140,0.035,0.185
4141,0.815,0.635
4142,1.655,0.225
4143,2.395,-0.485
4144,1.525,-0.965
4145,-0.375,-1.135
4146,-0.955,-0.675
4147,-0.675,-0.325
4148,-0.445,-0.165
4149,-0.305,-0.115
4150,-0.265,-0.115
4151,-0.265,-0.125
4152,-0.255,-0.115
4153,-0.245,-0.105
4154,-0.255,-0.115
4155,-0.245,-0.095
4156,-0.245,-0.085
4157,-0.225,-0.065
4158,-0.215,-0.065
4159,-0.215,-0.065
4160,-0.205,-0.035
4161,-0.205,-0.025
4162,-0.205,-0.015
4163,-0.195,0.005
4164,-0.195,0.035
4165,-0.195,0.065
4166,-0.185,0.075
4167,-0.175,0.105
4168,-0.165,0.135
4169,-0.175,0.155
4170,-0.175,0.145
4171,-0.185,0.155
4172,-0.195,0.175
4173,-0.185,0.165
4174,-0.195,0.135
4175,-0.185,0.135
4176,-0.165,0.125
4177,-0.145,0.085
4178,-0.135,0.025
4179,-0.125,-0.015
4180,-0.135,-0.065
4181,-0.135,-0.085
4182,-0.135,-0.115
4183,-0.145,-0.135
4184,-0.155,-0.135
4185,-0.155,-0.145
4186,-0.175,-0.155
4187,-0.165,-0.145
4188,-0.175,-0.135
4189,-0.175,-0.135
4190,-0.185,-0.135
4191,-0.175,-0.135
4192,-0.155,-0.115
4193,-0.165,-0.115
4194,-0.145,-0.115
4195,-0.145,-0.115
4196,-0.135,-0.095
4197,-0.155,-0.105
4198,-0.135,-0.105
4199,-0.115,-0.105
4200,-0.105,-0.115
4201,-0.115,-0.115
4202,-0.115,-0.115
4203,-0.115,-0.125
4204,-0.115,-0.125
4205,-0.135,-0.135
4206,-0.145,-0.145
4207,-0.135,-0.145
4208,-0.145,-0.135
4209,-0.135,-0.145
4210,-0.145,-0.155
4211,-0.155,-0.155
4212,-0.135,-0.155
4213,-0.165,-0.145
4214,-0.165,-0.155
4215,-0.155,-0.145
4216,-0.095,-0.105
4217,-0.055,-0.095
4218,-0.085,-0.105
4219,-0.055,-0.105
4220,0.005,-0.105
4221,0.055,-0.075
4222,0.005,-0.115
4223,-0.045,-0.135
4224,-0.045,-0.145
4225,-0.105,-0.185
4226,-0.175,-0.205
4227,-0.175,-0.205
4228,-0.205,-0.215
4229,-0.215,-0.205
4230,-0.195,-0.205
4231,-0.185,-0.135
4232,-0.255,0.045
4233,0.255,0.355
4234,1.175,0.635
4235,2.295,-0.005
4236,2.145,-0.665
4237,0.125,-1.015
4238,-0.925,-0.735
4239,-0.765,-0.405
4240,-0.535,-0.235
4241,-0.395,-0.155
4242,-0.315,-0.135
4243,-0.285,-0.135
4244,-0.315,-0.125
4245,-0.285,-0.125
4246,-0.285,-0.125
4247,-0.275,-0.115
4248,-0.275,-0.095
4249,-0.255,-0.095
4250,-0.265,-0.095
4251,-0.255,-0.075
4252,-0.265,-0.065
4253,-0.255,-0.045
4254,-0.235,-0.045
4255,-0.225,-0.025
4256,-0.215,-0.005
4257,-0.215,0.015
4258,-0.205,0.025
4259,-0.195,0.055
4260,-0.195,0.085
4261,-0.185,0.105
4262,-0.175,0.115
4263,-0.175,0.125
4264,-0.165,0.135
4265,-0.185,0.125
4266,-0.185,0.115
4267,-0.175,0.105
4268,-0.185,0.105
4269,-0.145,0.075
4270,-0.115,0.035
4271,-0.095,0.005
4272,-0.075,-0.025
4273,-0.095,-0.065
4274,-0.105,-0.095
4275,-0.105,-0.125
4276,-0.125,-0.125
4277,-0.125,-0.135
4278,-0.125,-0.145
4279,-0.115,-0.145
4280,-0.125,-0.135
4281,-0.125,-0.125
4282,-0.135,-0.135
4283,-0.125,-0.115
4284,-0.115,-0.115
4285,-0.115,-0.105
4286,-0.105,-0.115
4287,-0.085,-0.105
4288,-0.065,-0.095
4289,-0.065,-0.095
4290,-0.065,-0.095
4291,-0.055,-0.095
4292,-0.045,-0.095
4293,-0.055,-0.095
4294,-0.045,-0.105
4295,-0.035,-0.115
4296,-0.035,-0.125
4297,-0.035,-0.135
4298,-0.045,-0.135
4299,-0.045,-0.145
4300,-0.045,-0.145
4301,-0.075,-0.155
4302,-0.065,-0.165
4303,-0.065,-0.155
4304,-0.065,-0.135
4305,-0.035,-0.105
4306,0.015,-0.085
4307,0.025,-0.085
4308,0.035,-0.065
4309,0.055,-0.095
4310,0.125,-0.055
4311,0.105,-0.095
4312,0.055,-0.125
4313,0.045,-0.125
4314,-0.015,-0.185
4315,-0.085,-0.185
4316,-0.095,-0.185
4317,-0.115,-0.205
4318,-0.125,-0.205
4319,-0.105,-0.185
4320,-0.135,-0.105
4321,-0.145,0.045
4322,0.345,0.285
4323,1.195,0.575
4324,2.085,0.075
4325,2.525,-0.625
4326,1.035,-1.025
4327,-0.695,-1.075
4328,-0.895,-0.585
4329,-0.585,-0.285
4330,-0.355,-0.135
4331,-0.245,-0.095
4332,-0.235,-0.085
4333,-0.215,-0.085
4334,-0.215,-0.095
4335,-0.195,-0.075
4336,-0.195,-0.075
4337,-0.205,-0.055
4338,-0.185,-0.065
4339,-0.185,-0.035
4340,-0.185,-0.015
4341,-0.165,-0.005
4342,-0.165,-0.005
4343,-0.175,0.015
4344,-0.155,0.045
4345,-0.145,0.055
4346,-0.145,0.085
4347,-0.125,0.115
4348,-0.145,0.135
4349,-0.115,0.175
4350,-0.115,0.185
4351,-0.105,0.215
4352,-0.105,0.225
4353,-0.095,0.235
4354,-0.105,0.225
4355,-0.085,0.225
4356,-0.115,0.215
4357,-0.095,0.195
4358,-0.065,0.145
4359,-0.045,0.105
4360,-0.035,0.065
4361,-0.035,-0.005
4362,-0.045,-0.065
4363,-0.055,-0.095
4364,-0.075,-0.105
4365,-0.085,-0.125
4366,-0.085,-0.135
4367,-0.085,-0.125
4368,-0.075,-0.125
4369,-0.085,-0.135
4370,-0.095,-0.145
4371,-0.085,-0.135
4372,-0.105,-0.115
4373,-0.085,-0.105
4374,-0.095,-0.105
4375,-0.085,-0.105
4376,-0.065,-0.085
4377,-0.055,-0.085
4378,-0.065,-0.085
4379,-0.055,-0.085
4380,-0.045,-0.085
4381,-0.055,-0.085
4382,-0.045,-0.095
4383,-0.035,-0.095
4384,-0.025,-0.095
4385,-0.035,-0.095
4386,-0.035,-0.105
4387,-0.045,-0.115
4388,-0.045,-0.125
4389,-0.055,-0.105
4390,-0.055,-0.125
4391,-0.055,-0.135
4392,-0.065,-0.145
4393,-0.055,-0.125
4394,-0.055,-0.135
4395,-0.055,-0.145
4396,-0.055,-0.145
4397,-0.065,-0.145
4398,-0.065,-0.145
4399,-0.065,-0.155
4400,-0.065,-0.145
4401,-0.045,-0.135
4402,-0.035,-0.095
4403,0.025,-0.075
4404,0.045,-0.075
4405,0.035,-0.065
4406,0.075,-0.085
4407,0.155,-0.035
4408,0.115,-0.085
4409,0.045,-0.115
4410,0.045,-0.125
4411,0.005,-0.155
4412,-0.065,-0.165
4413,-0.075,-0.155
4414,-0.105,-0.195
4415,-0.125,-0.185
4416,-0.085,-0.175
4417,-0.075,-0.115
4418,-0.175,0.025
4419,0.205,0.215
4420,1.075,0.615
4421,1.965,0.135
4422,2.485,-0.605
4423,1.185,-0.995
4424,-0.635,-1.075
4425,-0.895,-0.545
4426,-0.555,-0.225
4427,-0.345,-0.115
4428,-0.215,-0.055
4429,-0.215,-0.055
4430,-0.215,-0.065
4431,-0.195,-0.055
4432,-0.195,-0.045
4433,-0.195,-0.035
4434,-0.195,-0.045
4435,-0.185,-0.035
4436,-0.185,-0.005
4437,-0.165,0.015
4438,-0.175,0.005
4439,-0.165,0.025
4440,-0.145,0.055
4441,-0.145,0.075
4442,-0.155,0.085
4443,-0.135,0.105
4444,-0.145,0.155
4445,-0.115,0.175
4446,-0.125,0.195
4447,-0.105,0.225
4448,-0.105,0.255
4449,-0.105,0.275
4450,-0.105,0.265
4451,-0.105,0.255
4452,-0.105,0.275
4453,-0.105,0.245
4454,-0.085,0.215
4455,-0.075,0.175
4456,-0.045,0.145
4457,-0.045,0.085
4458,-0.055,0.025
4459,-0.045,-0.025
4460,-0.065,-0.055
4461,-0.075,-0.075
4462,-0.085,-0.095
4463,-0.085,-0.105
4464,-0.085,-0.095
4465,-0.095,-0.115
4466,-0.105,-0.115
4467,-0.095,-0.105
4468,-0.115,-0.095
4469,-0.105,-0.095
4470,-0.105,-0.095
4471,-0.095,-0.085
4472,-0.105,-0.075
4473,-0.095,-0.075
4474,-0.085,-0.065
4475,-0.075,-0.065
4476,-0.075,-0.065
4477,-0.065,-0.075
4478,-0.055,-0.075
4479,-0.055,-0.085
4480,-0.035,-0.085
4481,-0.065,-0.085
4482,-0.055,-0.105
4483,-0.045,-0.105
4484,-0.065,-0.105
4485,-0.075,-0.115
4486,-0.075,-0.135
4487,-0.075,-0.125
4488,-0.055,-0.135
4489,-0.075,-0.135
4490,-0.085,-0.155
4491,-0.095,-0.155
4492,-0.095,-0.145
4493,-0.105,-0.145
4494,-0.085,-0.145
4495,-0.085,-0.155
4496,-0.095,-0.145
4497,-0.105,-0.155
4498,-0.115,-0.155
4499,-0.085,-0.135
4500,-0.065,-0.085
4501,-0.015,-0.065
4502,-0.025,-0.065
4503,0.005,-0.075
4504,0.045,-0.075
4505,0.095,-0.025
4506,0.045,-0.085
4507,-0.005,-0.105
4508,-0.025,-0.105
4509,-0.065,-0.155
4510,-0.145,-0.175
4511,-0.125,-0.175
4512,-0.175,-0.195
4513,-0.175,-0.185
4514,-0.155,-0.185
4515,-0.165,-0.105
4516,-0.225,0.065
4517,0.185,0.275
4518,1.005,0.705
4519,1.875,0.185
4520,2.435,-0.615
4521,1.215,-1.075
4522,-0.675,-1.165
4523,-1.005,-0.635
4524,-0.685,-0.275
4525,-0.425,-0.115
4526,-0.325,-0.095
4527,-0.275,-0.085
4528,-0.275,-0.085
4529,-0.275,-0.075
4530,-0.295,-0.075
4531,-0.275,-0.075
4532,-0.285,-0.065
4533,-0.265,-0.045
4534,-0.275,-0.045
4535,-0.245,-0.025
4536,-0.235,-0.015
4537,-0.235,-0.005
4538,-0.265,-0.005
4539,-0.225,0.035
4540,-0.225,0.055
4541,-0.225,0.085
4542,-0.215,0.085
4543,-0.205,0.125
4544,-0.185,0.145
4545,-0.195,0.195
4546,-0.185,0.215
4547,-0.175,0.235
4548,-0.185,0.225
4549,-0.185,0.255
4550,-0.195,0.235
4551,-0.185,0.225
4552,-0.175,0.225
4553,-0.195,0.175
4554,-0.155,0.125
4555,-0.125,0.085
4556,-0.135,0.005
4557,-0.145,-0.035
4558,-0.135,-0.095
4559,-0.135,-0.115
4560,-0.155,-0.125
4561,-0.175,-0.135
4562,-0.175,-0.135
4563,-0.175,-0.145
4564,-0.205,-0.145
4565,-0.185,-0.145
4566,-0.195,-0.145
4567,-0.195,-0.135
4568,-0.175,-0.125
4569,-0.185,-0.115
4570,-0.185,-0.125
4571,-0.165,-0.115
4572,-0.185,-0.105
4573,-0.165,-0.105
4574,-0.155,-0.125
4575,-0.145,-0.125
4576,-0.145,-0.125
4577,-0.135,-0.115
4578,-0.145,-0.145
4579,-0.145,-0.155
4580,-0.165,-0.145
4581,-0.135,-0.145
4582,-0.145,-0.165
4583,-0.165,-0.175
4584,-0.145,-0.155
4585,-0.155,-0.185
4586,-0.165,-0.185
4587,-0.175,-0.195
4588,-0.175,-0.175
4589,-0.185,-0.185
4590,-0.175,-0.205
4591,-0.175,-0.195
4592,-0.165,-0.185
4593,-0.175,-0.185
4594,-0.185,-0.185
4595,-0.155,-0.145
4596,-0.115,-0.115
4597,-0.095,-0.125
4598,-0.085,-0.115
4599,-0.045,-0.135
4600,0.015,-0.085
4601,0.045,-0.095
4602,-0.055,-0.155
4603,-0.075,-0.165
4604,-0.105,-0.185
4605,-0.165,-0.215
4606,-0.185,-0.215
4607,-0.215,-0.245
4608,-0.225,-0.215
4609,-0.215,-0.215
4610,-0.205,-0.205
4611,-0.285,-0.065
4612,-0.125,0.095
4613,0.665,0.665
4614,1.595,0.625
4615,2.535,-0.225
4616,1.825,-0.835
4617,-0.175,-1.165
4618,-1.035,-0.795
4619,-0.825,-0.455
4620,-0.575,-0.275
4621,-0.405,-0.185
4622,-0.335,-0.145
4623,-0.295,-0.145
4624,-0.275,-0.135
4625,-0.295,-0.145
4626,-0.295,-0.135
4627,-0.275,-0.115
4628,-0.275,-0.115
4629,-0.265,-0.105
4630,-0.255,-0.095
4631,-0.225,-0.085
4632,-0.225,-0.055
4633,-0.225,-0.045
4634,-0.215,-0.045
4635,-0.215,-0.025
4636,-0.195,0.005
4637,-0.185,0.025
4638,-0.175,0.055
4639,-0.155,0.065
4640,-0.135,0.105
4641,-0.135,0.135
4642,-0.145,0.145
4643,-0.125,0.165
4644,-0.135,0.165
4645,-0.135,0.175
4646,-0.135,0.155
4647,-0.135,0.145
4648,-0.115,0.125
4649,-0.115,0.095
4650,-0.085,0.035
4651,-0.065,-0.015
4652,-0.075,-0.055
4653,-0.065,-0.095
4654,-0.065,-0.145
4655,-0.075,-0.165
4656,-0.075,-0.165
4657,-0.095,-0.175
4658,-0.095,-0.185
4659,-0.105,-0.185
4660,-0.125,-0.185
4661,-0.115,-0.175
4662,-0.105,-0.175
4663,-0.085,-0.165
4664,-0.085,-0.145
4665,-0.085,-0.145
4666,-0.085,-0.145
4667,-0.055,-0.125
4668,-0.065,-0.125
4669,-0.045,-0.125
4670,-0.045,-0.135
4671,-0.045,-0.135
4672,-0.025,-0.125
4673,-0.025,-0.145
4674,-0.035,-0.155
4675,-0.025,-0.145
4676,-0.055,-0.155
4677,-0.035,-0.165
4678,-0.055,-0.175
4679,-0.045,-0.175
4680,-0.035,-0.175
4681,-0.065,-0.185
4682,-0.055,-0.195
4683,-0.055,-0.205
4684,-0.085,-0.195
4685,-0.075,-0.195
4686,-0.075,-0.195
4687,-0.055,-0.155
4688,0.025,-0.095
4689,0.025,-0.115
4690,-0.005,-0.115
4691,0.055,-0.135
4692,0.095,-0.115
4693,0.165,-0.075
4694,0.055,-0.165
4695,0.015,-0.175
4696,0.055,-0.185
4697,-0.045,-0.235
4698,-0.105,-0.255
4699,-0.105,-0.255
4700,-0.155,-0.255
4701,-0.135,-0.245
4702,-0.125,-0.245
4703,-0.135,-0.155
4704,-0.155,0.025
4705,0.385,0.345
4706,1.265,0.555
4707,2.245,-0.055
4708,2.495,-0.805
4709,0.955,-1.215
4710,-0.845,-1.155
4711,-0.955,-0.605
4712,-0.555,-0.255
4713,-0.335,-0.145
4714,-0.245,-0.135
4715,-0.215,-0.125
4716,-0.215,-0.135
4717,-0.225,-0.135
4718,-0.225,-0.125
4719,-0.225,-0.125
4720,-0.205,-0.115
4721,-0.195,-0.085
4722,-0.205,-0.095
4723,-0.195,-0.075
4724,-0.175,-0.045
4725,-0.175,-0.025
4726,-0.165,-0.025
4727,-0.145,0.005
4728,-0.135,0.035
4729,-0.135,0.065
4730,-0.135,0.065
4731,-0.115,0.125
4732,-0.125,0.155
4733,-0.095,0.185
4734,-0.105,0.205
4735,-0.095,0.215
4736,-0.075,0.235
4737,-0.085,0.235
4738,-0.115,0.225
4739,-0.085,0.215
4740,-0.075,0.185
4741,-0.065,0.145
4742,-0.045,0.065
4743,-0.035,0.025
4744,-0.025,-0.045
4745,-0.045,-0.085
4746,-0.055,-0.125
4747,-0.055,-0.155
4748,-0.075,-0.145
4749,-0.085,-0.165
4750,-0.075,-0.175
4751,-0.085,-0.165
4752,-0.075,-0.155
4753,-0.075,-0.155
4754,-0.075,-0.165
4755,-0.075,-0.145
4756,-0.085,-0.135
4757,-0.085,-0.135
4758,-0.085,-0.135
4759,-0.065,-0.125
4760,-0.055,-0.115
4761,-0.055,-0.125
4762,-0.055,-0.125
4763,-0.025,-0.115
4764,-0.045,-0.125
4765,-0.035,-0.125
4766,-0.055,-0.155
4767,-0.025,-0.145
4768,-0.025,-0.145
4769,-0.035,-0.155
4770,-0.055,-0.165
4771,-0.045,-0.175
4772,-0.065,-0.165
4773,-0.055,-0.175
4774,-0.075,-0.195
4775,-0.075,-0.185
4776,-0.065,-0.175
4777,-0.075,-0.185
4778,-0.085,-0.185
4779,-0.075,-0.165
4780,-0.025,-0.105
4781,0.035,-0.095
4782,0.025,-0.105
4783,0.045,-0.095
4784,0.075,-0.115
4785,0.135,-0.065
4786,0.095,-0.125
4787,0.045,-0.155
4788,0.035,-0.145
4789,-0.025,-0.205
4790,-0.115,-0.245
4791,-0.085,-0.215
4792,-0.135,-0.235
4793,-0.145,-0.215
4794,-0.155,-0.215
4795,-0.125,-0.185
4796,-0.235,-0.025
4797,0.115,0.165
4798,0.975,0.675
4799,1.925,0.285
4800,2.615,-0.505
4801,1.545,-1.055
4802,-0.575,-1.275
4803,-1.045,-0.705
4804,-0.665,-0.305
4805,-0.395,-0.155
4806,-0.285,-0.135
4807,-0.255,-0.135
4808,-0.255,-0.125
4809,-0.255,-0.125
4810,-0.245,-0.125
4811,-0.245,-0.115
4812,-0.265,-0.105
4813,-0.245,-0.095
4814,-0.235,-0.085
4815,-0.225,-0.075
4816,-0.215,-0.035
4817,-0.205,-0.035
4818,-0.215,-0.035
4819,-0.205,-0.005
4820,-0.205,0.025
4821,-0.195,0.035
4822,-0.185,0.065
4823,-0.175,0.095
4824,-0.155,0.125
4825,-0.155,0.155
4826,-0.165,0.165
4827,-0.155,0.185
4828,-0.155,0.205
4829,-0.145,0.205
4830,-0.165,0.185
4831,-0.155,0.185
4832,-0.135,0.165
4833,-0.145,0.135
4834,-0.125,0.105
4835,-0.095,0.055
4836,-0.095,-0.005
4837,-0.085,-0.055
4838,-0.085,-0.105
4839,-0.105,-0.135
4840,-0.095,-0.145
4841,-0.125,-0.155
4842,-0.125,-0.175
4843,-0.125,-0.175
4844,-0.145,-0.175
4845,-0.135,-0.165
4846,-0.145,-0.175
4847,-0.135,-0.155
4848,-0.115,-0.145
4849,-0.115,-0.135
4850,-0.115,-0.135
4851,-0.105,-0.125
4852,-0.105,-0.105
4853,-0.085,-0.115
4854,-0.095,-0.125
4855,-0.075,-0.125
4856,-0.065,-0.115
4857,-0.085,-0.135
4858,-0.095,-0.145
4859,-0.085,-0.135
4860,-0.095,-0.145
4861,-0.075,-0.145
4862,-0.095,-0.175
4863,-0.095,-0.175
4864,-0.095,-0.165
4865,-0.085,-0.175
4866,-0.115,-0.185
4867,-0.105,-0.195
4868,-0.115,-0.175
4869,-0.115,-0.185
4870,-0.115,-0.195
4871,-0.125,-0.195
4872,-0.105,-0.175
4873,-0.105,-0.155
4874,-0.055,-0.115
4875,-0.015,-0.105
4876,-0.025,-0.105
4877,0.005,-0.105
4878,0.035,-0.125
4879,0.115,-0.055
4880,0.065,-0.115
4881,0.005,-0.135
4882,-0.005,-0.165
4883,-0.075,-0.215
4884,-0.145,-0.205
4885,-0.135,-0.215
4886,-0.205,-0.235
4887,-0.185,-0.225
4888,-0.155,-0.205
4889,-0.145,-0.165
4890,-0.275,-0.015
4891,0.145,0.205
4892,1.025,0.725
4893,1.905,0.325
4894,2.485,-0.515
4895,1.445,-1.015
4896,-0.605,-1.215
4897,-1.055,-0.715
4898,-0.715,-0.365
4899,-0.455,-0.195
4900,-0.295,-0.125
4901,-0.285,-0.125
4902,-0.285,-0.135
4903,-0.275,-0.135
4904,-0.265,-0.125
4905,-0.275,-0.105
4906,-0.265,-0.105
4907,-0.255,-0.095
4908,-0.255,-0.085
4909,-0.245,-0.065
4910,-0.245,-0.055
4911,-0.225,-0.045
4912,-0.215,-0.015
4913,-0.215,-0.005
4914,-0.215,0.005
4915,-0.195,0.025
4916,-0.185,0.065
4917,-0.185,0.095
4918,-0.185,0.105
4919,-0.175,0.145
4920,-0.175,0.175
4921,-0.165,0.185
4922,-0.185,0.175
4923,-0.185,0.175
4924,-0.215,0.185
4925,-0.205,0.165
4926,-0.215,0.145
4927,-0.195,0.105
4928,-0.155,0.085
4929,-0.145,0.025
4930,-0.135,-0.045
4931,-0.125,-0.085
4932,-0.145,-0.105
4933,-0.145,-0.135
4934,-0.155,-0.165
4935,-0.155,-0.165
4936,-0.145,-0.165
4937,-0.175,-0.175
4938,-0.185,-0.175
4939,-0.185,-0.165
4940,-0.185,-0.145
4941,-0.175,-0.145
4942,-0.165,-0.145
4943,-0.165,-0.135
4944,-0.135,-0.125
4945,-0.145,-0.135
4946,-0.145,-0.135
4947,-0.135,-0.125
4948,-0.125,-0.125
4949,-0.125,-0.145
4950,-0.115,-0.135
4951,-0.125,-0.145
4952,-0.125,-0.155
4953,-0.115,-0.165
4954,-0.135,-0.175
4955,-0.125,-0.165
4956,-0.155,-0.185
4957,-0.145,-0.185
4958,-0.145,-0.185
4959,-0.155,-0.195
4960,-0.155,-0.185
4961,-0.155,-0.195
4962,-0.165,-0.195
4963,-0.175,-0.195
4964,-0.175,-0.185
4965,-0.145,-0.145
4966,-0.085,-0.125
4967,-0.085,-0.125
4968,-0.055,-0.095
4969,-0.055,-0.125
4970,0.045,-0.095
4971,0.025,-0.105
4972,-0.025,-0.135
4973,-0.035,-0.145
4974,-0.075,-0.185
4975,-0.205,-0.225
4976,-0.145,-0.195
4977,-0.175,-0.225
4978,-0.205,-0.225
4979,-0.175,-0.205
4980,-0.195,-0.165
4981,-0.275,-0.005
4982,0.065,0.205
4983,0.935,0.845
4984,1.835,0.615
4985,2.535,-0.255
4986,1.535,-0.825
4987,-0.335,-1.105
4988,-0.975,-0.705
4989,-0.755,-0.425
4990,-0.495,-0.265
4991,-0.355,-0.185
4992,-0.275,-0.145
4993,-0.275,-0.155
4994,-0.285,-0.165
4995,-0.265,-0.145
4996,-0.255,-0.135
4997,-0.255,-0.125
4998,-0.245,-0.135
4999,-0.235,-0.115
5000,-0.215,-0.095
5001,-0.195,-0.085
5002,-0.195,-0.075
5003,-0.185,-0.065
5004,-0.175,-0.045
5005,-0.175,-0.025
5006,-0.165,-0.015
5007,-0.145,0.015
5008,-0.125,0.045
5009,-0.115,0.075
5010,-0.125,0.085
5011,-0.115,0.125
5012,-0.135,0.155
5013,-0.115,0.165
5014,-0.125,0.145
5015,-0.135,0.145
5016,-0.145,0.155
5017,-0.145,0.135
5018,-0.145,0.095
5019,-0.105,0.075
5020,-0.105,0.035
5021,-0.065,-0.005
5022,-0.065,-0.065
5023,-0.045,-0.105
5024,-0.055,-0.115
5025,-0.055,-0.125
5026,-0.075,-0.155
5027,-0.075,-0.165
5028,-0.085,-0.155
5029,-0.085,-0.155
5030,-0.075,-0.165
5031,-0.085,-0.155
5032,-0.075,-0.135
5033,-0.075,-0.135
5034,-0.065,-0.145
5035,-0.055,-0.135
5036,-0.055,-0.125
5037,-0.035,-0.115
5038,-0.045,-0.125
5039,-0.025,-0.125
5040,-0.005,-0.105
5041,-0.015,-0.105
5042,-0.025,-0.135
5043,-0.025,-0.135
5044,-0.025,-0.135
5045,-0.025,-0.145
5046,-0.035,-0.165
5047,-0.025,-0.165
5048,-0.025,-0.165
5049,-0.025,-0.175
5050,-0.065,-0.195
5051,-0.065,-0.185
5052,-0.075,-0.155
5053,-0.045,-0.145
5054,0.005,-0.105
5055,0.045,-0.095
5056,0.065,-0.065
5057,0.065,-0.105
5058,0.115,-0.095
5059,0.155,-0.065
5060,0.095,-0.105
5061,0.035,-0.125
5062,0.035,-0.175
5063,-0.055,-0.205
5064,-0.075,-0.195
5065,-0.095,-0.235
5066,-0.135,-0.235
5067,-0.135,-0.235
5068,-0.135,-0.215
5069,-0.165,-0.085
5070,-0.085,0.055
5071,0.545,0.485
5072,1.465,0.545
5073,2.415,-0.255
5074,2.295,-0.935
5075,0.305,-1.335
5076,-0.965,-0.905
5077,-0.785,-0.425
5078,-0.445,-0.175
5079,-0.265,-0.115
5080,-0.205,-0.115
5081,-0.205,-0.125
5082,-0.215,-0.135
5083,-0.205,-0.125
5084,-0.225,-0.125
5085,-0.205,-0.105
5086,-0.205,-0.105
5087,-0.195,-0.105
5088,-0.175,-0.075
5089,-0.175,-0.065
5090,-0.185,-0.065
5091,-0.175,-0.045
5092,-0.165,-0.015
5093,-0.155,0.005
5094,-0.155,0.015
5095,-0.135,0.035
5096,-0.125,0.075
5097,-0.125,0.115
5098,-0.115,0.135
5099,-0.115,0.165
5100,-0.125,0.185
5101,-0.125,0.215
5102,-0.115,0.205
5103,-0.115,0.205
5104,-0.095,0.205
5105,-0.115,0.175
5106,-0.115,0.145
5107,-0.095,0.105
5108,-0.075,0.055
5109,-0.045,-0.005
5110,-0.045,-0.055
5111,-0.035,-0.105
5112,-0.045,-0.135
5113,-0.045,-0.155
5114,-0.075,-0.165
5115,-0.055,-0.175
5116,-0.075,-0.175
5117,-0.085,-0.175
5118,-0.075,-0.195
5119,-0.095,-0.165
5120,-0.075,-0.155
5121,-0.065,-0.145
5122,-0.085,-0.155
5123,-0.065,-0.145
5124,-0.075,-0.135
5125,-0.065,-0.135
5126,-0.055,-0.145
5127,-0.045,-0.145
5128,-0.025,-0.125
5129,-0.025,-0.135
5130,-0.045,-0.145
5131,-0.025,-0.145
5132,-0.035,-0.145
5133,-0.035,-0.155
5134,-0.035,-0.165
5135,-0.045,-0.175
5136,-0.035,-0.165
5137,-0.055,-0.175
5138,-0.075,-0.195
5139,-0.055,-0.165
5140,-0.075,-0.185
5141,-0.075,-0.195
5142,-0.055,-0.145
5143,0.045,-0.085
5144,0.045,-0.105
5145,0.035,-0.105
5146,0.055,-0.135
5147,0.135,-0.085
5148,0.115,-0.095
5149,0.075,-0.135
5150,0.035,-0.165
5151,-0.015,-0.235
5152,-0.095,-0.225
5153,-0.085,-0.225
5154,-0.145,-0.265
5155,-0.145,-0.255
5156,-0.155,-0.235
5157,-0.125,-0.215
5158,-0.235,-0.085
5159,-0.005,0.105
5160,0.695,0.625
5161,1.605,0.395
5162,2.405,-0.475
5163,1.875,-1.045
5164,-0.095,-1.355
5165,-0.905,-0.815
5166,-0.675,-0.405
5167,-0.405,-0.185
5168,-0.255,-0.135
5169,-0.215,-0.135
5170,-0.225,-0.165
5171,-0.215,-0.155
5172,-0.215,-0.135
5173,-0.215,-0.125
5174,-0.225,-0.135
5175,-0.205,-0.115
5176,-0.195,-0.105
5177,-0.185,-0.085
5178,-0.195,-0.085
5179,-0.185,-0.055
5180,-0.185,-0.055
5181,-0.185,-0.035
5182,-0.185,-0.015
5183,-0.185,0.005
5184,-0.165,0.035
5185,-0.155,0.065
5186,-0.175,0.085
5187,-0.175,0.125
5188,-0.155,0.145
5189,-0.185,0.155
5190,-0.185,0.175
5191,-0.185,0.175
5192,-0.155,0.175
5193,-0.175,0.175
5194,-0.185,0.155
5195,-0.175,0.135
5196,-0.165,0.115
5197,-0.125,0.065
5198,-0.095,-0.005
5199,-0.095,-0.065
5200,-0.095,-0.095
5201,-0.095,-0.135
5202,-0.105,-0.175
5203,-0.095,-0.175
5204,-0.105,-0.165
5205,-0.105,-0.175
5206,-0.125,-0.185
5207,-0.125,-0.175
5208,-0.105,-0.145
5209,-0.105,-0.145
5210,-0.145,-0.165
5211,-0.105,-0.145
5212,-0.115,-0.125
5213,-0.095,-0.125
5214,-0.105,-0.135
5215,-0.085,-0.115
5216,-0.065,-0.105
5217,-0.075,-0.105
5218,-0.105,-0.115
5219,-0.085,-0.135
5220,-0.085,-0.115
5221,-0.085,-0.135
5222,-0.075,-0.145
5223,-0.075,-0.155
5224,-0.085,-0.145
5225,-0.095,-0.155
5226,-0.085,-0.165
5227,-0.105,-0.155
5228,-0.095,-0.165
5229,-0.105,-0.175
5230,-0.095,-0.155
5231,-0.055,-0.095
5232,0.005,-0.075
5233,-0.015,-0.095
5234,0.005,-0.095
5235,0.025,-0.105
5236,0.085,-0.045
5237,0.075,-0.075
5238,0.015,-0.125
5239,0.005,-0.135
5240,-0.035,-0.185
5241,-0.135,-0.205
5242,-0.155,-0.205
5243,-0.175,-0.235
5244,-0.205,-0.235
5245,-0.175,-0.195
5246,-0.155,-0.185
5247,-0.265,-0.045
5248,-0.035,0.145
5249,0.685,0.745
5250,1.545,0.605
5251,2.405,-0.225
5252,1.845,-0.895
5253,-0.115,-1.265
5254,-0.995,-0.855
5255,-0.795,-0.445
5256,-0.505,-0.225
5257,-0.355,-0.145
5258,-0.295,-0.125
5259,-0.285,-0.135
5260,-0.285,-0.125
5261,-0.295,-0.115
5262,-0.295,-0.125
5263,-0.275,-0.105
5264,-0.265,-0.095
5265,-0.265,-0.085
5266,-0.265,-0.085
5267,-0.265,-0.065
5268,-0.265,-0.045
5269,-0.255,-0.035
5270,-0.255,-0.025
5271,-0.235,-0.015
5272,-0.225,0.025
5273,-0.225,0.045
5274,-0.225,0.055
5275,-0.215,0.075
5276,-0.225,0.115
5277,-0.215,0.125
5278,-0.225,0.125
5279,-0.225,0.145
5280,-0.225,0.135
5281,-0.245,0.135
5282,-0.255,0.115
5283,-0.255,0.125
5284,-0.255,0.105
5285,-0.205,0.095
5286,-0.175,0.045
5287,-0.165,0.005
5288,-0.135,-0.035
5289,-0.145,-0.075
5290,-0.135,-0.105
5291,-0.155,-0.135
5292,-0.175,-0.125
5293,-0.175,-0.135
5294,-0.175,-0.145
5295,-0.175,-0.155
5296,-0.165,-0.125
5297,-0.165,-0.125
5298,-0.175,-0.135
5299,-0.155,-0.125
5300,-0.145,-0.095
5301,-0.155,-0.115
5302,-0.165,-0.105
5303,-0.135,-0.115
5304,-0.135,-0.085
5305,-0.125,-0.105
5306,-0.135,-0.115
5307,-0.105,-0.125
5308,-0.135,-0.115
5309,-0.135,-0.135
5310,-0.125,-0.135
5311,-0.145,-0.145
5312,-0.135,-0.135
5313,-0.155,-0.145
5314,-0.165,-0.145
5315,-0.155,-0.165
5316,-0.175,-0.165
5317,-0.165,-0.135
5318,-0.135,-0.105
5319,-0.095,-0.105
5320,-0.075,-0.095
5321,-0.095,-0.095
5322,-0.065,-0.135
5323,0.025,-0.065
5324,-0.005,-0.095
5325,-0.045,-0.115
5326,-0.055,-0.135
5327,-0.125,-0.205
5328,-0.175,-0.205
5329,-0.175,-0.205
5330,-0.235,-0.235
5331,-0.225,-0.225
5332,-0.225,-0.185
5333,-0.185,-0.155
5334,-0.295,-0.005
5335,0.085,0.235
5336,0.895,0.905
5337,1.765,0.785
5338,2.415,-0.085
5339,1.425,-0.675
5340,-0.265,-1.095
5341,-0.935,-0.755
5342,-0.775,-0.475
5343,-0.565,-0.305
5344,-0.405,-0.185
5345,-0.325,-0.125
5346,-0.295,-0.135
5347,-0.295,-0.135
5348,-0.295,-0.125
5349,-0.285,-0.115
5350,-0.275,-0.115
5351,-0.265,-0.095
5352,-0.245,-0.075
5353,-0.255,-0.065
5354,-0.235,-0.065
5355,-0.245,-0.035
5356,-0.205,-0.025
5357,-0.205,-0.015
5358,-0.195,0.005
5359,-0.185,0.015
5360,-0.165,0.055
5361,-0.155,0.075
5362,-0.155,0.085
5363,-0.145,0.125
5364,-0.155,0.125
5365,-0.145,0.145
5366,-0.145,0.135
5367,-0.145,0.155
5368,-0.145,0.135
5369,-0.135,0.125
5370,-0.155,0.105
5371,-0.105,0.095
5372,-0.105,0.075
5373,-0.055,0.025
5374,-0.065,-0.035
5375,-0.065,-0.065
5376,-0.065,-0.085
5377,-0.075,-0.115
5378,-0.035,-0.145
5379,-0.065,-0.145
5380,-0.105,-0.125
5381,-0.075,-0.135
5382,-0.115,-0.145
5383,-0.095,-0.145
5384,-0.055,-0.115
5385,-0.065,-0.105
5386,-0.045,-0.125
5387,-0.045,-0.105
5388,-0.055,-0.115
5389,-0.045,-0.085
5390,-0.015,-0.105
5391,-0.015,-0.085
5392,0.005,-0.085
5393,0.005,-0.085
5394,-0.005,-0.085
5395,0.015,-0.075
5396,-0.015,-0.105
5397,0.005,-0.075
5398,-0.005,-0.095
5399,0.005,-0.105
5400,-0.035,-0.105
5401,-0.025,-0.115
5402,-0.025,-0.085
5403,0.045,-0.055
5404,0.055,-0.055
5405,0.055,-0.035
5406,0.075,-0.065
5407,0.105,-0.065
5408,0.185,-0.015
5409,0.095,-0.065
5410,0.045,-0.085
5411,0.055,-0.115
5412,-0.055,-0.145
5413,-0.085,-0.165
5414,-0.105,-0.165
5415,-0.145,-0.195
5416,-0.115,-0.175
5417,-0.115,-0.155
5418,-0.175,-0.095
5419,-0.205,0.045
5420,0.435,0.385
5421,1.515,0.535
5422,2.615,0.025
5423,2.635,-0.665
5424,0.465,-1.145
5425,-0.975,-0.885
5426,-0.835,-0.405
5427,-0.485,-0.145
5428,-0.325,-0.075
5429,-0.265,-0.065
5430,-0.245,-0.085
5431,-0.225,-0.085
5432,-0.245,-0.075
5433,-0.235,-0.055
5434,-0.255,-0.065
5435,-0.225,-0.045
5436,-0.225,-0.015
5437,-0.225,-0.015
5438,-0.225,-0.025
5439,-0.205,0.005
5440,-0.205,0.035
5441,-0.175,0.055
5442,-0.195,0.065
5443,-0.165,0.105
5444,-0.185,0.125
5445,-0.165,0.145
5446,-0.175,0.185
5447,-0.165,0.215
5448,-0.125,0.255
5449,-0.145,0.245
5450,-0.155,0.275
5451,-0.145,0.265
5452,-0.155,0.275
5453,-0.135,0.265
5454,-0.135,0.235
5455,-0.125,0.195
5456,-0.075,0.145
5457,-0.065,0.085
5458,-0.065,0.005
5459,-0.055,-0.055
5460,-0.055,-0.085
5461,-0.085,-0.115
5462,-0.095,-0.145
5463,-0.095,-0.145
5464,-0.105,-0.135
5465,-0.095,-0.145
5466,-0.105,-0.135
5467,-0.105,-0.145
5468,-0.125,-0.135
5469,-0.105,-0.125
5470,-0.115,-0.135
5471,-0.105,-0.125
5472,-0.085,-0.105
5473,-0.095,-0.105
5474,-0.095,-0.105
5475,-0.095,-0.095
5476,-0.085,-0.075
5477,-0.075,-0.105
5478,-0.055,-0.105
5479,-0.065,-0.095
5480,-0.055,-0.085
5481,-0.065,-0.085
5482,-0.055,-0.095
5483,-0.045,-0.105
5484,-0.065,-0.095
5485,-0.055,-0.095
5486,-0.075,-0.105
5487,-0.025,-0.065
5488,0.045,-0.035
5489,0.055,-0.045
5490,0.055,-0.055
5491,0.085,-0.095
5492,0.135,-0.055
5493,0.125,-0.065
5494,0.085,-0.095
5495,0.045,-0.115
5496,0.005,-0.145
5497,-0.055,-0.165
5498,-0.065,-0.165
5499,-0.125,-0.205
5500,-0.145,-0.175
5501,-0.135,-0.185
5502,-0.115,-0.155
5503,-0.235,-0.035
5504,0.005,0.105
5505,0.805,0.615
5506,1.825,0.505
5507,2.705,-0.165
5508,1.845,-0.845
5509,-0.305,-1.225
5510,-0.955,-0.735
5511,-0.725,-0.355
5512,-0.435,-0.145
5513,-0.295,-0.095
5514,-0.225,-0.095
5515,-0.245,-0.085
5516,-0.255,-0.085
5517,-0.235,-0.075
5518,-0.245,-0.085
5519,-0.235,-0.065
5520,-0.205,-0.055
5521,-0.245,-0.055
5522,-0.235,-0.055
5523,-0.205,-0.025
5524,-0.205,0.015
5525,-0.195,0.025
5526,-0.205,0.015
5527,-0.205,0.055
5528,-0.165,0.105
5529,-0.175,0.125
5530,-0.205,0.115
5531,-0.175,0.165
5532,-0.195,0.205
5533,-0.135,0.255
5534,-0.155,0.235
5535,-0.155,0.255
5536,-0.155,0.265
5537,-0.145,0.255
5538,-0.175,0.225
5539,-0.115,0.245
5540,-0.115,0.195
5541,-0.095,0.145
5542,-0.075,0.085
5543,-0.075,-0.005
5544,-0.055,-0.045
5545,-0.095,-0.085
5546,-0.095,-0.095
5547,-0.095,-0.135
5548,-0.115,-0.135
5549,-0.155,-0.145
5550,-0.085,-0.135
5551,-0.105,-0.105
5552,-0.105,-0.125
5553,-0.135,-0.045
5554,-0.115,-0.115
5555,-0.115,-0.155
5556,-0.155,-0.105
5557,-0.115,-0.115
5558,-0.085,-0.085
5559,-0.105,-0.145
5560,-0.125,-0.115
5561,-0.065,-0.105
5562,-0.095,-0.125
5563,-0.085,-0.135
5564,-0.105,-0.125
5565,-0.065,-0.105
5566,-0.065,-0.145
5567,-0.065,-0.135
5568,-0.045,-0.125
5569,-0.065,-0.115
5570,-0.085,-0.175
5571,-0.065,-0.165
5572,-0.075,-0.125
5573,-0.085,-0.155
5574,-0.085,-0.195
5575,-0.085,-0.175
5576,-0.075,-0.155
5577,-0.095,-0.225
5578,-0.075,-0.135
5579,0.015,-0.105
5580,0.005,-0.115
5581,-0.015,-0.115
5582,0.045,-0.145
5583,0.085,-0.115
5584,0.125,-0.055
5585,0.025,-0.115
5586,0.015,-0.135
5587,0.025,-0.175
5588,-0.105,-0.155
5589,-0.095,-0.185
5590,-0.125,-0.235
5591,-0.155,-0.245
5592,-0.135,-0.215
5593,-0.115,-0.195
5594,-0.145,-0.135
5595,-0.185,-0.015
5596,0.285,0.265
5597,1.215,0.595
5598,2.205,0.215
5599,2.365,-0.585
5600,0.435,-1.265
5601,-0.805,-0.985
5602,-0.765,-0.475
5603,-0.465,-0.195
5604,-0.325,-0.165
5605,-0.235,-0.145
5606,-0.225,-0.165
5607,-0.205,-0.115
5608,-0.185,-0.115
5609,-0.205,-0.095
5610,-0.205,-0.115
5611,-0.195,-0.135
5612,-0.195,-0.085
5613,-0.185,-0.075
5614,-0.145,-0.085
5615,-0.145,-0.065
5616,-0.145,-0.025
5617,-0.135,-0.015
5618,-0.145,-0.005
5619,-0.135,0.015
5620,-0.125,0.025
5621,-0.115,0.045
5622,-0.105,0.095
5623,-0.125,0.105
5624,-0.095,0.175
5625,-0.075,0.185
5626,-0.085,0.195
5627,-0.075,0.185
5628,-0.115,0.195
5629,-0.075,0.195
5630,-0.095,0.185
5631,-0.065,0.125
5632,-0.045,0.105
5633,-0.045,0.045
5634,-0.035,-0.025
5635,-0.035,-0.075
5636,-0.065,-0.125
5637,-0.065,-0.155
5638,-0.065,-0.185
5639,-0.085,-0.195
5640,-0.065,-0.175
5641,-0.065,-0.195
5642,-0.075,-0.195
5643,-0.175,-0.215
5644,-0.175,-0.195
5645,-0.065,-0.165
5646,-0.075,-0.175
5647,-0.085,-0.185
5648,-0.085,-0.155
5649,-0.115,-0.175
5650,-0.105,-0.175
5651,-0.085,-0.185
5652,-0.125,-0.155
5653,-0.105,-0.155
5654,-0.045,-0.175
5655,-0.015,-0.145
5656,-0.035,-0.175
5657,-0.025,-0.175
5658,-0.175,-0.185
5659,-0.155,-0.175
5660,-0.055,-0.165
5661,-0.035,-0.195
5662,0.015,-0.185
5663,-0.025,-0.205
5664,-0.025,-0.215
5665,-0.025,-0.185
5666,-0.085,-0.215
5667,-0.075,-0.215
5668,-0.095,-0.185
5669,-0.005,-0.135
5670,-0.005,-0.155
5671,-0.005,-0.135
5672,0.055,-0.145
5673,0.045,-0.135
5674,0.055,-0.095
5675,0.105,-0.135
5676,0.145,-0.155
5677,0.095,-0.175
5678,0.015,-0.215
5679,-0.075,-0.255
5680,-0.065,-0.235
5681,-0.105,-0.255
5682,-0.135,-0.255
5683,-0.105,-0.245
5684,-0.065,-0.195
5685,-0.215,-0.045
5686,0.215,0.195
5687,1.185,0.735
5688,2.315,0.355
5689,2.695,-0.465
5690,0.925,-1.105
5691,-0.715,-1.185
5692,-0.885,-0.625
5693,-0.575,-0.355
5694,-0.395,-0.235
5695,-0.255,-0.165
5696,-0.205,-0.155
5697,-0.195,-0.135
5698,-0.205,-0.145
5699,-0.205,-0.135
5700,-0.205,-0.125
5701,-0.205,-0.115
5702,-0.185,-0.105
5703,-0.165,-0.085
5704,-0.165,-0.065
5705,-0.145,-0.045
5706,-0.165,-0.035
5707,-0.135,0.005
5708,-0.135,0.025
5709,-0.145,0.035
5710,-0.125,0.065
5711,-0.125,0.105
5712,-0.095,0.185
5713,-0.055,0.175
5714,-0.065,0.165
5715,-0.045,0.215
5716,-0.075,0.165
5717,-0.065,0.215
5718,-0.055,0.185
5719,-0.005,0.185
5720,-0.005,0.205
5721,0.025,0.185
5722,0.015,0.135
5723,0.045,0.055
5724,0.025,0.025
5725,0.075,-0.005
5726,0.015,-0.055
5727,-0.025,-0.115
5728,-0.015,-0.175
5729,-0.005,-0.165
5730,0.005,-0.155
5731,0.015,-0.145
5732,-0.045,-0.145
5733,-0.005,-0.205
5734,-0.035,-0.195
5735,-0.015,-0.165
5736,-0.025,-0.155
5737,-0.055,-0.135
5738,-0.015,-0.125
5739,-0.045,-0.145
5740,-0.065,-0.115
5741,-0.045,-0.105
5742,0.005,-0.095
5743,-0.005,-0.115
5744,-0.005,-0.085
5745,0.015,-0.075
5746,-0.015,-0.045
5747,-0.005,-0.145
5748,0.005,-0.155
5749,0.035,-0.145
5750,0.015,-0.145
5751,-0.005,-0.155
5752,-0.005,-0.145
5753,-0.035,-0.155
5754,-0.025,-0.155
5755,-0.025,-0.165
5756,-0.055,-0.165
5757,-0.035,-0.155
5758,0.015,-0.115
5759,0.045,-0.085
5760,0.055,-0.065
5761,0.075,-0.065
5762,0.085,-0.065
5763,0.095,0.035
5764,0.105,0.025
5765,0.065,-0.185
5766,0.055,-0.265
5767,0.035,-0.225
5768,-0.045,-0.215
5769,-0.065,-0.205
5770,-0.115,-0.225
5771,-0.125,-0.215
5772,-0.115,-0.185
5773,-0.095,-0.175
5774,-0.145,-0.095
5775,-0.065,0.065
5776,0.595,0.475
5777,1.525,0.635
5778,2.525,-0.085
5779,2.065,-0.875
5780,0.085,-1.285
5781,-0.895,-0.915
5782,-0.745,-0.465
5783,-0.475,-0.215
5784,-0.315,-0.125
5785,-0.215,-0.055
5786,-0.215,-0.085
5787,-0.195,-0.105
5788,-0.255,-0.095
5789,-0.205,-0.085
5790,-0.215,-0.085
5791,-0.195,-0.065
5792,-0.195,-0.035
5793,-0.175,-0.035
5794,-0.205,-0.045
5795,-0.165,-0.015
5796,-0.165,0.025
5797,-0.135,0.045
5798,-0.165,0.015
5799,-0.175,0.025
5800,-0.155,0.085
5801,-0.145,0.115
5802,-0.145,0.145
5803,-0.115,0.175
5804,-0.115,0.205
5805,-0.105,0.235
5806,-0.095,0.245
5807,-0.085,0.245
5808,-0.035,0.265
5809,-0.075,0.255
5810,-0.035,0.215
5811,-0.085,0.195
5812,-0.045,0.175
5813,0.005,0.095
5814,-0.005,0.015
5815,0.045,-0.035
5816,-0.065,-0.045
5817,-0.085,-0.085
5818,-0.115,-0.115
5819,-0.105,-0.135
5820,-0.115,-0.145
5821,-0.125,-0.155
5822,-0.135,-0.165
5823,-0.115,-0.155
5824,-0.105,-0.145
5825,-0.115,-0.145
5826,-0.115,-0.155
5827,-0.115,-0.145
5828,-0.165,-0.155
5829,-0.145,-0.115
5830,-0.125,-0.125
5831,-0.125,-0.145
5832,-0.105,-0.115
5833,-0.105,-0.125
5834,-0.095,-0.105
5835,-0.065,-0.095
5836,-0.095,-0.125
5837,-0.115,-0.115
5838,-0.085,-0.125
5839,-0.085,-0.125
5840,-0.085,-0.135
5841,-0.085,-0.125
5842,-0.115,-0.155
5843,-0.095,-0.155
5844,-0.115,-0.155
5845,-0.105,-0.145
5846,-0.095,-0.155
5847,-0.095,-0.155
5848,-0.105,-0.165
5849,-0.085,-0.165
5850,-0.125,-0.175
5851,-0.115,-0.175
5852,-0.105,-0.135
5853,-0.025,-0.085
5854,-0.025,-0.105
5855,-0.015,-0.095
5856,0.035,-0.085
5857,0.055,-0.085
5858,0.105,-0.055
5859,0.015,-0.115
5860,-0.015,-0.115
5861,-0.015,-0.145
5862,-0.095,-0.185
5863,-0.115,-0.175
5864,-0.135,-0.175
5865,-0.155,-0.185
5866,-0.185,-0.215
5867,-0.165,-0.165
5868,-0.215,-0.035
5869,-0.135,0.105
5870,0.465,0.425
5871,1.415,0.585
5872,2.485,-0.125
5873,1.975,-0.895
5874,-0.075,-1.325
5875,-0.955,-0.935
5876,-0.815,-0.485
5877,-0.495,-0.215
5878,-0.365,-0.125
5879,-0.305,-0.075
5880,-0.275,-0.075
5881,-0.285,-0.085
5882,-0.305,-0.085
5883,-0.265,-0.045
5884,-0.295,-0.035
5885,-0.245,-0.025
5886,-0.265,-0.055
5887,-0.265,-0.025
5888,-0.275,-0.015
5889,-0.215,-0.005
5890,-0.235,0.005
5891,-0.195,0.035
5892,-0.185,0.075
5893,-0.195,0.075
5894,-0.195,0.095
5895,-0.165,0.135
5896,-0.185,0.165
5897,-0.165,0.195
5898,-0.145,0.215
5899,-0.135,0.235
5900,-0.135,0.255
5901,-0.125,0.275
5902,-0.105,0.265
5903,-0.125,0.255
5904,-0.095,0.255
5905,-0.085,0.225
5906,-0.065,0.165
5907,-0.055,0.105
5908,-0.075,0.055
5909,-0.105,-0.015
5910,-0.095,-0.065
5911,-0.135,-0.095
5912,-0.115,-0.105
5913,-0.135,-0.115
5914,-0.165,-0.135
5915,-0.175,-0.125
5916,-0.175,-0.155
5917,-0.165,-0.155
5918,-0.185,-0.155
5919,-0.175,-0.145
5920,-0.185,-0.145
5921,-0.205,-0.135
5922,-0.205,-0.155
5923,-0.175,-0.135
5924,-0.175,-0.115
5925,-0.155,-0.135
5926,-0.165,-0.155
5927,-0.175,-0.155
5928,-0.125,-0.115
5929,-0.165,-0.105
5930,-0.145,-0.115
5931,-0.155,-0.125
5932,-0.155,-0.135
5933,-0.125,-0.125
5934,-0.135,-0.155
5935,-0.145,-0.165
5936,-0.145,-0.145
5937,-0.145,-0.155
5938,-0.135,-0.165
5939,-0.155,-0.165
5940,-0.145,-0.165
5941,-0.155,-0.165
5942,-0.155,-0.185
5943,-0.155,-0.175
5944,-0.155,-0.155
5945,-0.155,-0.175
5946,-0.155,-0.175
5947,-0.145,-0.165
5948,-0.145,-0.145
5949,-0.085,-0.095
5950,-0.065,-0.115
5951,-0.055,-0.105
5952,-0.025,-0.095
5953,-0.005,-0.115
5954,0.025,-0.085
5955,-0.005,-0.125
5956,-0.035,-0.145
5957,-0.035,-0.145
5958,-0.065,-0.205
5959,-0.125,-0.225
5960,-0.125,-0.205
5961,-0.165,-0.235
5962,-0.175,-0.215
5963,-0.175,-0.205
5964,-0.145,-0.155
5965,-0.215,-0.005
5966,0.035,0.135
5967,0.725,0.575
5968,1.555,0.235
5969,2.125,-0.505
5970,1.255,-1.035
5971,-0.365,-1.245
5972,-0.845,-0.685
5973,-0.655,-0.335
5974,-0.465,-0.145
5975,-0.325,-0.125
5976,-0.245,-0.105
5977,-0.255,-0.075
5978,-0.275,-0.125
5979,-0.245,-0.125
5980,-0.255,-0.085
5981,-0.255,-0.055
5982,-0.255,-0.055
5983,-0.255,-0.015
5984,-0.225,-0.005
5985,-0.235,0.015
5986,-0.255,0.005
5987,-0.205,0.055
5988,-0.215,0.055
5989,-0.205,0.075
5990,-0.225,0.085
5991,-0.205,0.115
5992,-0.165,0.195
5993,-0.165,0.195
5994,-0.155,0.215
5995,-0.135,0.255
5996,-0.105,0.295
5997,-0.065,0.295
5998,-0.045,0.305
5999,-0.065,0.315
6000,-0.125,0.335
6001,-0.145,0.335
6002,-0.095,0.225
6003,-0.045,0.175
6004,-0.045,0.115
6005,-0.025,0.075
6006,-0.045,-0.015
6007,-0.075,-0.075
6008,-0.065,-0.105
6009,-0.125,-0.115
6010,-0.105,-0.115
6011,-0.105,-0.115
6012,-0.105,-0.125
6013,-0.135,-0.125
6014,-0.135,-0.135
6015,-0.105,-0.135
6016,-0.145,-0.115
6017,-0.125,-0.125
6018,-0.125,-0.115
6019,-0.135,-0.115
6020,-0.165,-0.095
6021,-0.155,-0.085
6022,-0.135,-0.095
6023,-0.155,-0.105
6024,-0.135,-0.075
6025,-0.115,-0.075
6026,-0.115,-0.065
6027,-0.165,-0.095
6028,-0.115,-0.055
6029,-0.155,-0.095
6030,-0.115,-0.095
6031,-0.065,-0.125
6032,-0.045,-0.165
6033,-0.045,-0.185
6034,-0.045,-0.195
6035,-0.045,-0.185
6036,-0.075,-0.175
6037,-0.085,-0.175
6038,-0.125,-0.175
6039,-0.095,-0.195
6040,-0.085,-0.185
6041,-0.095,-0.195
6042,-0.115,-0.215
6043,-0.085,-0.175
6044,-0.105,-0.145
6045,-0.015,-0.075
6046,-0.025,-0.115
6047,0.015,-0.075
6048,0.005,-0.095
6049,0.065,-0.085
6050,0.045,-0.085
6051,0.005,-0.145
6052,-0.055,-0.145
6053,-0.045,-0.175
6054,-0.155,-0.215
6055,-0.175,-0.215
6056,-0.225,-0.265
6057,-0.255,-0.215
6058,-0.215,-0.185
6059,-0.195,-0.165
6060,-0.235,-0.065
6061,-0.195,0.045
6062,0.315,0.255
6063,1.285,0.445
6064,2.435,-0.015
6065,2.475,-0.695
6066,0.535,-1.145
6067,-1.085,-1.095
6068,-0.985,-0.455
6069,-0.615,-0.145
6070,-0.425,-0.045
6071,-0.335,-0.035
6072,-0.325,-0.025
6073,-0.345,-0.035
6074,-0.345,-0.045
6075,-0.315,-0.065
6076,-0.335,-0.025
6077,-0.285,-0.045
6078,-0.295,-0.065
6079,-0.265,-0.065
6080,-0.265,-0.065
6081,-0.245,0.015
6082,-0.265,-0.065
6083,-0.235,0.055
6084,-0.205,0.075
6085,-0.185,0.145
6086,-0.185,-0.025
6087,-0.185,0.025
6088,-0.175,0.115
6089,-0.175,0.175
6090,-0.165,0.195
6091,-0.135,0.235
6092,-0.145,0.265
6093,-0.115,0.295
6094,-0.115,0.285
6095,-0.125,0.275
6096,-0.055,0.285
6097,-0.045,0.235
6098,-0.065,0.185
6099,-0.025,0.115
6100,-0.035,0.025
6101,-0.055,-0.045
6102,-0.075,-0.105
6103,-0.085,-0.145
6104,-0.115,-0.165
6105,-0.125,-0.185
6106,-0.125,-0.195
6107,-0.115,-0.195
6108,-0.155,-0.185
6109,-0.115,-0.165
6110,-0.125,-0.185
6111,-0.125,-0.185
6112,-0.135,-0.165
6113,-0.135,-0.155
6114,-0.145,-0.185
6115,-0.135,-0.175
6116,-0.145,-0.155
6117,-0.125,-0.155
6118,-0.135,-0.175
6119,-0.125,-0.145
6120,-0.125,-0.155
6121,-0.125,-0.145
6122,-0.115,-0.165
6123,-0.105,-0.155
6124,-0.115,-0.145
6125,-0.095,-0.145
6126,-0.115,-0.175
6127,-0.105,-0.175
6128,-0.085,-0.155
6129,-0.105,-0.165
6130,-0.085,-0.175
6131,-0.095,-0.195
6132,-0.125,-0.195
6133,-0.125,-0.195
6134,-0.105,-0.195
6135,-0.125,-0.205
6136,-0.115,-0.195
6137,-0.115,-0.205
6138,-0.115,-0.215
6139,-0.105,-0.215
6140,-0.125,-0.215
6141,-0.125,-0.195
6142,-0.115,-0.215
6143,-0.085,-0.175
6144,-0.015,-0.115
6145,0.005,-0.125
6146,-0.025,-0.145
6147,0.015,-0.145
6148,0.065,-0.135
6149,0.135,-0.085
6150,0.045,-0.165
6151,-0.015,-0.165
6152,0.025,-0.165
6153,-0.055,-0.215
6154,-0.145,-0.245
6155,-0.115,-0.235
6156,-0.165,-0.245
6157,-0.175,-0.235
6158,-0.175,-0.245
6159,-0.135,-0.175
6160,-0.185,0.005
6161,0.265,0.155
6162,1.125,0.515
6163,2.095,0.225
6164,2.655,-0.485
6165,1.155,-1.095
6166,-0.755,-1.305
6167,-1.005,-0.715
6168,-0.645,-0.285
6169,-0.385,-0.155
6170,-0.305,-0.135
6171,-0.275,-0.145
6172,-0.265,-0.085
6173,-0.245,-0.115
6174,-0.305,-0.145
6175,-0.255,-0.085
6176,-0.285,-0.095
6177,-0.235,-0.025
6178,-0.225,-0.065
6179,-0.225,-0.065
6180,-0.245,-0.045
6181,-0.225,-0.005
6182,-0.215,-0.005
6183,-0.235,-0.005
6184,-0.185,0.045
6185,-0.185,0.075
6186,-0.175,0.085
6187,-0.175,0.115
6188,-0.195,0.155
6189,-0.165,0.225
6190,-0.145,0.255
6191,-0.145,0.255
6192,-0.105,0.285
6193,-0.105,0.295
6194,-0.125,0.255
6195,-0.125,0.285
6196,-0.095,0.275
6197,-0.085,0.205
6198,-0.055,0.135
6199,-0.055,0.095
6200,-0.045,0.025
6201,-0.055,-0.035
6202,-0.085,-0.105
6203,-0.105,-0.155
6204,-0.125,-0.155
6205,-0.105,-0.165
6206,-0.115,-0.185
6207,-0.135,-0.165
6208,-0.115,-0.175
6209,-0.105,-0.175
6210,-0.135,-0.185
6211,-0.115,-0.165
6212,-0.155,-0.155
6213,-0.115,-0.155
6214,-0.115,-0.155
6215,-0.125,-0.145
6216,-0.095,-0.135
6217,-0.105,-0.125
6218,-0.115,-0.145
6219,-0.105,-0.125
6220,-0.115,-0.125
6221,-0.105,-0.135
6222,-0.055,-0.135
6223,-0.105,-0.145
6224,-0.075,-0.155
6225,-0.095,-0.165
6226,-0.095,-0.155
6227,-0.095,-0.155
6228,-0.105,-0.155
6229,-0.105,-0.175
6230,-0.115,-0.175
6231,-0.115,-0.185
6232,-0.105,-0.175
6233,-0.105,-0.185
6234,-0.145,-0.205
6235,-0.115,-0.195
6236,-0.115,-0.195
6237,-0.115,-0.185
6238,-0.125,-0.205
6239,-0.125,-0.215
6240,-0.115,-0.195
6241,-0.115,-0.205
6242,-0.135,-0.205
6243,-0.135,-0.205
6244,-0.135,-0.175
6245,-0.065,-0.125
6246,-0.045,-0.125
6247,-0.035,-0.125
6248,-0.015,-0.115
6249,0.025,-0.125
6250,0.085,-0.085
6251,0.055,-0.115
6252,0.005,-0.125
6253,0.005,-0.135
6254,-0.055,-0.215
6255,-0.135,-0.225
6256,-0.125,-0.185
6257,-0.185,-0.245
6258,-0.195,-0.245
6259,-0.155,-0.215
6260,-0.155,-0.205
6261,-0.245,-0.045
6262,0.055,0.055
6263,0.905,0.505
6264,1.865,0.405
6265,2.615,-0.225
6266,1.645,-0.945
6267,-0.375,-1.365
6268,-1.065,-0.945
6269,-0.815,-0.495
6270,-0.525,-0.225
6271,-0.355,-0.135
6272,-0.275,-0.095
6273,-0.305,-0.125
6274,-0.295,-0.125
6275,-0.285,-0.095
6276,-0.285,-0.085
6277,-0.275,-0.075
6278,-0.265,-0.065
6279,-0.265,-0.065
6280,-0.245,-0.035
6281,-0.245,-0.025
6282,-0.255,-0.025
6283,-0.215,0.015
6284,-0.235,0.035
6285,-0.205,0.055
6286,-0.225,0.035
6287,-0.215,0.095
6288,-0.185,0.155
6289,-0.175,0.175
6290,-0.155,0.195
6291,-0.165,0.245
6292,-0.155,0.275
6293,-0.145,0.285
6294,-0.145,0.285
6295,-0.155,0.295
6296,-0.135,0.285
6297,-0.125,0.265
6298,-0.115,0.225
6299,-0.095,0.165
6300,-0.095,0.105
6301,-0.085,0.035
6302,-0.085,-0.025
6303,-0.095,-0.095
6304,-0.115,-0.135
6305,-0.105,-0.145
6306,-0.115,-0.175
6307,-0.115,-0.175
6308,-0.125,-0.155
6309,-0.115,-0.165
6310,-0.135,-0.185
6311,-0.115,-0.165
6312,-0.105,-0.145
6313,-0.135,-0.165
6314,-0.125,-0.155
6315,-0.115,-0.135
6316,-0.115,-0.135
6317,-0.105,-0.135
6318,-0.095,-0.135
6319,-0.095,-0.115
6320,-0.095,-0.115
6321,-0.095,-0.115
6322,-0.085,-0.135
6323,-0.065,-0.115
6324,-0.065,-0.115
6325,-0.065,-0.135
6326,-0.075,-0.145
6327,-0.075,-0.135
6328,-0.065,-0.145
6329,-0.075,-0.155
6330,-0.075,-0.155
6331,-0.075,-0.165
6332,-0.105,-0.165
6333,-0.075,-0.165
6334,-0.085,-0.185
6335,-0.065,-0.165
6336,-0.075,-0.175
6337,-0.075,-0.175
6338,-0.095,-0.185
6339,-0.075,-0.165
6340,-0.085,-0.155
6341,-0.035,-0.105
6342,0.015,-0.085
6343,0.005,-0.085
6344,0.055,-0.095
6345,0.085,-0.085
6346,0.145,-0.055
6347,0.105,-0.095
6348,0.015,-0.105
6349,0.035,-0.135
6350,-0.065,-0.195
6351,-0.105,-0.185
6352,-0.105,-0.175
6353,-0.155,-0.205
6354,-0.135,-0.205
6355,-0.115,-0.175
6356,-0.135,-0.105
6357,-0.175,0.045
6358,0.315,0.195
6359,1.255,0.555
6360,2.295,0.245
6361,2.645,-0.445
6362,0.885,-0.995
6363,-0.865,-1.085
6364,-0.935,-0.565
6365,-0.555,-0.245
6366,-0.345,-0.125
6367,-0.245,-0.065
6368,-0.215,-0.065
6369,-0.225,-0.075
6370,-0.225,-0.055
6371,-0.205,-0.055
6372,-0.215,-0.045
6373,-0.205,-0.035
6374,-0.195,-0.025
6375,-0.205,-0.015
6376,-0.165,0.005
6377,-0.175,0.015
6378,-0.185,0.005
6379,-0.185,0.035
6380,-0.155,0.055
6381,-0.155,0.085
6382,-0.155,0.085
6383,-0.145,0.145
6384,-0.095,0.185
6385,-0.115,0.205
6386,-0.125,0.235
6387,-0.085,0.285
6388,-0.105,0.305
6389,-0.095,0.325
6390,-0.095,0.315
6391,-0.075,0.325
6392,-0.075,0.325
6393,-0.085,0.285
6394,-0.095,0.265
6395,-0.045,0.205
6396,-0.055,0.125
6397,-0.025,0.075
6398,-0.035,-0.015
6399,-0.035,-0.065
6400,-0.035,-0.095
6401,-0.055,-0.115
6402,-0.085,-0.145
6403,-0.085,-0.145
6404,-0.095,-0.135
6405,-0.085,-0.145
6406,-0.085,-0.145
6407,-0.075,-0.135
6408,-0.065,-0.115
6409,-0.095,-0.115
6410,-0.085,-0.115
6411,-0.065,-0.115
6412,-0.095,-0.095
6413,-0.065,-0.085
6414,-0.065,-0.105
6415,-0.055,-0.085
6416,-0.025,-0.075
6417,-0.055,-0.075
6418,-0.045,-0.095
6419,-0.035,-0.105
6420,-0.045,-0.075
6421,-0.025,-0.105
6422,-0.035,-0.125
6423,-0.045,-0.125
6424,-0.045,-0.105
6425,-0.035,-0.125
6426,-0.065,-0.155
6427,-0.065,-0.145
6428,-0.075,-0.135
6429,-0.065,-0.145
6430,-0.075,-0.155
6431,-0.055,-0.145
6432,-0.065,-0.145
6433,-0.055,-0.155
6434,-0.065,-0.165
6435,-0.075,-0.165
6436,-0.095,-0.155
6437,-0.085,-0.145
6438,-0.065,-0.135
6439,0.005,-0.065
6440,0.035,-0.065
6441,0.035,-0.065
6442,0.055,-0.085
6443,0.105,-0.085
6444,0.155,-0.015
6445,0.095,-0.085
6446,0.045,-0.105
6447,0.035,-0.135
6448,-0.035,-0.145
6449,-0.075,-0.155
6450,-0.095,-0.195
6451,-0.135,-0.195
6452,-0.145,-0.165
6453,-0.105,-0.155
6454,-0.165,-0.095
6455,-0.095,0.065
6456,0.475,0.325
6457,1.415,0.585
6458,2.415,0.105
6459,2.505,-0.645
6460,0.605,-1.135
6461,-0.915,-1.095
6462,-0.915,-0.545
6463,-0.515,-0.195
6464,-0.315,-0.075
6465,-0.215,-0.055
6466,-0.225,-0.065
6467,-0.215,-0.065
6468,-0.215,-0.045
6469,-0.215,-0.035
6470,-0.205,-0.035
6471,-0.195,-0.025
6472,-0.195,-0.025
6473,-0.195,0.005
6474,-0.185,0.015
6475,-0.175,0.025
6476,-0.195,0.045
6477,-0.185,0.055
6478,-0.145,0.085
6479,-0.145,0.085
6480,-0.145,0.135
6481,-0.145,0.165
6482,-0.115,0.185
6483,-0.125,0.225
6484,-0.115,0.275
6485,-0.095,0.305
6486,-0.105,0.315
6487,-0.115,0.325
6488,-0.095,0.335
6489,-0.085,0.335
6490,-0.095,0.305
6491,-0.085,0.285
6492,-0.065,0.245
