'sample interval','ECG1','ECG2'
'0.0078125 sec','mV','mV'
0,-0.165,-0.325
1,-0.155,-0.325
2,-0.195,-0.305
3,-0.205,-0.305
4,-0.185,-0.295
5,-0.155,-0.265
6,-0.135,-0.235
7,-0.095,-0.185
8,-0.075,-0.135
9,-0.065,-0.095
10,-0.065,-0.055
11,-0.125,-0.015
12,-0.125,0.005
13,-0.125,-0.045
14,-0.115,-0.015
15,-0.125,-0.005
16,-0.165,-0.015
17,-0.115,-0.025
18,-0.145,-0.025
19,-0.115,-0.025
20,-0.135,-0.015
21,-0.135,0.005
22,-0.125,-0.035
23,-0.175,-0.025
24,-0.145,-0.025
25,-0.125,-0.025
26,-0.145,-0.025
27,-0.145,-0.005
28,-0.135,-0.035
29,-0.165,-0.045
30,-0.155,-0.025
31,-0.095,-0.005
32,-0.105,0.015
33,-0.075,0.035
34,-0.085,0.055
35,0.025,0.005
36,0.025,-0.055
37,-0.025,-0.065
38,-0.085,-0.065
39,-0.115,-0.055
40,-0.145,-0.025
41,-0.125,-0.005
42,-0.155,-0.045
43,-0.205,-0.065
44,-0.215,-0.065
45,-0.215,-0.055
46,-0.165,-0.055
47,-0.165,-0.055
48,-0.155,0.005
49,-0.615,0.125
50,-0.855,-0.035
51,-0.185,-0.335
52,1.295,-0.385
53,2.575,-0.145
54,2.675,0.305
55,2.445,0.625
56,0.735,-0.665
57,-0.415,-0.735
58,-0.295,-0.225
59,-0.285,-0.075
60,-0.345,-0.085
61,-0.365,-0.095
62,-0.345,-0.085
63,-0.305,-0.095
64,-0.315,-0.115
65,-0.305,-0.095
66,-0.265,-0.105
67,-0.235,-0.115
68,-0.265,-0.115
69,-0.245,-0.135
70,-0.215,-0.145
71,-0.195,-0.135
72,-0.175,-0.185
73,-0.185,-0.175
74,-0.155,-0.205
75,-0.125,-0.235
76,-0.145,-0.265
77,-0.125,-0.265
78,-0.145,-0.265
79,-0.155,-0.265
80,-0.185,-0.295
81,-0.175,-0.275
82,-0.175,-0.255
83,-0.165,-0.245
84,-0.165,-0.225
85,-0.115,-0.175
86,-0.065,-0.135
87,-0.095,-0.105
88,-0.115,-0.085
89,-0.075,-0.055
90,-0.115,-0.055
91,-0.155,-0.045
92,-0.105,-0.065
93,-0.125,-0.045
94,-0.135,-0.035
95,-0.125,-0.045
96,-0.115,-0.045
97,-0.105,-0.035
98,-0.135,-0.025
99,-0.135,-0.035
100,-0.135,-0.055
101,-0.145,-0.055
102,-0.125,-0.035
103,-0.115,-0.055
104,-0.135,-0.065
105,-0.135,-0.065
106,-0.165,-0.055
107,-0.155,-0.035
108,-0.115,-0.045
109,-0.085,-0.005
110,-0.055,0.035
111,-0.055,0.055
112,-0.045,0.025
113,0.065,-0.055
114,0.005,-0.055
115,-0.015,-0.085
116,-0.055,-0.065
117,-0.115,-0.045
118,-0.135,-0.015
119,-0.135,-0.055
120,-0.175,-0.075
121,-0.205,-0.075
122,-0.225,-0.055
123,-0.175,-0.055
124,-0.175,-0.055
125,-0.155,-0.055
126,-0.255,0.105
127,-0.875,0.165
128,-0.645,-0.105
129,0.645,-0.445
130,2.315,-0.245
131,2.925,0.045
132,2.725,0.445
133,1.225,-0.675
134,-0.185,-0.785
135,-0.275,-0.215
136,-0.275,-0.035
137,-0.285,-0.025
138,-0.285,-0.045
139,-0.335,-0.045
140,-0.305,-0.045
141,-0.285,-0.035
142,-0.275,-0.055
143,-0.275,-0.055
144,-0.245,-0.065
145,-0.245,-0.045
146,-0.225,-0.075
147,-0.195,-0.085
148,-0.205,-0.095
149,-0.165,-0.085
150,-0.125,-0.105
151,-0.135,-0.135
152,-0.105,-0.145
153,-0.115,-0.165
154,-0.115,-0.175
155,-0.095,-0.185
156,-0.155,-0.215
157,-0.165,-0.235
158,-0.185,-0.205
159,-0.185,-0.205
160,-0.175,-0.195
161,-0.195,-0.175
162,-0.135,-0.115
163,-0.105,-0.095
164,-0.105,-0.095
165,-0.095,-0.055
166,-0.095,-0.015
167,-0.115,-0.005
168,-0.105,-0.025
169,-0.115,-0.005
170,-0.115,-0.015
171,-0.125,-0.025
172,-0.115,-0.025
173,-0.115,-0.015
174,-0.115,-0.005
175,-0.115,-0.005
176,-0.105,-0.045
177,-0.105,-0.055
178,-0.095,-0.025
179,-0.125,-0.015
180,-0.115,-0.045
181,-0.105,-0.045
182,-0.095,-0.015
183,-0.105,-0.025
184,-0.105,-0.055
185,-0.105,-0.035
186,-0.075,-0.015
187,-0.045,0.015
188,-0.035,0.045
189,-0.025,0.045
190,0.065,0.025
191,0.015,-0.045
192,-0.055,-0.085
193,-0.095,-0.055
194,-0.045,-0.055
195,-0.095,-0.025
196,-0.145,-0.035
197,-0.155,-0.025
198,-0.155,-0.045
199,-0.185,-0.055
200,-0.185,-0.045
201,-0.165,-0.025
202,-0.155,-0.025
203,-0.155,0.045
204,-0.685,0.225
205,-0.845,0.035
206,0.055,-0.415
207,1.645,-0.265
208,2.725,-0.195
209,2.855,0.465
210,2.255,-0.125
211,0.495,-0.965
212,-0.255,-0.465
213,-0.215,-0.025
214,-0.255,0.005
215,-0.295,-0.015
216,-0.305,-0.035
217,-0.335,-0.015
218,-0.305,-0.035
219,-0.345,-0.045
220,-0.305,-0.045
221,-0.265,-0.035
222,-0.265,-0.055
223,-0.265,-0.065
224,-0.205,-0.065
225,-0.215,-0.065
226,-0.185,-0.075
227,-0.165,-0.095
228,-0.135,-0.105
229,-0.155,-0.125
230,-0.105,-0.125
231,-0.125,-0.155
232,-0.145,-0.165
233,-0.135,-0.195
234,-0.115,-0.195
235,-0.175,-0.195
236,-0.195,-0.215
237,-0.215,-0.205
238,-0.185,-0.165
239,-0.185,-0.135
240,-0.155,-0.105
241,-0.125,-0.055
242,-0.125,-0.045
243,-0.135,-0.025
244,-0.105,-0.005
245,-0.125,0.025
246,-0.135,0.005
247,-0.165,0.015
248,-0.175,0.005
249,-0.175,0.005
250,-0.095,0.025
251,-0.125,0.035
252,-0.135,0.035
253,-0.145,0.015
254,-0.125,0.015
255,-0.115,0.005
256,-0.095,0.005
257,-0.125,0.005
258,-0.155,0.015
259,-0.125,0.015
260,-0.125,0.005
261,-0.165,0.005
262,-0.135,0.025
263,-0.115,0.015
264,-0.055,0.065
265,-0.035,0.065
266,-0.085,0.085
267,-0.045,0.075
268,0.045,-0.005
269,-0.005,-0.015
270,-0.045,-0.015
271,-0.125,-0.025
272,-0.145,-0.025
273,-0.115,0.035
274,-0.135,0.005
275,-0.175,-0.005
276,-0.225,-0.015
277,-0.205,-0.015
278,-0.205,0.005
279,-0.245,0.005
280,-0.185,0.005
281,-0.195,0.105
282,-0.835,0.165
283,-0.775,-0.055
284,0.295,-0.425
285,2.085,-0.215
286,2.885,0.125
287,2.645,0.545
288,1.575,-0.185
289,0.005,-0.575
290,-0.305,-0.235
291,-0.265,-0.015
292,-0.315,-0.005
293,-0.355,-0.015
294,-0.355,0.015
295,-0.365,-0.005
296,-0.375,-0.015
297,-0.335,-0.005
298,-0.295,-0.015
299,-0.285,-0.005
300,-0.285,-0.035
301,-0.265,-0.025
302,-0.255,-0.025
303,-0.245,-0.025
304,-0.205,-0.045
305,-0.175,-0.055
306,-0.185,-0.055
307,-0.145,-0.075
308,-0.155,-0.105
309,-0.175,-0.125
310,-0.145,-0.115
311,-0.215,-0.145
312,-0.215,-0.155
313,-0.215,-0.155
314,-0.265,-0.145
315,-0.245,-0.145
316,-0.225,-0.125
317,-0.175,-0.115
318,-0.185,-0.075
319,-0.175,-0.045
320,-0.175,-0.025
321,-0.175,-0.005
322,-0.165,0.015
323,-0.175,0.025
324,-0.185,0.015
325,-0.205,0.015
326,-0.185,0.025
327,-0.185,0.035
328,-0.185,0.005
329,-0.165,0.015
330,-0.175,0.045
331,-0.195,0.015
332,-0.165,0.005
333,-0.185,0.025
334,-0.195,0.015
335,-0.165,0.025
336,-0.175,0.005
337,-0.175,0.015
338,-0.175,0.025
339,-0.185,0.015
340,-0.185,0.005
341,-0.195,0.015
342,-0.205,0.025
343,-0.125,0.035
344,-0.125,0.055
345,-0.145,0.065
346,-0.095,0.085
347,-0.025,0.025
348,-0.035,-0.015
349,-0.075,-0.045
350,-0.115,-0.015
351,-0.145,-0.005
352,-0.175,0.015
353,-0.215,0.005
354,-0.225,-0.005
355,-0.235,-0.015
356,-0.245,-0.015
357,-0.255,-0.005
358,-0.245,0.005
359,-0.235,-0.015
360,-0.185,0.035
361,-0.725,0.195
362,-0.905,-0.025
363,-0.105,-0.565
364,1.645,-0.285
365,2.615,0.155
366,2.535,0.805
367,1.825,0.085
368,0.275,-0.805
369,-0.345,-0.405
370,-0.325,-0.075
371,-0.335,-0.045
372,-0.365,-0.075
373,-0.375,-0.045
374,-0.395,-0.045
375,-0.375,-0.045
376,-0.395,-0.075
377,-0.355,-0.085
378,-0.325,-0.065
379,-0.345,-0.115
380,-0.325,-0.115
381,-0.285,-0.105
382,-0.285,-0.115
383,-0.255,-0.125
384,-0.275,-0.145
385,-0.295,-0.205
386,-0.135,-0.215
387,-0.185,-0.225
388,-0.185,-0.295
389,-0.185,-0.315
390,-0.215,-0.305
391,-0.215,-0.315
392,-0.285,-0.305
393,-0.295,-0.305
394,-0.305,-0.265
395,-0.225,-0.255
396,-0.195,-0.205
397,-0.155,-0.145
398,-0.145,-0.065
399,-0.175,-0.055
400,-0.165,-0.035
401,-0.205,-0.005
402,-0.145,0.005
403,-0.185,0.025
404,-0.215,0.005
405,-0.215,0.025
406,-0.185,0.035
407,-0.195,0.025
408,-0.255,0.015
409,-0.185,0.005
410,-0.205,0.045
411,-0.225,0.025
412,-0.165,0.015
413,-0.155,0.015
414,-0.185,0.035
415,-0.205,0.015
416,-0.205,0.015
417,-0.215,0.015
418,-0.175,0.015
419,-0.185,0.025
420,-0.215,0.015
421,-0.185,0.025
422,-0.125,0.065
423,-0.125,0.085
424,-0.155,0.095
425,-0.095,0.085
426,0.005,0.035
427,-0.065,-0.015
428,-0.135,-0.025
429,-0.145,0.015
430,-0.105,0.045
431,-0.165,0.045
432,-0.215,0.025
433,-0.225,0.015
434,-0.265,0.025
435,-0.235,0.015
436,-0.265,0.025
437,-0.275,0.005
438,-0.205,0.045
439,-0.325,0.165
440,-0.915,0.085
441,-0.695,-0.225
442,0.545,-0.545
443,2.155,-0.155
444,2.655,0.435
445,2.375,0.785
446,1.055,-0.405
447,-0.215,-0.585
448,-0.335,-0.175
449,-0.345,-0.005
450,-0.375,0.005
451,-0.365,-0.015
452,-0.385,-0.015
453,-0.395,-0.015
454,-0.365,-0.015
455,-0.375,-0.025
456,-0.355,-0.035
457,-0.325,-0.025
458,-0.315,-0.035
459,-0.275,-0.045
460,-0.245,-0.075
461,-0.235,-0.085
462,-0.215,-0.075
463,-0.225,-0.105
464,-0.205,-0.115
465,-0.195,-0.145
466,-0.205,-0.165
467,-0.185,-0.185
468,-0.185,-0.205
469,-0.205,-0.225
470,-0.225,-0.205
471,-0.215,-0.225
472,-0.215,-0.235
473,-0.255,-0.215
474,-0.235,-0.165
475,-0.185,-0.135
476,-0.165,-0.065
477,-0.145,-0.045
478,-0.135,0.015
479,-0.155,0.055
480,-0.155,0.025
481,-0.145,0.045
482,-0.135,0.065
483,-0.155,0.045
484,-0.165,0.035
485,-0.165,0.045
486,-0.145,0.055
487,-0.165,0.045
488,-0.185,0.035
489,-0.145,0.065
490,-0.175,0.055
491,-0.135,0.035
492,-0.165,0.025
493,-0.135,0.055
494,-0.125,0.055
495,-0.135,0.055
496,-0.145,0.035
497,-0.145,0.045
498,-0.125,0.055
499,-0.135,0.035
500,-0.115,0.055
501,-0.075,0.095
502,-0.075,0.125
503,-0.095,0.115
504,0.005,0.095
505,0.075,0.025
506,-0.005,-0.005
507,-0.055,-0.005
508,-0.095,0.015
509,-0.075,0.045
510,-0.115,0.055
511,-0.145,0.035
512,-0.225,0.035
513,-0.175,0.005
514,-0.165,0.005
515,-0.195,0.005
516,-0.155,0.005
517,-0.135,0.025
518,-0.185,0.165
519,-0.745,0.155
520,-0.695,-0.165
521,0.475,-0.625
522,2.205,-0.105
523,2.795,0.455
524,2.585,0.855
525,1.415,-0.265
526,-0.055,-0.675
527,-0.295,-0.285
528,-0.265,-0.055
529,-0.295,-0.025
530,-0.285,-0.025
531,-0.285,-0.015
532,-0.305,-0.065
533,-0.295,-0.065
534,-0.255,-0.045
535,-0.275,-0.045
536,-0.275,-0.075
537,-0.225,-0.075
538,-0.195,-0.075
539,-0.185,-0.105
540,-0.175,-0.115
541,-0.155,-0.145
542,-0.145,-0.145
543,-0.145,-0.165
544,-0.115,-0.215
545,-0.135,-0.245
546,-0.115,-0.255
547,-0.105,-0.265
548,-0.165,-0.295
549,-0.145,-0.295
550,-0.195,-0.275
551,-0.165,-0.265
552,-0.125,-0.235
553,-0.145,-0.215
554,-0.105,-0.165
555,-0.055,-0.105
556,-0.075,-0.085
557,-0.075,-0.045
558,-0.095,-0.015
559,-0.065,0.005
560,-0.075,0.025
561,-0.105,0.005
562,-0.095,0.015
563,-0.085,0.025
564,-0.135,-0.005
565,-0.125,0.005
566,-0.095,0.025
567,-0.115,0.025
568,-0.095,0.005
569,-0.115,0.005
570,-0.105,0.015
571,-0.105,0.005
572,-0.105,0.005
573,-0.165,-0.015
574,-0.145,0.015
575,-0.065,0.005
576,-0.095,0.015
577,-0.095,0.005
578,-0.065,0.045
579,-0.015,0.055
580,-0.035,0.045
581,-0.025,0.075
582,0.085,0.015
583,0.015,-0.035
584,-0.045,-0.045
585,-0.085,-0.025
586,-0.085,0.005
587,-0.105,0.005
588,-0.155,-0.035
589,-0.155,-0.035
590,-0.155,-0.025
591,-0.185,-0.015
592,-0.175,-0.065
593,-0.175,-0.015
594,-0.135,-0.015
595,-0.305,0.155
596,-0.855,0.075
597,-0.455,-0.205
598,0.895,-0.395
599,2.455,-0.145
600,2.815,0.225
601,2.545,0.645
602,1.225,-0.535
603,-0.125,-0.815
604,-0.325,-0.315
605,-0.255,-0.055
606,-0.285,-0.035
607,-0.305,-0.065
608,-0.335,-0.055
609,-0.305,-0.065
610,-0.275,-0.045
611,-0.275,-0.085
612,-0.305,-0.105
613,-0.235,-0.095
614,-0.235,-0.085
615,-0.215,-0.095
616,-0.205,-0.135
617,-0.175,-0.135
618,-0.155,-0.155
619,-0.135,-0.145
620,-0.155,-0.185
621,-0.095,-0.215
622,-0.105,-0.215
623,-0.155,-0.245
624,-0.135,-0.265
625,-0.105,-0.265
626,-0.145,-0.255
627,-0.135,-0.235
628,-0.195,-0.245
629,-0.165,-0.205
630,-0.115,-0.145
631,-0.105,-0.115
632,-0.125,-0.105
633,-0.085,-0.065
634,-0.075,-0.025
635,-0.075,-0.005
636,-0.075,-0.005
637,-0.105,-0.015
638,-0.135,0.005
639,-0.125,-0.005
640,-0.115,-0.025
641,-0.095,-0.015
642,-0.115,0.005
643,-0.135,0.025
644,-0.075,-0.015
645,-0.095,0.005
646,-0.105,0.015
647,-0.115,0.005
648,-0.105,-0.045
649,-0.105,-0.015
650,-0.095,-0.015
651,-0.085,-0.015
652,-0.075,-0.005
653,-0.095,-0.025
654,-0.095,-0.005
655,-0.035,0.045
656,-0.005,0.045
657,-0.055,0.065
658,-0.015,0.075
659,0.085,0.005
660,0.045,-0.055
661,-0.005,-0.065
662,-0.065,-0.035
663,-0.055,-0.025
664,-0.055,0.005
665,-0.085,-0.015
666,-0.125,-0.035
667,-0.185,-0.045
668,-0.125,-0.035
669,-0.145,-0.035
670,-0.155,-0.025
671,-0.125,-0.035
672,-0.155,0.125
673,-0.735,0.205
674,-0.715,-0.025
675,0.385,-0.445
676,2.005,-0.245
677,2.805,-0.045
678,2.735,0.485
679,1.635,-0.635
680,0.075,-0.845
681,-0.205,-0.235
682,-0.215,0.015
683,-0.225,-0.005
684,-0.275,-0.035
685,-0.305,-0.045
686,-0.285,-0.035
687,-0.275,-0.035
688,-0.265,-0.065
689,-0.255,-0.055
690,-0.275,-0.055
691,-0.225,-0.065
692,-0.175,-0.075
693,-0.195,-0.085
694,-0.175,-0.065
695,-0.125,-0.095
696,-0.075,-0.115
697,-0.105,-0.135
698,-0.075,-0.135
699,-0.125,-0.155
700,-0.095,-0.165
701,-0.045,-0.185
702,-0.085,-0.175
703,-0.145,-0.195
704,-0.185,-0.225
705,-0.255,-0.215
706,-0.205,-0.175
707,-0.175,-0.165
708,-0.145,-0.145
709,-0.165,-0.105
710,-0.115,-0.085
711,-0.085,-0.055
712,-0.085,-0.045
713,-0.105,-0.035
714,-0.115,-0.015
715,-0.105,-0.015
716,-0.135,0.005
717,-0.145,-0.015
718,-0.105,0.005
719,-0.125,-0.015
720,-0.135,-0.035
721,-0.115,-0.035
722,-0.105,-0.005
723,-0.125,-0.025
724,-0.125,-0.005
725,-0.165,-0.035
726,-0.095,-0.005
727,-0.075,-0.005
728,-0.105,-0.015
729,-0.125,-0.025
730,-0.135,-0.005
731,-0.115,-0.015
732,-0.115,-0.035
733,-0.115,0.015
734,-0.035,0.025
735,-0.045,0.045
736,-0.065,0.065
737,0.025,0.025
738,0.045,-0.025
739,-0.025,-0.065
740,-0.075,-0.065
741,-0.105,-0.025
742,-0.115,-0.035
743,-0.115,-0.025
744,-0.145,-0.055
745,-0.175,-0.045
746,-0.195,0.005
747,-0.255,-0.055
748,-0.185,-0.045
749,-0.155,-0.045
750,-0.135,-0.005
751,-0.405,0.215
752,-0.805,0.105
753,-0.445,-0.335
754,1.025,-0.445
755,2.465,-0.275
756,2.855,0.425
757,2.465,0.105
758,0.995,-0.955
759,-0.105,-0.565
760,-0.225,-0.085
761,-0.265,-0.015
762,-0.295,-0.035
763,-0.335,-0.035
764,-0.325,-0.035
765,-0.325,-0.045
766,-0.335,-0.025
767,-0.305,-0.055
768,-0.295,-0.075
769,-0.255,-0.075
770,-0.255,-0.045
771,-0.225,-0.085
772,-0.205,-0.075
773,-0.205,-0.105
774,-0.185,-0.105
775,-0.155,-0.125
776,-0.135,-0.155
777,-0.105,-0.165
778,-0.095,-0.155
779,-0.125,-0.215
780,-0.135,-0.235
781,-0.175,-0.235
782,-0.185,-0.225
783,-0.155,-0.205
784,-0.205,-0.215
785,-0.215,-0.205
786,-0.195,-0.155
787,-0.155,-0.125
788,-0.125,-0.085
789,-0.155,-0.055
790,-0.115,-0.025
791,-0.125,-0.005
792,-0.135,0.005
793,-0.165,-0.005
794,-0.145,0.005
795,-0.165,0.005
796,-0.115,-0.005
797,-0.115,0.005
798,-0.115,0.025
799,-0.135,0.005
800,-0.145,-0.025
801,-0.145,-0.005
802,-0.125,0.005
803,-0.125,-0.005
804,-0.095,0.005
805,-0.095,0.005
806,-0.105,-0.015
807,-0.115,-0.005
808,-0.135,-0.015
809,-0.135,-0.005
810,-0.115,-0.015
811,-0.145,0.005
812,-0.085,0.005
813,-0.045,0.035
814,-0.065,0.055
815,-0.065,0.045
816,0.065,0.025
817,0.045,-0.025
818,0.005,-0.045
819,-0.055,-0.045
820,-0.095,-0.055
821,-0.105,-0.015
822,-0.135,0.025
823,-0.155,-0.025
824,-0.205,-0.025
825,-0.195,-0.055
826,-0.195,-0.045
827,-0.195,-0.035
828,-0.175,-0.015
829,-0.195,-0.035
830,-0.305,0.155
831,-0.815,0.055
832,-0.615,-0.335
833,0.655,-0.655
834,2.305,-0.195
835,2.765,0.405
836,2.475,0.665
837,1.085,-0.695
838,-0.155,-0.685
839,-0.295,-0.185
840,-0.255,-0.035
841,-0.305,-0.065
842,-0.315,-0.065
843,-0.335,-0.055
844,-0.335,-0.065
845,-0.315,-0.085
846,-0.315,-0.085
847,-0.285,-0.085
848,-0.265,-0.105
849,-0.255,-0.105
850,-0.255,-0.115
851,-0.215,-0.115
852,-0.185,-0.145
853,-0.145,-0.145
854,-0.165,-0.135
855,-0.145,-0.195
856,-0.125,-0.215
857,-0.125,-0.235
858,-0.095,-0.255
859,-0.125,-0.265
860,-0.155,-0.295
861,-0.145,-0.305
862,-0.205,-0.315
863,-0.215,-0.300
864,-0.215,-0.270
865,-0.175,-0.210
866,-0.195,-0.170
867,-0.085,-0.130
868,-0.055,-0.100
869,-0.095,-0.060
870,-0.085,-0.040
871,-0.115,-0.020
872,-0.125,-0.010
873,-0.115,0.000
874,-0.125,-0.010
875,-0.145,-0.010
876,-0.125,-0.010
877,-0.105,0.000
878,-0.105,0.000
879,-0.115,0.000
880,-0.105,-0.010
881,-0.075,-0.010
882,-0.085,-0.020
883,-0.095,-0.020
884,-0.095,-0.020
885,-0.075,-0.010
886,-0.085,-0.020
887,-0.105,-0.015
888,-0.095,-0.015
889,-0.085,-0.015
890,-0.085,0.005
891,-0.095,0.005
892,-0.115,-0.025
893,-0.085,-0.015
894,-0.105,0.015
895,-0.055,0.025
896,-0.045,0.035
897,-0.005,0.045
898,0.015,0.045
899,0.065,-0.005
900,0.035,-0.045
901,0.015,-0.075
902,-0.025,-0.035
903,-0.045,-0.015
904,-0.085,-0.005
905,-0.075,-0.015
906,-0.105,-0.015
907,-0.155,-0.035
908,-0.185,-0.045
909,-0.145,-0.015
910,-0.135,-0.025
911,-0.145,-0.035
912,-0.115,0.035
913,-0.645,0.135
914,-0.675,-0.105
915,0.275,-0.625
916,1.925,-0.235
917,2.745,0.175
918,2.535,0.905
919,1.725,0.045
920,0.045,-0.845
921,-0.335,-0.395
922,-0.265,-0.095
923,-0.265,-0.065
924,-0.285,-0.085
925,-0.285,-0.095
926,-0.315,-0.075
927,-0.295,-0.095
928,-0.275,-0.095
929,-0.275,-0.065
930,-0.265,-0.115
931,-0.235,-0.125
932,-0.225,-0.135
933,-0.195,-0.155
934,-0.175,-0.155
935,-0.155,-0.175
936,-0.145,-0.195
937,-0.205,-0.195
938,-0.125,-0.235
939,-0.105,-0.275
940,-0.105,-0.295
941,-0.095,-0.305
942,-0.125,-0.295
943,-0.115,-0.305
944,-0.145,-0.305
945,-0.165,-0.295
946,-0.145,-0.265
947,-0.135,-0.225
948,-0.085,-0.205
949,-0.065,-0.115
950,-0.065,-0.095
951,-0.085,-0.095
952,-0.095,-0.045
953,-0.085,-0.025
954,-0.075,-0.005
955,-0.115,-0.015
956,-0.115,-0.005
957,-0.135,-0.005
958,-0.105,-0.015
959,-0.145,-0.005
960,-0.115,-0.015
961,-0.125,-0.005
962,-0.135,0.005
963,-0.125,-0.025
964,-0.145,-0.015
965,-0.085,-0.005
966,-0.095,0.005
967,-0.145,-0.025
968,-0.105,-0.025
969,-0.105,-0.015
970,-0.105,0.015
971,-0.145,-0.015
972,-0.105,-0.035
973,-0.135,-0.015
974,-0.125,0.005
975,-0.085,0.015
976,-0.075,0.015
977,-0.085,0.025
978,-0.105,0.055
979,0.005,0.055
980,0.065,0.005
981,-0.015,-0.025
982,-0.085,-0.045
983,-0.105,-0.045
984,-0.105,-0.025
985,-0.105,-0.005
986,-0.155,-0.025
987,-0.165,-0.035
988,-0.185,-0.045
989,-0.195,-0.045
990,-0.185,-0.025
991,-0.185,-0.025
992,-0.165,-0.035
993,-0.165,0.045
994,-0.745,0.165
995,-0.685,-0.025
996,0.545,-0.415
997,2.165,-0.205
998,2.835,0.005
999,2.635,0.545
1000,1.655,-0.095
1001,-0.015,-0.825
1002,-0.415,-0.415
1003,-0.245,-0.085
1004,-0.295,-0.035
1005,-0.335,-0.045
1006,-0.325,-0.065
1007,-0.325,-0.045
1008,-0.335,-0.055
1009,-0.315,-0.075
1010,-0.285,-0.065
1011,-0.255,-0.075
1012,-0.265,-0.085
1013,-0.265,-0.095
1014,-0.215,-0.085
1015,-0.205,-0.115
1016,-0.195,-0.125
1017,-0.165,-0.135
1018,-0.125,-0.125
1019,-0.145,-0.175
1020,-0.155,-0.215
1021,-0.145,-0.215
1022,-0.125,-0.235
1023,-0.215,-0.255
1024,-0.165,-0.255
1025,-0.175,-0.225
1026,-0.195,-0.205
1027,-0.165,-0.175
1028,-0.155,-0.145
1029,-0.125,-0.125
1030,-0.095,-0.085
1031,-0.105,-0.055
1032,-0.095,-0.035
1033,-0.135,-0.015
1034,-0.135,0.005
1035,-0.135,0.015
1036,-0.165,-0.015
1037,-0.135,-0.005
1038,-0.135,0.015
1039,-0.135,0.015
1040,-0.145,-0.005
1041,-0.145,0.005
1042,-0.135,0.015
1043,-0.145,0.005
1044,-0.125,-0.015
1045,-0.115,-0.015
1046,-0.105,-0.005
1047,-0.135,-0.005
1048,-0.115,-0.005
1049,-0.105,-0.015
1050,-0.145,0.005
1051,-0.135,0.005
1052,-0.135,0.005
1053,-0.125,-0.025
1054,-0.125,0.005
1055,-0.085,0.055
1056,-0.075,0.055
1057,-0.065,0.075
1058,0.015,0.065
1059,0.045,-0.005
1060,0.005,-0.035
1061,-0.035,-0.055
1062,-0.085,-0.015
1063,-0.115,0.005
1064,-0.115,-0.005
1065,-0.125,-0.015
1066,-0.145,-0.015
1067,-0.195,-0.035
1068,-0.205,-0.025
1069,-0.175,-0.025
1070,-0.145,-0.015
1071,-0.155,-0.025
1072,-0.265,0.135
1073,-0.755,0.185
1074,-0.545,-0.105
1075,0.695,-0.405
1076,2.195,-0.255
1077,2.715,0.085
1078,2.535,0.455
1079,1.145,-0.745
1080,-0.135,-0.745
1081,-0.245,-0.165
1082,-0.215,0.005
1083,-0.265,0.005
1084,-0.355,-0.035
1085,-0.335,-0.035
1086,-0.305,-0.015
1087,-0.315,-0.025
1088,-0.295,-0.055
1089,-0.295,-0.065
1090,-0.275,-0.045
1091,-0.255,-0.055
1092,-0.255,-0.065
1093,-0.205,-0.065
1094,-0.165,-0.085
1095,-0.145,-0.105
1096,-0.145,-0.125
1097,-0.125,-0.135
1098,-0.105,-0.115
1099,-0.115,-0.175
1100,-0.135,-0.215
1101,-0.135,-0.215
1102,-0.125,-0.205
1103,-0.185,-0.225
1104,-0.215,-0.225
1105,-0.235,-0.215
1106,-0.205,-0.175
1107,-0.195,-0.145
1108,-0.165,-0.115
1109,-0.135,-0.065
1110,-0.135,-0.025
1111,-0.125,-0.025
1112,-0.135,-0.025
1113,-0.135,0.035
1114,-0.135,0.015
1115,-0.145,-0.005
1116,-0.135,-0.005
1117,-0.135,0.035
1118,-0.135,0.025
1119,-0.125,0.005
1120,-0.115,0.005
1121,-0.145,-0.005
1122,-0.105,0.025
1123,-0.115,-0.005
1124,-0.135,0.005
1125,-0.135,0.005
1126,-0.095,0.015
1127,-0.125,0.025
1128,-0.155,-0.005
1129,-0.135,-0.035
1130,-0.135,-0.005
1131,-0.115,-0.005
1132,-0.135,-0.015
1133,-0.105,0.035
1134,-0.085,0.005
1135,-0.025,0.025
1136,-0.045,0.055
1137,-0.105,0.075
1138,-0.005,0.085
1139,0.075,0.005
1140,-0.005,-0.025
1141,-0.045,-0.065
1142,-0.105,-0.025
1143,-0.095,-0.015
1144,-0.125,0.025
1145,-0.095,-0.005
1146,-0.135,-0.015
1147,-0.205,-0.015
1148,-0.195,-0.035
1149,-0.185,-0.015
1150,-0.175,-0.015
1151,-0.185,-0.035
1152,-0.145,0.025
1153,-0.675,0.215
1154,-0.765,-0.045
1155,0.335,-0.585
1156,2.115,-0.325
1157,2.855,0.125
1158,2.615,0.635
1159,1.305,-0.575
1160,-0.095,-0.825
1161,-0.265,-0.215
1162,-0.265,-0.015
1163,-0.285,-0.025
1164,-0.325,-0.045
1165,-0.355,-0.025
1166,-0.305,-0.055
1167,-0.325,-0.055
1168,-0.305,-0.045
1169,-0.305,-0.085
1170,-0.285,-0.055
1171,-0.245,-0.095
1172,-0.235,-0.105
1173,-0.205,-0.085
1174,-0.225,-0.115
1175,-0.135,-0.145
1176,-0.175,-0.145
1177,-0.125,-0.165
1178,-0.075,-0.165
1179,-0.085,-0.195
1180,-0.095,-0.215
1181,-0.105,-0.255
1182,-0.145,-0.235
1183,-0.115,-0.275
1184,-0.185,-0.275
1185,-0.195,-0.265
1186,-0.195,-0.215
1187,-0.205,-0.215
1188,-0.135,-0.175
1189,-0.105,-0.085
1190,-0.135,-0.075
1191,-0.105,-0.065
1192,-0.135,-0.035
1193,-0.135,-0.015
1194,-0.155,0.005
1195,-0.135,0.005
1196,-0.125,-0.035
1197,-0.135,-0.025
1198,-0.185,0.005
1199,-0.165,0.005
1200,-0.125,-0.025
1201,-0.145,-0.015
1202,-0.115,0.005
1203,-0.125,0.015
1204,-0.165,0.005
1205,-0.125,-0.015
1206,-0.155,-0.015
1207,-0.145,-0.005
1208,-0.165,-0.035
1209,-0.145,0.015
1210,-0.135,0.005
1211,-0.155,-0.025
1212,-0.155,-0.025
1213,-0.175,-0.015
1214,-0.145,-0.005
1215,-0.175,-0.005
1216,-0.145,-0.015
1217,-0.095,0.015
1218,-0.055,0.045
1219,-0.085,0.055
1220,-0.055,0.045
1221,0.055,0.005
1222,-0.045,-0.005
1223,-0.075,-0.045
1224,-0.105,-0.035
1225,-0.105,-0.015
1226,-0.135,0.025
1227,-0.195,0.005
1228,-0.195,-0.035
1229,-0.205,-0.035
1230,-0.185,-0.015
1231,-0.195,-0.025
1232,-0.205,-0.015
1233,-0.195,-0.035
1234,-0.175,0.025
1235,-0.565,0.195
1236,-0.735,-0.055
1237,0.045,-0.575
1238,1.855,-0.335
1239,2.745,0.145
1240,2.595,0.745
1241,1.645,-0.155
1242,0.085,-0.725
1243,-0.305,-0.365
1244,-0.275,-0.095
1245,-0.285,-0.045
1246,-0.335,-0.055
1247,-0.355,-0.055
1248,-0.355,-0.075
1249,-0.335,-0.085
1250,-0.355,-0.055
1251,-0.315,-0.105
1252,-0.295,-0.095
1253,-0.275,-0.115
1254,-0.235,-0.125
1255,-0.235,-0.135
1256,-0.225,-0.135
1257,-0.205,-0.155
1258,-0.185,-0.185
1259,-0.185,-0.205
1260,-0.165,-0.235
1261,-0.125,-0.275
1262,-0.135,-0.275
1263,-0.135,-0.315
1264,-0.145,-0.345
1265,-0.145,-0.315
1266,-0.175,-0.325
1267,-0.205,-0.325
1268,-0.185,-0.295
1269,-0.205,-0.265
1270,-0.125,-0.205
1271,-0.105,-0.145
1272,-0.115,-0.105
1273,-0.095,-0.065
1274,-0.125,-0.045
1275,-0.115,-0.025
1276,-0.135,-0.015
1277,-0.155,-0.015
1278,-0.155,0.005
1279,-0.165,-0.005
1280,-0.145,-0.015
1281,-0.125,0.005
1282,-0.145,-0.005
1283,-0.155,-0.005
1284,-0.165,-0.005
1285,-0.145,-0.015
1286,-0.185,-0.005
1287,-0.155,-0.005
1288,-0.135,0.025
1289,-0.145,-0.015
1290,-0.135,-0.005
1291,-0.145,-0.005
1292,-0.165,-0.015
1293,-0.165,-0.005
1294,-0.165,-0.005
1295,-0.135,-0.015
1296,-0.145,-0.025
1297,-0.175,-0.005
1298,-0.165,0.025
1299,-0.125,-0.005
1300,-0.135,0.015
1301,-0.155,0.045
1302,-0.095,0.065
1303,-0.055,0.075
1304,0.025,-0.005
1305,-0.015,-0.025
1306,-0.095,-0.045
1307,-0.135,-0.035
1308,-0.085,-0.025
1309,-0.135,0.005
1310,-0.145,-0.015
1311,-0.195,-0.025
1312,-0.215,-0.015
1313,-0.255,-0.025
1314,-0.235,-0.025
1315,-0.185,-0.035
1316,-0.205,-0.035
1317,-0.215,0.065
1318,-0.645,0.145
1319,-0.725,-0.115
1320,0.095,-0.565
1321,1.815,-0.265
1322,2.635,0.135
1323,2.475,0.835
1324,1.575,0.145
1325,-0.035,-0.815
1326,-0.395,-0.425
1327,-0.325,-0.105
1328,-0.325,-0.065
1329,-0.335,-0.075
1330,-0.345,-0.055
1331,-0.355,-0.055
1332,-0.365,-0.085
1333,-0.355,-0.085
1334,-0.335,-0.105
1335,-0.295,-0.115
1336,-0.295,-0.135
1337,-0.295,-0.135
1338,-0.265,-0.135
1339,-0.235,-0.145
1340,-0.235,-0.175
1341,-0.215,-0.185
1342,-0.205,-0.195
1343,-0.205,-0.235
1344,-0.205,-0.275
1345,-0.175,-0.285
1346,-0.155,-0.285
1347,-0.185,-0.305
1348,-0.205,-0.325
1349,-0.205,-0.305
1350,-0.235,-0.275
1351,-0.215,-0.265
1352,-0.215,-0.255
1353,-0.145,-0.195
1354,-0.145,-0.135
1355,-0.125,-0.105
1356,-0.165,-0.085
1357,-0.155,-0.045
1358,-0.195,-0.055
1359,-0.195,-0.025
1360,-0.215,-0.025
1361,-0.165,-0.005
1362,-0.215,0.005
1363,-0.195,-0.015
1364,-0.185,-0.045
1365,-0.155,-0.025
1366,-0.175,-0.005
1367,-0.175,-0.015
1368,-0.215,-0.005
1369,-0.185,-0.045
1370,-0.195,-0.015
1371,-0.195,-0.015
1372,-0.215,-0.045
1373,-0.205,-0.025
1374,-0.155,-0.015
1375,-0.155,-0.025
1376,-0.215,-0.035
1377,-0.235,-0.035
1378,-0.205,-0.015
1379,-0.195,-0.045
1380,-0.185,-0.055
1381,-0.175,-0.025
1382,-0.135,0.015
1383,-0.105,0.035
1384,-0.155,0.025
1385,-0.095,0.045
1386,0.005,0.005
1387,-0.085,-0.035
1388,-0.095,-0.085
1389,-0.135,-0.065
1390,-0.125,-0.025
1391,-0.175,-0.025
1392,-0.205,-0.055
1393,-0.215,-0.035
1394,-0.255,-0.045
1395,-0.265,-0.055
1396,-0.275,-0.065
1397,-0.215,-0.045
1398,-0.225,-0.045
1399,-0.195,0.015
1400,-0.645,0.205
1401,-0.755,0.015
1402,0.105,-0.375
1403,1.695,-0.255
1404,2.675,-0.135
1405,2.645,0.455
1406,2.185,0.285
1407,0.435,-0.865
1408,-0.365,-0.575
1409,-0.295,-0.115
1410,-0.375,-0.025
1411,-0.375,-0.055
1412,-0.355,-0.055
1413,-0.355,-0.035
1414,-0.395,-0.035
1415,-0.365,-0.075
1416,-0.325,-0.085
1417,-0.295,-0.065
1418,-0.295,-0.065
1419,-0.285,-0.075
1420,-0.275,-0.105
1421,-0.245,-0.105
1422,-0.255,-0.105
1423,-0.205,-0.125
1424,-0.225,-0.145
1425,-0.215,-0.165
1426,-0.155,-0.165
1427,-0.135,-0.205
1428,-0.155,-0.235
1429,-0.165,-0.255
1430,-0.175,-0.245
1431,-0.205,-0.255
1432,-0.205,-0.245
1433,-0.245,-0.235
1434,-0.215,-0.205
1435,-0.215,-0.175
1436,-0.175,-0.125
1437,-0.135,-0.095
1438,-0.135,-0.055
1439,-0.145,-0.045
1440,-0.145,-0.025
1441,-0.185,-0.015
1442,-0.195,-0.005
1443,-0.195,0.015
1444,-0.165,0.005
1445,-0.175,-0.005
1446,-0.175,-0.005
1447,-0.185,0.015
1448,-0.215,0.005
1449,-0.165,-0.005
1450,-0.155,-0.005
1451,-0.175,-0.015
1452,-0.205,-0.015
1453,-0.175,-0.015
1454,-0.175,-0.015
1455,-0.155,0.005
1456,-0.175,-0.005
1457,-0.185,-0.015
1458,-0.195,-0.015
1459,-0.175,-0.015
1460,-0.175,-0.015
1461,-0.205,-0.015
1462,-0.145,0.005
1463,-0.105,0.045
1464,-0.105,0.055
1465,-0.115,0.075
1466,-0.015,0.075
1467,-0.025,0.005
1468,-0.095,-0.065
1469,-0.125,-0.065
1470,-0.145,-0.045
1471,-0.165,-0.015
1472,-0.195,-0.005
1473,-0.175,-0.025
1474,-0.225,-0.025
1475,-0.225,-0.025
1476,-0.235,-0.045
1477,-0.235,-0.025
1478,-0.225,-0.015
1479,-0.205,-0.005
1480,-0.465,0.185
1481,-0.885,0.095
1482,-0.295,-0.305
1483,1.335,-0.325
1484,2.625,-0.215
1485,2.755,0.405
1486,2.255,0.085
1487,0.485,-0.905
1488,-0.325,-0.495
1489,-0.255,-0.065
1490,-0.285,0.005
1491,-0.335,-0.005
1492,-0.375,-0.025
1493,-0.415,-0.035
1494,-0.375,-0.015
1495,-0.345,-0.025
1496,-0.335,-0.055
1497,-0.355,-0.065
1498,-0.315,-0.035
1499,-0.265,-0.055
1500,-0.245,-0.065
1501,-0.225,-0.075
1502,-0.215,-0.075
1503,-0.235,-0.105
1504,-0.185,-0.115
1505,-0.165,-0.145
1506,-0.165,-0.155
1507,-0.135,-0.175
1508,-0.145,-0.185
1509,-0.145,-0.215
1510,-0.165,-0.215
1511,-0.195,-0.225
1512,-0.225,-0.205
1513,-0.235,-0.215
1514,-0.235,-0.155
1515,-0.215,-0.135
1516,-0.205,-0.115
1517,-0.185,-0.065
1518,-0.175,-0.025
1519,-0.125,-0.005
1520,-0.165,-0.005
1521,-0.185,0.005
1522,-0.205,0.025
1523,-0.185,0.035
1524,-0.175,0.045
1525,-0.185,0.005
1526,-0.165,0.025
1527,-0.185,0.025
1528,-0.165,0.015
1529,-0.175,0.015
1530,-0.165,0.025
1531,-0.155,0.025
1532,-0.165,0.005
1533,-0.135,0.005
1534,-0.185,0.025
1535,-0.165,0.025
1536,-0.165,0.015
1537,-0.145,0.005
1538,-0.125,0.005
1539,-0.165,0.015
1540,-0.175,0.005
1541,-0.195,-0.005
1542,-0.145,0.015
1543,-0.125,0.035
1544,-0.085,0.045
1545,-0.105,0.085
1546,-0.085,0.095
1547,0.005,0.065
1548,-0.005,-0.005
1549,-0.045,-0.035
1550,-0.085,-0.025
1551,-0.135,-0.005
1552,-0.125,0.015
1553,-0.135,0.025
1554,-0.155,-0.005
1555,-0.235,-0.015
1556,-0.255,-0.015
1557,-0.215,-0.005
1558,-0.195,0.005
1559,-0.205,-0.005
1560,-0.195,0.005
1561,-0.325,0.185
1562,-0.765,0.115
1563,-0.545,-0.265
1564,0.825,-0.605
1565,2.475,-0.225
1566,2.855,0.515
1567,2.355,0.485
1568,0.785,-0.785
1569,-0.235,-0.605
1570,-0.275,-0.075
1571,-0.295,0.005
1572,-0.335,-0.025
1573,-0.365,-0.035
1574,-0.375,-0.025
1575,-0.355,-0.025
1576,-0.355,-0.055
1577,-0.305,-0.045
1578,-0.285,-0.045
1579,-0.275,-0.075
1580,-0.265,-0.075
1581,-0.255,-0.065
1582,-0.225,-0.075
1583,-0.215,-0.095
1584,-0.155,-0.115
1585,-0.155,-0.125
1586,-0.115,-0.145
1587,-0.115,-0.165
1588,-0.125,-0.195
1589,-0.095,-0.225
1590,-0.085,-0.245
1591,-0.125,-0.265
1592,-0.125,-0.275
1593,-0.135,-0.265
1594,-0.175,-0.235
1595,-0.155,-0.205
1596,-0.115,-0.175
1597,-0.095,-0.135
1598,-0.085,-0.085
1599,-0.115,-0.055
1600,-0.095,-0.025
1601,-0.105,0.005
1602,-0.125,0.005
1603,-0.125,0.025
1604,-0.185,0.015
1605,-0.115,0.015
1606,-0.105,0.025
1607,-0.115,0.025
1608,-0.115,0.015
1609,-0.145,0.015
1610,-0.115,0.025
1611,-0.115,0.025
1612,-0.115,0.005
1613,-0.145,-0.005
1614,-0.125,0.025
1615,-0.105,0.015
1616,-0.115,0.015
1617,-0.135,0.005
1618,-0.185,0.005
1619,-0.125,0.015
1620,-0.115,0.005
1621,-0.105,0.005
1622,-0.185,0.015
1623,-0.055,0.035
1624,-0.045,0.045
1625,-0.075,0.075
1626,-0.035,0.085
1627,0.055,0.025
1628,0.025,-0.035
1629,-0.035,-0.055
1630,-0.115,-0.015
1631,-0.115,-0.005
1632,-0.135,0.035
1633,-0.105,-0.005
1634,-0.155,-0.015
1635,-0.215,-0.015
1636,-0.225,-0.025
1637,-0.215,-0.015
1638,-0.175,-0.005
1639,-0.145,-0.025
1640,-0.155,0.055
1641,-0.675,0.195
1642,-0.785,-0.045
1643,0.045,-0.505
1644,1.695,-0.255
1645,2.735,0.055
1646,2.635,0.725
1647,2.155,0.395
1648,0.425,-0.825
1649,-0.415,-0.565
1650,-0.345,-0.125
1651,-0.305,-0.035
1652,-0.345,-0.065
1653,-0.355,-0.075
1654,-0.355,-0.075
1655,-0.365,-0.075
1656,-0.325,-0.075
1657,-0.305,-0.095
1658,-0.305,-0.075
1659,-0.305,-0.095
1660,-0.285,-0.125
1661,-0.255,-0.135
1662,-0.255,-0.125
1663,-0.275,-0.155
1664,-0.195,-0.185
1665,-0.195,-0.205
1666,-0.155,-0.205
1667,-0.165,-0.235
1668,-0.165,-0.265
1669,-0.175,-0.285
1670,-0.175,-0.295
1671,-0.205,-0.305
1672,-0.225,-0.305
1673,-0.215,-0.285
1674,-0.235,-0.265
1675,-0.205,-0.215
1676,-0.165,-0.195
1677,-0.165,-0.145
1678,-0.135,-0.085
1679,-0.165,-0.065
1680,-0.155,-0.055
1681,-0.125,-0.035
1682,-0.125,-0.025
1683,-0.185,-0.025
1684,-0.225,-0.035
1685,-0.175,-0.025
1686,-0.165,-0.005
1687,-0.185,-0.015
1688,-0.185,-0.035
1689,-0.195,-0.025
1690,-0.185,-0.015
1691,-0.195,-0.015
1692,-0.145,-0.015
1693,-0.175,-0.015
1694,-0.205,-0.005
1695,-0.155,-0.025
1696,-0.145,-0.055
1697,-0.205,-0.035
1698,-0.175,-0.025
1699,-0.165,-0.025
1700,-0.215,-0.055
1701,-0.175,-0.035
1702,-0.165,-0.005
1703,-0.105,0.035
1704,-0.135,0.035
1705,-0.095,0.045
1706,0.025,0.045
1707,-0.035,-0.025
1708,-0.095,-0.085
1709,-0.105,-0.065
1710,-0.155,-0.035
1711,-0.145,-0.025
1712,-0.175,-0.025
1713,-0.205,-0.045
1714,-0.215,-0.035
1715,-0.245,-0.045
1716,-0.215,-0.045
1717,-0.235,-0.035
1718,-0.195,-0.025
1719,-0.205,-0.035
1720,-0.325,0.125
1721,-0.885,0.155
1722,-0.635,-0.105
1723,0.665,-0.455
1724,2.325,-0.255
1725,2.855,0.095
1726,2.585,0.485
1727,1.305,-0.625
1728,-0.105,-0.835
1729,-0.345,-0.275
1730,-0.275,-0.025
1731,-0.325,-0.025
1732,-0.385,-0.055
1733,-0.405,-0.045
1734,-0.375,-0.035
1735,-0.365,-0.045
1736,-0.355,-0.065
1737,-0.285,-0.055
1738,-0.285,-0.055
1739,-0.285,-0.085
1740,-0.285,-0.085
1741,-0.265,-0.105
1742,-0.225,-0.095
1743,-0.235,-0.105
1744,-0.195,-0.125
1745,-0.195,-0.135
1746,-0.185,-0.155
1747,-0.115,-0.185
1748,-0.135,-0.195
1749,-0.145,-0.205
1750,-0.195,-0.215
1751,-0.185,-0.235
1752,-0.295,-0.245
1753,-0.275,-0.235
1754,-0.235,-0.205
1755,-0.265,-0.175
1756,-0.255,-0.175
1757,-0.175,-0.125
1758,-0.125,-0.085
1759,-0.145,-0.065
1760,-0.155,-0.055
1761,-0.155,-0.045
1762,-0.145,-0.015
1763,-0.195,-0.015
1764,-0.185,-0.025
1765,-0.205,-0.025
1766,-0.185,-0.025
1767,-0.245,-0.035
1768,-0.215,-0.045
1769,-0.175,-0.035
1770,-0.185,-0.025
1771,-0.155,-0.025
1772,-0.175,-0.035
1773,-0.175,-0.045
1774,-0.165,-0.035
1775,-0.175,-0.035
1776,-0.185,-0.055
1777,-0.185,-0.065
1778,-0.185,-0.055
1779,-0.195,-0.035
1780,-0.195,-0.045
1781,-0.185,-0.055
1782,-0.125,0.005
1783,-0.125,0.005
1784,-0.175,-0.005
1785,-0.065,0.015
1786,-0.005,-0.045
1787,-0.105,-0.085
1788,-0.145,-0.095
1789,-0.165,-0.075
1790,-0.155,-0.055
1791,-0.195,-0.055
1792,-0.225,-0.065
1793,-0.245,-0.075
1794,-0.275,-0.055
1795,-0.285,-0.055
1796,-0.265,-0.065
1797,-0.265,-0.075
1798,-0.195,-0.035
1799,-0.445,0.135
1800,-0.905,0.065
1801,-0.425,-0.355
1802,1.225,-0.465
1803,2.635,-0.225
1804,2.955,0.375
1805,2.415,0.025
1806,0.705,-0.885
1807,-0.275,-0.585
1808,-0.315,-0.115
1809,-0.325,-0.025
1810,-0.365,-0.025
1811,-0.415,-0.065
1812,-0.405,-0.075
1813,-0.405,-0.055
1814,-0.395,-0.075
1815,-0.335,-0.095
1816,-0.335,-0.095
1817,-0.365,-0.095
1818,-0.325,-0.085
1819,-0.265,-0.115
1820,-0.295,-0.125
1821,-0.255,-0.125
1822,-0.205,-0.135
1823,-0.175,-0.155
1824,-0.205,-0.185
1825,-0.165,-0.185
1826,-0.145,-0.185
1827,-0.165,-0.245
1828,-0.175,-0.255
1829,-0.185,-0.265
1830,-0.205,-0.255
1831,-0.235,-0.255
1832,-0.245,-0.265
1833,-0.225,-0.225
1834,-0.215,-0.165
1835,-0.235,-0.165
1836,-0.155,-0.115
1837,-0.135,-0.085
1838,-0.135,-0.065
1839,-0.165,-0.055
1840,-0.175,-0.045
1841,-0.185,-0.015
1842,-0.175,-0.015
1843,-0.185,-0.035
1844,-0.205,-0.015
1845,-0.155,-0.045
1846,-0.155,-0.015
1847,-0.155,-0.025
1848,-0.175,-0.045
1849,-0.175,-0.045
1850,-0.145,-0.005
1851,-0.135,-0.045
1852,-0.135,-0.045
1853,-0.135,-0.025
1854,-0.115,-0.015
1855,-0.155,-0.055
1856,-0.125,-0.045
1857,-0.135,-0.035
1858,-0.155,-0.035
1859,-0.135,-0.035
1860,-0.125,-0.045
1861,-0.105,-0.025
1862,-0.065,0.015
1863,-0.055,0.025
1864,-0.075,0.025
1865,-0.005,0.015
1866,-0.005,-0.045
1867,-0.035,-0.075
1868,-0.075,-0.095
1869,-0.095,-0.065
1870,-0.095,-0.025
1871,-0.135,-0.035
1872,-0.125,-0.055
1873,-0.155,-0.045
1874,-0.175,-0.065
1875,-0.165,-0.055
1876,-0.175,-0.045
1877,-0.155,-0.065
1878,-0.125,-0.065
1879,-0.185,0.085
1880,-0.655,0.115
1881,-0.605,-0.205
1882,0.505,-0.645
1883,1.815,-0.215
1884,2.175,0.375
1885,1.925,0.565
1886,0.775,-0.785
1887,-0.125,-0.685
1888,-0.225,-0.195
1889,-0.215,-0.055
1890,-0.255,-0.075
1891,-0.315,-0.075
1892,-0.335,-0.085
1893,-0.315,-0.085
1894,-0.305,-0.095
1895,-0.315,-0.105
1896,-0.295,-0.105
1897,-0.285,-0.135
1898,-0.285,-0.145
1899,-0.215,-0.155
1900,-0.205,-0.165
1901,-0.195,-0.175
1902,-0.215,-0.175
1903,-0.205,-0.215
1904,-0.165,-0.265
1905,-0.175,-0.265
1906,-0.125,-0.275
1907,-0.155,-0.285
1908,-0.195,-0.325
1909,-0.185,-0.315
1910,-0.185,-0.315
1911,-0.145,-0.295
1912,-0.185,-0.265
1913,-0.175,-0.245
1914,-0.125,-0.195
1915,-0.115,-0.145
1916,-0.125,-0.115
1917,-0.115,-0.075
1918,-0.135,-0.035
1919,-0.165,-0.045
1920,-0.175,-0.035
1921,-0.165,-0.025
1922,-0.145,-0.015
1923,-0.195,-0.005
1924,-0.215,-0.025
1925,-0.195,-0.025
1926,-0.175,-0.015
1927,-0.155,-0.025
1928,-0.205,-0.025
1929,-0.165,-0.015
1930,-0.155,-0.015
1931,-0.165,-0.025
1932,-0.165,-0.035
1933,-0.185,-0.025
1934,-0.155,-0.025
1935,-0.175,-0.015
1936,-0.175,-0.015
1937,-0.215,-0.035
1938,-0.175,-0.025
1939,-0.155,-0.035
1940,-0.165,-0.005
1941,-0.125,0.015
1942,-0.115,0.035
1943,-0.055,0.025
1944,0.025,-0.035
1945,-0.045,-0.075
1946,-0.135,-0.065
1947,-0.155,-0.065
1948,-0.145,-0.065
1949,-0.255,-0.035
1950,-0.165,-0.035
1951,-0.195,-0.045
1952,-0.245,-0.055
1953,-0.245,-0.065
1954,-0.235,-0.055
1955,-0.255,-0.065
1956,-0.225,-0.055
1957,-0.235,0.025
1958,-0.825,0.135
1959,-0.755,-0.085
1960,0.335,-0.515
1961,1.975,-0.245
1962,2.725,-0.035
1963,2.485,0.625
1964,1.745,0.185
1965,0.045,-0.845
1966,-0.445,-0.485
1967,-0.325,-0.105
1968,-0.345,-0.055
1969,-0.375,-0.075
1970,-0.385,-0.055
1971,-0.395,-0.085
1972,-0.375,-0.095
1973,-0.345,-0.105
1974,-0.325,-0.085
1975,-0.335,-0.105
1976,-0.315,-0.115
1977,-0.285,-0.115
1978,-0.255,-0.115
1979,-0.275,-0.145
1980,-0.275,-0.175
1981,-0.225,-0.175
1982,-0.205,-0.175
1983,-0.225,-0.215
1984,-0.215,-0.245
1985,-0.195,-0.265
1986,-0.175,-0.265
1987,-0.195,-0.285
1988,-0.245,-0.285
1989,-0.225,-0.265
1990,-0.245,-0.285
1991,-0.235,-0.245
1992,-0.215,-0.215
1993,-0.155,-0.145
1994,-0.135,-0.125
1995,-0.155,-0.075
1996,-0.155,-0.055
1997,-0.125,-0.005
1998,-0.175,0.005
1999,-0.195,-0.025
2000,-0.175,-0.025
2001,-0.175,-0.005
2002,-0.175,0.005
2003,-0.175,-0.005
2004,-0.215,0.005
2005,-0.185,-0.005
2006,-0.155,-0.005
2007,-0.195,-0.015
2008,-0.175,-0.015
2009,-0.175,-0.015
2010,-0.185,0.005
2011,-0.155,0.015
2012,-0.205,-0.015
2013,-0.185,-0.035
2014,-0.175,0.005
2015,-0.145,-0.015
2016,-0.225,-0.015
2017,-0.165,-0.005
2018,-0.105,0.045
2019,-0.125,0.045
2020,-0.125,0.065
2021,-0.045,0.085
2022,-0.015,0.005
2023,-0.045,-0.015
2024,-0.085,-0.055
2025,-0.185,-0.035
2026,-0.175,-0.005
2027,-0.165,0.005
2028,-0.175,-0.015
2029,-0.215,-0.005
2030,-0.225,-0.015
2031,-0.235,-0.035
2032,-0.235,-0.025
2033,-0.235,-0.015
2034,-0.205,-0.015
2035,-0.305,0.095
2036,-0.925,0.195
2037,-0.745,-0.045
2038,0.525,-0.415
2039,2.195,-0.245
2040,2.775,0.005
2041,2.555,0.525
2042,1.315,-0.455
2043,-0.105,-0.765
2044,-0.325,-0.285
2045,-0.265,-0.025
2046,-0.315,0.015
2047,-0.365,-0.015
2048,-0.385,-0.025
2049,-0.385,-0.035
2050,-0.345,-0.015
2051,-0.375,-0.015
2052,-0.345,-0.065
2053,-0.315,-0.055
2054,-0.315,-0.035
2055,-0.335,-0.065
2056,-0.255,-0.075
2057,-0.235,-0.065
2058,-0.215,-0.065
2059,-0.215,-0.095
2060,-0.195,-0.135
2061,-0.175,-0.135
2062,-0.165,-0.135
2063,-0.185,-0.185
2064,-0.165,-0.195
2065,-0.175,-0.205
2066,-0.225,-0.215
2067,-0.255,-0.205
2068,-0.255,-0.215
2069,-0.255,-0.215
2070,-0.255,-0.175
2071,-0.225,-0.135
2072,-0.215,-0.105
2073,-0.185,-0.065
2074,-0.185,-0.005
2075,-0.175,-0.015
2076,-0.155,-0.015
2077,-0.185,0.005
2078,-0.175,0.035
2079,-0.185,0.035
2080,-0.245,0.005
2081,-0.195,0.015
2082,-0.175,0.035
2083,-0.185,0.045
2084,-0.175,0.005
2085,-0.185,0.005
2086,-0.175,0.025
2087,-0.205,0.015
2088,-0.215,-0.005
2089,-0.175,-0.005
2090,-0.165,0.025
2091,-0.155,0.025
2092,-0.175,0.015
2093,-0.175,0.045
2094,-0.195,-0.005
2095,-0.185,0.015
2096,-0.125,0.045
2097,-0.115,0.055
2098,-0.115,0.055
2099,-0.115,0.085
2100,0.005,0.035
2101,-0.035,0.005
2102,-0.105,-0.055
2103,-0.135,-0.025
2104,-0.155,-0.005
2105,-0.165,0.025
2106,-0.195,0.025
2107,-0.245,0.005
2108,-0.225,0.005
2109,-0.235,-0.015
2110,-0.285,-0.005
2111,-0.225,-0.005
2112,-0.205,-0.005
2113,-0.215,0.045
2114,-0.735,0.235
2115,-0.835,0.005
2116,0.075,-0.545
2117,1.785,-0.305
2118,2.745,0.105
2119,2.605,0.765
2120,1.675,-0.215
2121,0.135,-0.865
2122,-0.315,-0.295
2123,-0.285,-0.005
2124,-0.365,-0.025
2125,-0.375,-0.005
2126,-0.355,-0.015
2127,-0.375,-0.045
2128,-0.375,-0.045
2129,-0.385,-0.035
2130,-0.335,-0.075
2131,-0.335,-0.055
2132,-0.305,-0.075
2133,-0.295,-0.065
2134,-0.255,-0.085
2135,-0.225,-0.095
2136,-0.225,-0.105
2137,-0.205,-0.135
2138,-0.185,-0.155
2139,-0.175,-0.165
2140,-0.165,-0.215
2141,-0.145,-0.225
2142,-0.175,-0.225
2143,-0.155,-0.235
2144,-0.175,-0.235
2145,-0.235,-0.285
2146,-0.225,-0.255
2147,-0.205,-0.215
2148,-0.225,-0.215
2149,-0.215,-0.165
2150,-0.165,-0.085
2151,-0.155,-0.095
2152,-0.155,-0.055
2153,-0.205,-0.015
2154,-0.125,0.005
2155,-0.175,0.025
2156,-0.165,-0.005
2157,-0.185,0.015
2158,-0.155,0.065
2159,-0.155,0.005
2160,-0.165,-0.015
2161,-0.175,-0.015
2162,-0.155,0.045
2163,-0.165,0.005
2164,-0.175,0.005
2165,-0.145,0.005
2166,-0.145,0.015
2167,-0.155,0.025
2168,-0.165,-0.005
2169,-0.135,-0.005
2170,-0.165,0.025
2171,-0.175,0.005
2172,-0.135,-0.005
2173,-0.145,-0.005
2174,-0.165,0.045
2175,-0.125,0.005
2176,-0.105,0.035
2177,-0.085,0.045
2178,-0.085,0.055
2179,-0.085,0.065
2180,0.035,0.055
2181,0.025,-0.005
2182,-0.045,-0.035
2183,-0.095,-0.065
2184,-0.115,-0.025
2185,-0.115,0.005
2186,-0.135,-0.005
2187,-0.155,-0.015
2188,-0.205,-0.025
2189,-0.215,-0.035
2190,-0.195,-0.015
2191,-0.195,-0.025
2192,-0.195,-0.045
2193,-0.175,-0.015
2194,-0.325,0.175
2195,-0.845,0.065
2196,-0.585,-0.385
2197,1.055,-0.635
2198,2.595,-0.125
2199,2.755,0.605
2200,2.315,0.625
2201,0.725,-0.715
2202,-0.265,-0.645
2203,-0.265,-0.165
2204,-0.315,-0.055
2205,-0.305,-0.075
2206,-0.305,-0.045
2207,-0.375,-0.095
2208,-0.325,-0.085
2209,-0.305,-0.065
2210,-0.315,-0.095
2211,-0.265,-0.105
2212,-0.275,-0.105
2213,-0.265,-0.095
2214,-0.245,-0.105
2215,-0.235,-0.125
2216,-0.175,-0.125
2217,-0.145,-0.135
2218,-0.135,-0.145
2219,-0.125,-0.165
2220,-0.115,-0.195
2221,-0.125,-0.205
2222,-0.135,-0.195
2223,-0.105,-0.245
2224,-0.125,-0.235
2225,-0.145,-0.225
2226,-0.175,-0.225
2227,-0.175,-0.215
2228,-0.155,-0.185
2229,-0.105,-0.165
2230,-0.095,-0.115
2231,-0.065,-0.075
2232,-0.065,-0.055
2233,-0.095,-0.035
2234,-0.095,-0.005
2235,-0.125,-0.005
2236,-0.095,-0.025
2237,-0.125,-0.015
2238,-0.085,0.015
2239,-0.125,0.015
2240,-0.115,-0.015
2241,-0.125,-0.015
2242,-0.105,0.015
2243,-0.105,-0.015
2244,-0.095,-0.015
2245,-0.115,-0.005
2246,-0.085,0.005
2247,-0.115,-0.005
2248,-0.155,-0.015
2249,-0.115,-0.015
2250,-0.105,-0.015
2251,-0.095,0.005
2252,-0.105,-0.015
2253,-0.095,-0.005
2254,-0.105,-0.005
2255,-0.115,-0.005
2256,-0.095,-0.025
2257,-0.065,0.005
2258,-0.045,0.025
2259,-0.065,0.035
2260,0.005,0.035
2261,0.025,-0.015
2262,-0.005,-0.055
2263,-0.045,-0.055
2264,-0.105,-0.045
2265,-0.095,-0.015
2266,-0.145,0.005
2267,-0.155,-0.025
2268,-0.165,-0.055
2269,-0.185,-0.055
2270,-0.195,-0.025
2271,-0.205,-0.035
2272,-0.225,-0.045
2273,-0.205,-0.025
2274,-0.225,0.045
2275,-0.765,0.075
2276,-0.655,-0.085
2277,0.475,-0.475
2278,2.165,-0.175
2279,2.655,0.105
2280,2.465,0.615
2281,1.485,-0.015
2282,-0.055,-0.625
2283,-0.405,-0.335
2284,-0.275,-0.135
2285,-0.315,-0.075
2286,-0.345,-0.085
2287,-0.345,-0.075
2288,-0.375,-0.105
2289,-0.365,-0.095
2290,-0.355,-0.105
2291,-0.355,-0.105
2292,-0.315,-0.135
2293,-0.285,-0.135
2294,-0.245,-0.125
2295,-0.225,-0.135
2296,-0.215,-0.175
2297,-0.255,-0.205
2298,-0.215,-0.175
2299,-0.175,-0.235
2300,-0.185,-0.235
2301,-0.165,-0.285
2302,-0.145,-0.285
2303,-0.175,-0.315
2304,-0.195,-0.315
2305,-0.195,-0.295
2306,-0.215,-0.325
2307,-0.205,-0.325
2308,-0.195,-0.295
2309,-0.175,-0.255
2310,-0.135,-0.235
2311,-0.125,-0.165
2312,-0.095,-0.135
2313,-0.105,-0.095
2314,-0.125,-0.055
2315,-0.155,-0.055
2316,-0.115,-0.065
2317,-0.125,-0.065
2318,-0.135,-0.045
2319,-0.155,-0.045
2320,-0.145,-0.045
2321,-0.145,-0.065
2322,-0.125,-0.045
2323,-0.135,-0.045
2324,-0.125,-0.065
2325,-0.115,-0.055
2326,-0.115,-0.045
2327,-0.145,-0.065
2328,-0.135,-0.055
2329,-0.115,-0.035
2330,-0.115,-0.055
2331,-0.125,-0.065
2332,-0.145,-0.065
2333,-0.135,-0.085
2334,-0.135,-0.045
2335,-0.165,-0.065
2336,-0.135,-0.045
2337,-0.125,-0.015
2338,-0.075,0.025
2339,-0.085,0.005
2340,-0.015,0.015
2341,0.005,-0.065
2342,-0.055,-0.095
2343,-0.075,-0.105
2344,-0.095,-0.085
2345,-0.135,-0.085
2346,-0.155,-0.035
2347,-0.165,-0.075
2348,-0.185,-0.075
2349,-0.225,-0.085
2350,-0.225,-0.075
2351,-0.225,-0.055
2352,-0.225,-0.075
2353,-0.205,-0.075
2354,-0.195,0.035
2355,-0.755,0.165
2356,-0.735,-0.065
2357,0.355,-0.555
2358,2.085,-0.255
2359,2.825,0.035
2360,2.655,0.625
2361,1.615,-0.365
2362,-0.045,-0.875
2363,-0.365,-0.345
2364,-0.295,-0.065
2365,-0.305,-0.045
2366,-0.345,-0.065
2367,-0.365,-0.075
2368,-0.355,-0.085
2369,-0.335,-0.095
2370,-0.315,-0.105
2371,-0.305,-0.095
2372,-0.325,-0.115
2373,-0.265,-0.115
2374,-0.245,-0.115
2375,-0.245,-0.125
2376,-0.215,-0.145
2377,-0.165,-0.125
2378,-0.185,-0.165
2379,-0.185,-0.205
2380,-0.125,-0.225
2381,-0.145,-0.245
2382,-0.155,-0.235
2383,-0.135,-0.275
2384,-0.155,-0.305
2385,-0.185,-0.295
2386,-0.155,-0.265
2387,-0.215,-0.265
2388,-0.235,-0.245
2389,-0.215,-0.235
2390,-0.155,-0.155
2391,-0.145,-0.145
2392,-0.125,-0.075
2393,-0.125,-0.085
2394,-0.115,-0.045
2395,-0.155,-0.025
2396,-0.135,-0.025
2397,-0.125,-0.025
2398,-0.155,-0.005
2399,-0.155,-0.025
2400,-0.125,-0.025
2401,-0.125,0.005
2402,-0.145,-0.005
2403,-0.125,-0.025
2404,-0.155,-0.035
2405,-0.145,-0.025
2406,-0.125,0.005
2407,-0.145,-0.025
2408,-0.135,-0.035
2409,-0.085,-0.025
2410,-0.105,0.005
2411,-0.175,-0.025
2412,-0.125,-0.045
2413,-0.085,-0.025
2414,-0.135,-0.005
2415,-0.155,-0.035
2416,-0.125,-0.035
2417,-0.105,-0.025
2418,-0.065,0.035
2419,-0.055,0.055
2420,-0.095,0.045
2421,-0.025,0.035
2422,0.055,-0.005
2423,-0.035,-0.035
2424,-0.035,-0.095
2425,-0.065,-0.055
2426,-0.085,-0.025
2427,-0.105,-0.005
2428,-0.135,-0.035
2429,-0.185,-0.055
2430,-0.175,-0.025
2431,-0.185,-0.035
2432,-0.215,-0.045
2433,-0.185,-0.055
2434,-0.145,-0.035
2435,-0.135,0.065
2436,-0.675,0.195
2437,-0.745,-0.015
2438,0.215,-0.595
2439,1.955,-0.335
2440,2.835,0.055
2441,2.625,0.695
2442,1.495,-0.505
2443,-0.035,-0.805
2444,-0.275,-0.245
2445,-0.275,0.005
2446,-0.245,-0.035
2447,-0.325,-0.045
2448,-0.315,-0.045
2449,-0.325,-0.035
2450,-0.315,-0.065
2451,-0.295,-0.055
2452,-0.245,-0.055
2453,-0.275,-0.085
2454,-0.265,-0.075
2455,-0.215,-0.075
2456,-0.205,-0.105
2457,-0.185,-0.105
2458,-0.165,-0.105
2459,-0.135,-0.135
2460,-0.125,-0.155
2461,-0.125,-0.175
2462,-0.065,-0.215
2463,-0.085,-0.225
2464,-0.115,-0.255
2465,-0.085,-0.245
2466,-0.145,-0.265
2467,-0.155,-0.285
2468,-0.165,-0.265
2469,-0.185,-0.225
2470,-0.155,-0.185
2471,-0.145,-0.175
2472,-0.135,-0.125
2473,-0.125,-0.055
2474,-0.105,-0.035
2475,-0.105,-0.015
2476,-0.125,-0.005
2477,-0.135,0.005
2478,-0.095,0.005
2479,-0.135,-0.005
2480,-0.155,0.015
2481,-0.135,-0.005
2482,-0.105,0.035
2483,-0.135,0.015
2484,-0.095,-0.005
2485,-0.125,0.005
2486,-0.105,0.015
2487,-0.115,0.025
2488,-0.115,0.025
2489,-0.095,-0.015
2490,-0.105,-0.005
2491,-0.135,0.035
2492,-0.085,-0.005
2493,-0.105,-0.025
2494,-0.115,0.005
2495,-0.115,0.005
2496,-0.115,0.015
2497,-0.105,0.005
2498,-0.125,-0.005
2499,-0.125,0.005
2500,-0.105,-0.005
2501,-0.065,0.035
2502,-0.025,0.055
2503,-0.075,0.045
2504,-0.045,0.065
2505,0.045,0.015
2506,0.025,-0.015
2507,-0.025,-0.075
2508,-0.075,-0.055
2509,-0.085,-0.035
2510,-0.085,0.015
2511,-0.105,0.015
2512,-0.165,-0.025
2513,-0.165,-0.045
2514,-0.165,-0.035
2515,-0.185,-0.005
2516,-0.185,-0.055
2517,-0.145,-0.035
2518,-0.125,0.045
2519,-0.535,0.205
2520,-0.705,-0.065
2521,-0.015,-0.665
2522,1.785,-0.345
2523,2.745,0.085
2524,2.605,0.815
2525,1.695,-0.155
2526,0.165,-0.835
2527,-0.305,-0.365
2528,-0.255,-0.045
2529,-0.265,-0.045
2530,-0.315,-0.055
2531,-0.345,-0.075
2532,-0.315,-0.075
2533,-0.325,-0.035
2534,-0.285,-0.065
2535,-0.305,-0.085
2536,-0.285,-0.095
2537,-0.255,-0.085
2538,-0.245,-0.115
2539,-0.225,-0.125
2540,-0.185,-0.135
2541,-0.175,-0.155
2542,-0.175,-0.175
2543,-0.135,-0.185
2544,-0.135,-0.205
2545,-0.125,-0.205
2546,-0.095,-0.265
2547,-0.105,-0.295
2548,-0.105,-0.295
2549,-0.125,-0.295
2550,-0.145,-0.285
2551,-0.195,-0.335
2552,-0.155,-0.295
2553,-0.175,-0.265
2554,-0.135,-0.185
2555,-0.135,-0.145
2556,-0.135,-0.105
2557,-0.105,-0.075
2558,-0.125,-0.035
2559,-0.115,0.005
2560,-0.135,-0.005
2561,-0.155,-0.005
2562,-0.135,0.015
2563,-0.135,-0.005
2564,-0.175,0.005
2565,-0.155,0.005
2566,-0.145,0.015
2567,-0.135,0.015
2568,-0.155,-0.025
2569,-0.135,0.045
2570,-0.105,0.005
2571,-0.125,0.025
2572,-0.115,0.015
2573,-0.125,-0.005
2574,-0.125,0.015
2575,-0.115,0.015
2576,-0.105,-0.005
2577,-0.115,0.005
2578,-0.115,0.025
2579,-0.135,-0.005
2580,-0.135,-0.005
2581,-0.115,-0.005
2582,-0.125,0.005
2583,-0.125,-0.005
2584,-0.135,0.025
2585,-0.075,0.045
2586,-0.065,0.055
2587,-0.045,0.045
2588,-0.005,0.055
2589,0.045,-0.005
2590,0.005,-0.035
2591,-0.055,-0.035
2592,-0.085,-0.055
2593,-0.085,-0.025
2594,-0.075,0.035
2595,-0.115,-0.005
2596,-0.155,-0.025
2597,-0.155,-0.035
2598,-0.145,-0.015
2599,-0.145,-0.015
2600,-0.165,-0.035
2601,-0.165,0.005
2602,-0.115,0.045
2603,-0.525,0.185
2604,-0.675,-0.105
2605,-0.035,-0.685
2606,1.635,-0.355
2607,2.615,0.145
2608,2.515,0.905
2609,1.975,0.235
2610,0.455,-0.825
2611,-0.265,-0.445
2612,-0.225,-0.085
2613,-0.245,-0.065
2614,-0.285,-0.045
2615,-0.305,-0.055
2616,-0.295,-0.085
2617,-0.335,-0.095
2618,-0.255,-0.075
2619,-0.235,-0.085
2620,-0.225,-0.105
2621,-0.235,-0.105
2622,-0.215,-0.095
2623,-0.215,-0.165
2624,-0.175,-0.175
2625,-0.145,-0.185
2626,-0.155,-0.175
2627,-0.095,-0.205
2628,-0.085,-0.255
2629,-0.125,-0.275
2630,-0.105,-0.325
2631,-0.085,-0.335
2632,-0.075,-0.355
2633,-0.105,-0.345
2634,-0.105,-0.335
2635,-0.135,-0.325
2636,-0.155,-0.295
2637,-0.135,-0.265
2638,-0.095,-0.225
2639,-0.065,-0.175
2640,-0.065,-0.115
2641,-0.055,-0.055
2642,-0.055,-0.035
2643,-0.135,-0.005
2644,-0.135,0.015
2645,-0.125,-0.005
2646,-0.105,0.015
2647,-0.125,0.025
2648,-0.115,0.005
2649,-0.085,0.025
2650,-0.085,0.035
2651,-0.115,0.035
2652,-0.135,0.015
2653,-0.115,0.005
2654,-0.075,0.045
2655,-0.125,0.035
2656,-0.115,0.005
2657,-0.065,0.025
2658,-0.085,0.045
2659,-0.125,0.005
2660,-0.105,0.005
2661,-0.115,0.015
2662,-0.075,0.025
2663,-0.095,0.025
2664,-0.135,0.025
2665,-0.115,0.025
2666,-0.105,0.015
2667,-0.115,0.005
2668,-0.125,0.015
2669,-0.135,0.005
2670,-0.045,0.075
2671,-0.065,0.055
2672,-0.055,0.045
2673,-0.015,0.065
2674,0.075,0.015
2675,0.025,0.005
2676,-0.045,-0.035
2677,-0.085,-0.025
2678,-0.065,-0.025
2679,-0.085,0.025
2680,-0.065,-0.005
2681,-0.105,-0.025
2682,-0.155,-0.005
2683,-0.165,-0.025
2684,-0.165,-0.035
2685,-0.185,-0.025
2686,-0.135,-0.015
2687,-0.095,0.065
2688,-0.625,0.115
2689,-0.715,-0.075
2690,0.305,-0.555
2691,1.975,-0.215
2692,2.735,0.135
2693,2.575,0.825
2694,1.745,0.105
2695,0.065,-0.775
2696,-0.385,-0.395
2697,-0.285,-0.085
2698,-0.235,-0.055
2699,-0.325,-0.055
2700,-0.325,-0.095
2701,-0.305,-0.085
2702,-0.335,-0.085
2703,-0.295,-0.095
2704,-0.295,-0.085
2705,-0.255,-0.125
2706,-0.245,-0.095
2707,-0.225,-0.135
2708,-0.235,-0.155
2709,-0.205,-0.145
2710,-0.155,-0.155
2711,-0.145,-0.195
2712,-0.125,-0.235
2713,-0.135,-0.215
2714,-0.105,-0.235
2715,-0.115,-0.265
2716,-0.145,-0.325
2717,-0.125,-0.315
2718,-0.205,-0.295
2719,-0.155,-0.285
2720,-0.155,-0.275
2721,-0.145,-0.255
2722,-0.135,-0.205
2723,-0.125,-0.155
2724,-0.095,-0.125
2725,-0.085,-0.055
2726,-0.075,-0.035
2727,-0.105,-0.035
2728,-0.125,-0.015
2729,-0.115,-0.015
2730,-0.155,0.005
2731,-0.135,0.025
2732,-0.155,-0.015
2733,-0.105,-0.005
2734,-0.125,0.005
2735,-0.135,0.025
2736,-0.125,0.005
2737,-0.115,-0.005
2738,-0.125,0.005
2739,-0.105,-0.005
2740,-0.135,-0.005
2741,-0.115,-0.005
2742,-0.145,0.035
2743,-0.125,-0.025
2744,-0.125,-0.025
2745,-0.115,-0.025
2746,-0.095,0.025
2747,-0.125,0.005
2748,-0.115,0.005
2749,-0.135,-0.025
2750,-0.145,0.025
2751,-0.155,-0.025
2752,-0.155,-0.035
2753,-0.075,0.035
2754,-0.075,0.055
2755,-0.065,0.105
2756,-0.015,0.075
2757,0.045,-0.035
2758,-0.015,-0.055
2759,-0.085,-0.055
2760,-0.065,-0.035
2761,-0.065,0.005
2762,-0.115,-0.005
2763,-0.135,-0.045
2764,-0.175,-0.045
2765,-0.205,-0.035
2766,-0.225,-0.025
2767,-0.205,-0.025
2768,-0.165,-0.045
2769,-0.115,-0.045
2770,-0.145,0.095
2771,-0.725,0.165
2772,-0.665,-0.105
2773,0.425,-0.555
2774,2.075,-0.225
2775,2.805,0.105
2776,2.655,0.695
2777,1.885,-0.225
2778,0.215,-0.835
2779,-0.375,-0.395
2780,-0.255,-0.075
2781,-0.255,-0.035
2782,-0.285,-0.055
2783,-0.335,-0.045
2784,-0.355,-0.075
2785,-0.325,-0.065
2786,-0.295,-0.075
2787,-0.325,-0.075
2788,-0.295,-0.085
2789,-0.265,-0.105
2790,-0.215,-0.095
2791,-0.225,-0.095
2792,-0.225,-0.115
2793,-0.185,-0.145
2794,-0.185,-0.135
2795,-0.135,-0.175
2796,-0.115,-0.165
2797,-0.115,-0.225
2798,-0.115,-0.205
2799,-0.125,-0.275
2800,-0.145,-0.285
2801,-0.125,-0.305
2802,-0.085,-0.275
2803,-0.185,-0.265
2804,-0.185,-0.295
2805,-0.175,-0.235
2806,-0.155,-0.165
2807,-0.155,-0.125
2808,-0.095,-0.105
2809,-0.115,-0.075
2810,-0.135,-0.045
2811,-0.125,-0.025
2812,-0.125,-0.015
2813,-0.145,-0.005
2814,-0.135,0.005
2815,-0.155,-0.025
2816,-0.115,-0.005
2817,-0.155,0.025
2818,-0.135,0.005
2819,-0.125,-0.025
2820,-0.145,0.005
2821,-0.125,0.005
2822,-0.125,-0.015
2823,-0.125,0.015
2824,-0.135,0.005
2825,-0.135,-0.015
2826,-0.125,0.005
2827,-0.095,0.005
2828,-0.165,-0.015
2829,-0.125,-0.025
2830,-0.105,-0.015
2831,-0.115,0.015
2832,-0.135,-0.015
2833,-0.145,-0.015
2834,-0.155,-0.005
2835,-0.165,-0.005
2836,-0.105,0.035
2837,-0.075,0.035
2838,-0.065,0.055
2839,-0.035,0.075
2840,0.045,0.015
2841,-0.035,-0.055
2842,-0.065,-0.055
2843,-0.075,-0.035
2844,-0.115,-0.025
2845,-0.135,0.005
2846,-0.105,-0.015
2847,-0.175,-0.035
2848,-0.245,-0.035
2849,-0.225,-0.035
2850,-0.185,-0.005
2851,-0.185,-0.035
2852,-0.185,-0.055
2853,-0.145,0.045
2854,-0.645,0.195
2855,-0.775,-0.085
2856,0.215,-0.645
2857,1.945,-0.325
2858,2.815,0.165
2859,2.605,0.685
2860,1.545,-0.485
2861,-0.015,-0.805
2862,-0.285,-0.275
2863,-0.275,-0.015
2864,-0.325,-0.055
2865,-0.335,-0.055
2866,-0.385,-0.075
2867,-0.375,-0.065
2868,-0.355,-0.075
2869,-0.335,-0.095
2870,-0.335,-0.095
2871,-0.325,-0.115
2872,-0.275,-0.085
2873,-0.275,-0.115
2874,-0.245,-0.135
2875,-0.215,-0.115
2876,-0.235,-0.125
2877,-0.215,-0.195
2878,-0.155,-0.195
2879,-0.155,-0.225
2880,-0.135,-0.235
2881,-0.145,-0.255
2882,-0.125,-0.275
2883,-0.135,-0.305
2884,-0.125,-0.325
2885,-0.195,-0.305
2886,-0.165,-0.275
2887,-0.195,-0.285
2888,-0.175,-0.255
2889,-0.195,-0.175
2890,-0.185,-0.155
2891,-0.125,-0.085
2892,-0.145,-0.085
2893,-0.155,-0.055
2894,-0.165,-0.015
2895,-0.145,0.005
2896,-0.195,-0.025
2897,-0.175,-0.015
2898,-0.185,-0.015
2899,-0.165,-0.015
2900,-0.185,-0.015
2901,-0.165,0.005
2902,-0.175,-0.025
2903,-0.175,-0.025
2904,-0.155,0.005
2905,-0.135,-0.015
2906,-0.155,-0.025
2907,-0.155,0.005
2908,-0.155,-0.015
2909,-0.155,-0.005
2910,-0.115,0.005
2911,-0.145,-0.025
2912,-0.145,-0.025
2913,-0.155,-0.045
2914,-0.155,0.005
2915,-0.155,0.005
2916,-0.145,-0.045
2917,-0.145,-0.035
2918,-0.145,-0.015
2919,-0.135,-0.005
2920,-0.105,0.015
2921,-0.095,0.005
2922,-0.085,0.045
2923,-0.065,0.055
2924,-0.025,-0.015
2925,-0.015,-0.065
2926,-0.055,-0.075
2927,-0.085,-0.075
2928,-0.095,-0.065
2929,-0.115,0.005
2930,-0.115,-0.035
2931,-0.145,-0.055
2932,-0.175,-0.035
2933,-0.155,-0.045
2934,-0.155,-0.035
2935,-0.165,-0.055
2936,-0.145,-0.055
2937,-0.145,-0.035
2938,-0.215,0.155
2939,-0.295,0.025
2940,0.065,-0.485
2941,0.965,-0.625
2942,1.805,-0.125
2943,2.005,0.655
2944,1.645,0.525
2945,0.805,-0.745
2946,0.095,-0.645
2947,-0.125,-0.165
2948,-0.205,-0.055
2949,-0.255,-0.125
2950,-0.275,-0.085
2951,-0.315,-0.075
2952,-0.315,-0.105
2953,-0.305,-0.085
2954,-0.285,-0.125
2955,-0.285,-0.125
2956,-0.285,-0.145
2957,-0.245,-0.125
2958,-0.245,-0.115
2959,-0.225,-0.155
2960,-0.205,-0.175
2961,-0.195,-0.205
2962,-0.165,-0.205
2963,-0.145,-0.205
2964,-0.105,-0.235
2965,-0.115,-0.315
2966,-0.115,-0.315
2967,-0.105,-0.345
2968,-0.135,-0.325
2969,-0.135,-0.345
2970,-0.155,-0.345
2971,-0.185,-0.345
2972,-0.175,-0.315
2973,-0.165,-0.245
2974,-0.125,-0.165
2975,-0.135,-0.155
2976,-0.135,-0.115
2977,-0.105,-0.065
2978,-0.135,-0.035
2979,-0.195,-0.035
2980,-0.175,-0.045
2981,-0.205,-0.025
2982,-0.155,-0.015
2983,-0.135,-0.005
2984,-0.155,-0.025
2985,-0.175,-0.025
2986,-0.165,-0.005
2987,-0.155,-0.025
2988,-0.145,-0.025
2989,-0.165,-0.025
2990,-0.135,-0.005
2991,-0.125,-0.015
2992,-0.135,-0.015
2993,-0.145,-0.015
2994,-0.135,-0.015
2995,-0.135,-0.015
2996,-0.155,-0.025
2997,-0.135,-0.015
2998,-0.145,-0.015
2999,-0.125,-0.005
3000,-0.155,-0.025
3001,-0.175,-0.045
3002,-0.145,-0.035
3003,-0.155,-0.025
3004,-0.165,-0.015
3005,-0.165,-0.035
3006,-0.165,-0.025
3007,-0.115,-0.005
3008,-0.105,0.015
3009,-0.085,0.015
3010,-0.065,0.055
3011,0.005,0.025
3012,0.035,-0.065
3013,-0.025,-0.075
3014,-0.065,-0.065
3015,-0.105,-0.015
3016,-0.085,-0.045
3017,-0.105,-0.015
3018,-0.125,-0.035
3019,-0.165,-0.035
3020,-0.165,-0.065
3021,-0.185,-0.045
3022,-0.185,-0.045
3023,-0.175,-0.055
3024,-0.145,-0.045
3025,-0.175,0.045
3026,-0.495,0.155
3027,-0.555,-0.155
3028,0.165,-0.755
3029,1.555,-0.315
3030,2.265,0.205
3031,2.205,0.925
3032,1.595,0.195
3033,0.355,-0.805
3034,-0.175,-0.465
3035,-0.215,-0.115
3036,-0.225,-0.045
3037,-0.285,-0.095
3038,-0.295,-0.115
3039,-0.315,-0.095
3040,-0.305,-0.105
3041,-0.305,-0.105
3042,-0.285,-0.085
3043,-0.265,-0.085
3044,-0.275,-0.155
3045,-0.245,-0.175
3046,-0.215,-0.155
3047,-0.205,-0.175
3048,-0.195,-0.205
3049,-0.165,-0.205
3050,-0.155,-0.245
3051,-0.165,-0.285
3052,-0.135,-0.305
3053,-0.115,-0.325
3054,-0.105,-0.345
3055,-0.135,-0.385
3056,-0.135,-0.405
3057,-0.125,-0.385
3058,-0.175,-0.355
3059,-0.135,-0.335
3060,-0.145,-0.295
3061,-0.125,-0.265
3062,-0.125,-0.195
3063,-0.095,-0.145
3064,-0.075,-0.105
3065,-0.135,-0.055
3066,-0.185,-0.045
3067,-0.115,-0.035
3068,-0.145,-0.055
3069,-0.155,-0.055
3070,-0.145,-0.015
3071,-0.145,-0.005
3072,-0.165,-0.035
3073,-0.175,-0.045
3074,-0.175,-0.025
3075,-0.165,-0.035
3076,-0.165,-0.045
3077,-0.175,-0.035
3078,-0.125,-0.005
3079,-0.155,-0.035
3080,-0.155,-0.035
3081,-0.185,-0.035
3082,-0.165,-0.035
3083,-0.185,-0.005
3084,-0.175,-0.035
3085,-0.175,-0.035
3086,-0.175,-0.055
3087,-0.195,-0.045
3088,-0.185,-0.055
3089,-0.125,-0.045
3090,-0.155,0.005
3091,-0.165,-0.045
3092,-0.115,-0.025
3093,-0.095,0.015
3094,-0.115,0.035
3095,-0.065,0.045
3096,0.025,-0.045
3097,-0.075,-0.085
3098,-0.125,-0.105
3099,-0.175,-0.075
3100,-0.085,-0.055
3101,-0.105,-0.055
3102,-0.155,-0.055
3103,-0.155,-0.045
3104,-0.245,-0.085
3105,-0.235,-0.075
3106,-0.185,-0.045
3107,-0.225,-0.045
3108,-0.165,-0.075
3109,-0.205,0.005
3110,-0.665,0.155
3111,-0.705,-0.105
3112,0.445,-0.535
3113,2.135,-0.295
3114,2.795,0.025
3115,2.565,0.735
3116,1.515,-0.055
3117,-0.125,-0.865
3118,-0.415,-0.425
3119,-0.315,-0.115
3120,-0.335,-0.075
3121,-0.345,-0.075
3122,-0.365,-0.085
3123,-0.315,-0.095
3124,-0.295,-0.095
3125,-0.295,-0.095
3126,-0.265,-0.115
3127,-0.255,-0.115
3128,-0.265,-0.135
3129,-0.255,-0.135
3130,-0.225,-0.125
3131,-0.175,-0.145
3132,-0.175,-0.175
3133,-0.175,-0.165
3134,-0.145,-0.205
3135,-0.155,-0.245
3136,-0.115,-0.265
3137,-0.095,-0.265
3138,-0.105,-0.285
3139,-0.115,-0.305
3140,-0.115,-0.295
3141,-0.155,-0.305
3142,-0.145,-0.275
3143,-0.165,-0.255
3144,-0.195,-0.215
3145,-0.105,-0.165
3146,-0.075,-0.085
3147,-0.075,-0.105
3148,-0.125,-0.065
3149,-0.125,-0.035
3150,-0.135,-0.015
3151,-0.145,-0.015
3152,-0.175,-0.025
3153,-0.175,0.015
3154,-0.185,-0.025
3155,-0.185,-0.025
3156,-0.145,-0.025
3157,-0.135,-0.015
3158,-0.175,0.015
3159,-0.155,-0.005
3160,-0.145,-0.035
3161,-0.175,-0.015
3162,-0.135,-0.015
3163,-0.125,-0.015
3164,-0.165,-0.025
3165,-0.165,-0.035
3166,-0.125,-0.015
3167,-0.135,-0.005
3168,-0.135,-0.005
3169,-0.165,-0.025
3170,-0.145,-0.025
3171,-0.145,-0.015
3172,-0.145,-0.015
3173,-0.145,-0.005
3174,-0.125,0.035
3175,-0.095,0.045
3176,-0.075,0.045
3177,-0.045,0.065
3178,-0.015,0.045
3179,0.055,-0.015
3180,-0.025,-0.035
3181,-0.095,-0.045
3182,-0.115,-0.045
3183,-0.115,-0.015
3184,-0.145,-0.015
3185,-0.125,-0.025
3186,-0.155,-0.035
3187,-0.215,-0.045
3188,-0.245,-0.015
3189,-0.175,-0.025
3190,-0.145,-0.035
3191,-0.145,-0.005
3192,-0.205,0.085
3193,-0.765,0.175
3194,-0.555,-0.025
3195,0.705,-0.425
3196,2.265,-0.315
3197,2.845,-0.015
3198,2.625,0.475
3199,1.335,-0.565
3200,-0.145,-0.825
3201,-0.335,-0.255
3202,-0.235,-0.015
3203,-0.275,-0.005
3204,-0.335,-0.025
3205,-0.345,-0.025
3206,-0.335,-0.025
3207,-0.315,-0.025
3208,-0.315,-0.065
3209,-0.305,-0.075
3210,-0.265,-0.065
3211,-0.265,-0.075
3212,-0.255,-0.095
3213,-0.225,-0.085
3214,-0.195,-0.065
3215,-0.185,-0.095
3216,-0.155,-0.115
3217,-0.125,-0.145
3218,-0.095,-0.145
3219,-0.085,-0.155
3220,-0.055,-0.215
3221,-0.105,-0.215
3222,-0.105,-0.225
3223,-0.115,-0.245
3224,-0.105,-0.255
3225,-0.145,-0.215
3226,-0.145,-0.215
3227,-0.145,-0.195
3228,-0.115,-0.145
3229,-0.125,-0.115
3230,-0.095,-0.055
3231,-0.105,-0.055
3232,-0.145,-0.045
3233,-0.115,-0.015
3234,-0.105,0.025
3235,-0.135,0.025
3236,-0.145,0.005
3237,-0.145,0.005
3238,-0.165,0.025
3239,-0.105,0.015
3240,-0.145,-0.015
3241,-0.115,0.015
3242,-0.105,0.025
3243,-0.125,0.025
3244,-0.155,-0.015
3245,-0.105,0.015
3246,-0.085,0.025
3247,-0.115,-0.005
3248,-0.135,-0.005
3249,-0.115,-0.005
3250,-0.095,0.025
3251,-0.095,-0.015
3252,-0.125,-0.025
3253,-0.155,0.005
3254,-0.105,0.015
3255,-0.115,0.005
3256,-0.095,0.015
3257,-0.045,0.035
3258,-0.005,0.075
3259,-0.095,0.065
3260,0.015,0.045
3261,0.045,-0.025
3262,-0.005,-0.015
3263,-0.065,-0.035
3264,-0.115,-0.055
3265,-0.065,-0.015
3266,-0.085,0.015
3267,-0.155,-0.025
3268,-0.175,-0.025
3269,-0.195,-0.025
3270,-0.175,-0.015
3271,-0.185,-0.035
3272,-0.185,-0.005
3273,-0.135,-0.025
3274,-0.235,0.135
3275,-0.715,0.155
3276,-0.565,-0.215
3277,0.735,-0.715
3278,2.375,-0.265
3279,2.835,0.385
3280,2.505,0.725
3281,1.145,-0.565
3282,-0.165,-0.725
3283,-0.265,-0.175
3284,-0.225,-0.025
3285,-0.285,-0.035
3286,-0.335,-0.045
3287,-0.335,-0.055
3288,-0.365,-0.065
3289,-0.315,-0.075
3290,-0.305,-0.065
3291,-0.315,-0.075
3292,-0.265,-0.105
3293,-0.255,-0.085
3294,-0.225,-0.105
3295,-0.225,-0.115
3296,-0.175,-0.155
3297,-0.175,-0.175
3298,-0.145,-0.145
3299,-0.135,-0.195
3300,-0.105,-0.225
3301,-0.115,-0.235
3302,-0.105,-0.265
3303,-0.085,-0.285
3304,-0.085,-0.305
3305,-0.115,-0.335
3306,-0.105,-0.325
3307,-0.165,-0.305
3308,-0.175,-0.275
3309,-0.185,-0.245
3310,-0.155,-0.175
3311,-0.115,-0.135
3312,-0.125,-0.095
3313,-0.125,-0.065
3314,-0.135,-0.035
3315,-0.135,-0.005
3316,-0.165,0.005
3317,-0.185,-0.005
3318,-0.155,-0.005
3319,-0.165,-0.005
3320,-0.175,-0.005
3321,-0.155,-0.005
3322,-0.155,0.005
3323,-0.155,-0.005
3324,-0.165,-0.005
3325,-0.185,-0.015
3326,-0.155,-0.005
3327,-0.145,-0.005
3328,-0.155,0.005
3329,-0.145,-0.005
3330,-0.145,0.005
3331,-0.175,-0.025
3332,-0.185,-0.025
3333,-0.165,0.005
3334,-0.145,-0.005
3335,-0.175,-0.015
3336,-0.175,-0.015
3337,-0.165,-0.015
3338,-0.155,-0.005
3339,-0.105,0.015
3340,-0.085,0.035
3341,-0.125,0.045
3342,-0.035,0.035
3343,-0.005,-0.025
3344,-0.055,-0.065
3345,-0.085,-0.055
3346,-0.125,-0.035
3347,-0.165,-0.025
3348,-0.145,0.025
3349,-0.165,-0.015
3350,-0.215,-0.035
3351,-0.205,-0.025
3352,-0.225,-0.025
3353,-0.195,-0.055
3354,-0.195,-0.025
3355,-0.215,-0.035
3356,-0.195,0.055
3357,-0.705,0.175
3358,-0.715,-0.105
3359,0.165,-0.735
3360,1.875,-0.355
3361,2.715,0.155
3362,2.545,0.895
3363,1.585,-0.015
3364,0.055,-0.825
3365,-0.355,-0.405
3366,-0.305,-0.065
3367,-0.315,-0.065
3368,-0.345,-0.075
3369,-0.405,-0.085
3370,-0.385,-0.095
3371,-0.345,-0.085
3372,-0.345,-0.105
3373,-0.325,-0.135
3374,-0.275,-0.105
3375,-0.275,-0.115
3376,-0.265,-0.165
3377,-0.265,-0.155
3378,-0.205,-0.165
3379,-0.205,-0.195
3380,-0.185,-0.225
3381,-0.185,-0.245
3382,-0.145,-0.285
3383,-0.145,-0.295
3384,-0.135,-0.345
3385,-0.135,-0.375
3386,-0.135,-0.375
3387,-0.115,-0.385
3388,-0.145,-0.405
3389,-0.165,-0.365
3390,-0.145,-0.345
3391,-0.175,-0.315
3392,-0.135,-0.275
3393,-0.135,-0.205
3394,-0.135,-0.135
3395,-0.095,-0.105
3396,-0.085,-0.075
3397,-0.115,-0.035
3398,-0.135,-0.025
3399,-0.175,-0.025
3400,-0.185,-0.025
3401,-0.175,-0.025
3402,-0.185,-0.015
3403,-0.175,-0.005
3404,-0.155,-0.035
3405,-0.175,-0.015
3406,-0.165,0.005
3407,-0.205,-0.005
3408,-0.175,-0.005
3409,-0.135,-0.015
3410,-0.135,-0.005
3411,-0.165,-0.035
3412,-0.195,-0.015
3413,-0.185,-0.025
3414,-0.165,0.005
3415,-0.195,-0.025
3416,-0.145,-0.005
3417,-0.145,-0.035
3418,-0.165,-0.025
3419,-0.135,-0.025
3420,-0.125,-0.005
3421,-0.095,0.025
3422,-0.095,0.025
3423,-0.055,0.025
3424,0.015,-0.005
3425,-0.025,-0.055
3426,-0.105,-0.065
3427,-0.135,-0.045
3428,-0.125,-0.035
3429,-0.155,-0.025
3430,-0.185,-0.025
3431,-0.205,-0.045
3432,-0.245,-0.025
3433,-0.205,-0.025
3434,-0.205,-0.055
3435,-0.215,-0.055
3436,-0.195,-0.035
3437,-0.175,0.015
3438,-0.645,0.165
3439,-0.775,-0.055
3440,0.195,-0.515
3441,1.945,-0.275
3442,2.705,0.175
3443,2.505,0.805
3444,1.505,-0.045
3445,-0.005,-0.785
3446,-0.375,-0.415
3447,-0.295,-0.115
3448,-0.315,-0.085
3449,-0.325,-0.085
3450,-0.335,-0.065
3451,-0.375,-0.095
3452,-0.375,-0.095
3453,-0.345,-0.105
3454,-0.325,-0.105
3455,-0.295,-0.135
3456,-0.305,-0.155
3457,-0.365,-0.145
3458,-0.255,-0.145
3459,-0.235,-0.145
3460,-0.225,-0.205
3461,-0.215,-0.205
3462,-0.175,-0.225
3463,-0.165,-0.255
3464,-0.195,-0.305
3465,-0.185,-0.305
3466,-0.175,-0.325
3467,-0.185,-0.335
3468,-0.205,-0.325
3469,-0.195,-0.325
3470,-0.215,-0.305
3471,-0.215,-0.275
3472,-0.215,-0.245
3473,-0.165,-0.185
3474,-0.155,-0.155
3475,-0.145,-0.105
3476,-0.165,-0.055
3477,-0.145,-0.045
3478,-0.175,-0.035
3479,-0.205,-0.025
3480,-0.215,-0.025
3481,-0.165,-0.015
3482,-0.225,-0.015
3483,-0.205,-0.025
3484,-0.195,-0.025
3485,-0.175,-0.015
3486,-0.185,-0.015
3487,-0.215,-0.025
3488,-0.185,-0.035
3489,-0.175,-0.025
3490,-0.195,-0.035
3491,-0.205,-0.045
3492,-0.185,-0.035
3493,-0.175,-0.025
3494,-0.205,-0.025
3495,-0.205,-0.035
3496,-0.185,-0.035
3497,-0.155,-0.025
3498,-0.185,-0.045
3499,-0.215,-0.035
3500,-0.155,-0.015
3501,-0.115,0.025
3502,-0.125,0.045
3503,-0.145,0.035
3504,-0.005,-0.005
3505,-0.025,-0.055
3506,-0.115,-0.055
3507,-0.135,-0.055
3508,-0.115,-0.045
3509,-0.135,-0.025
3510,-0.165,0.005
3511,-0.205,-0.045
3512,-0.245,-0.055
3513,-0.235,-0.045
3514,-0.245,-0.035
3515,-0.235,-0.025
3516,-0.235,-0.045
3517,-0.215,-0.035
3518,-0.265,0.095
3519,-0.765,0.185
3520,-0.755,-0.055
3521,0.225,-0.465
3522,2.015,-0.215
3523,2.825,-0.005
3524,2.685,0.585
3525,1.685,-0.245
3526,0.045,-0.805
3527,-0.325,-0.295
3528,-0.275,-0.065
3529,-0.275,-0.035
3530,-0.325,-0.045
3531,-0.355,-0.035
3532,-0.355,-0.055
3533,-0.375,-0.055
3534,-0.325,-0.065
3535,-0.315,-0.065
3536,-0.315,-0.075
3537,-0.275,-0.085
3538,-0.255,-0.075
3539,-0.255,-0.065
3540,-0.215,-0.105
3541,-0.185,-0.145
3542,-0.195,-0.145
3543,-0.145,-0.165
3544,-0.145,-0.175
3545,-0.135,-0.215
3546,-0.095,-0.215
3547,-0.155,-0.225
3548,-0.155,-0.265
3549,-0.145,-0.275
3550,-0.195,-0.255
3551,-0.185,-0.245
3552,-0.185,-0.235
3553,-0.185,-0.195
3554,-0.155,-0.135
3555,-0.125,-0.105
3556,-0.155,-0.065
3557,-0.125,-0.045
3558,-0.135,-0.005
3559,-0.145,0.005
3560,-0.165,-0.015
3561,-0.165,0.005
3562,-0.155,0.035
3563,-0.175,0.015
3564,-0.125,0.005
3565,-0.155,0.025
3566,-0.165,0.025
3567,-0.155,-0.005
3568,-0.145,-0.005
3569,-0.145,0.005
3570,-0.155,0.015
3571,-0.175,0.005
3572,-0.145,-0.015
3573,-0.135,0.005
3574,-0.125,0.035
3575,-0.135,-0.015
3576,-0.145,-0.015
3577,-0.125,-0.015
3578,-0.165,-0.005
3579,-0.145,-0.005
3580,-0.085,0.035
3581,-0.115,0.045
3582,-0.105,0.075
3583,-0.065,0.055
3584,0.065,-0.005
3585,-0.015,-0.045
3586,-0.095,-0.055
3587,-0.155,-0.035
3588,-0.115,-0.035
3589,-0.125,0.025
3590,-0.185,-0.005
3591,-0.195,-0.005
3592,-0.235,-0.015
3593,-0.225,-0.035
3594,-0.225,-0.005
3595,-0.225,-0.015
3596,-0.205,-0.015
3597,-0.195,0.085
3598,-0.685,0.245
3599,-0.825,0.005
3600,0.015,-0.585
3601,1.785,-0.315
3602,2.765,0.045
3603,2.745,0.755
3604,2.005,-0.215
3605,0.375,-0.885
3606,-0.285,-0.345
3607,-0.285,-0.005
3608,-0.325,-0.005
3609,-0.365,-0.025
3610,-0.355,-0.015
3611,-0.365,-0.045
3612,-0.345,-0.035
3613,-0.335,-0.055
3614,-0.305,-0.045
3615,-0.305,-0.045
3616,-0.325,-0.085
3617,-0.295,-0.095
3618,-0.245,-0.085
3619,-0.225,-0.085
3620,-0.205,-0.115
3621,-0.165,-0.125
3622,-0.145,-0.135
3623,-0.155,-0.155
3624,-0.135,-0.195
3625,-0.105,-0.215
3626,-0.115,-0.225
3627,-0.125,-0.245
3628,-0.145,-0.275
3629,-0.155,-0.255
3630,-0.165,-0.265
3631,-0.175,-0.245
3632,-0.195,-0.215
3633,-0.145,-0.165
3634,-0.165,-0.075
3635,-0.135,-0.085
3636,-0.145,-0.055
3637,-0.155,-0.025
3638,-0.145,0.015
3639,-0.165,0.025
3640,-0.165,0.005
3641,-0.155,0.055
3642,-0.155,0.025
3643,-0.185,0.015
3644,-0.185,0.005
3645,-0.165,0.025
3646,-0.145,0.045
3647,-0.135,0.025
3648,-0.145,0.005
3649,-0.135,0.025
3650,-0.125,0.045
3651,-0.155,0.015
3652,-0.195,0.005
3653,-0.115,-0.005
3654,-0.135,0.015
3655,-0.155,0.035
3656,-0.135,0.005
3657,-0.165,-0.005
3658,-0.155,0.005
3659,-0.165,0.015
3660,-0.095,0.025
3661,-0.065,0.065
3662,-0.085,0.075
3663,-0.075,0.085
3664,0.015,-0.005
3665,0.055,-0.025
3666,-0.075,-0.035
3667,-0.125,-0.025
3668,-0.115,-0.005
3669,-0.115,0.015
3670,-0.145,0.045
3671,-0.175,0.005
3672,-0.215,-0.005
3673,-0.235,0.005
3674,-0.225,0.035
3675,-0.225,-0.025
3676,-0.195,0.005
3677,-0.165,0.025
3678,-0.235,0.185
3679,-0.805,0.105
3680,-0.715,-0.275
3681,0.545,-0.705
3682,2.325,-0.185
3683,2.875,0.535
3684,2.535,0.845
3685,1.335,-0.515
3686,-0.055,-0.745
3687,-0.325,-0.225
3688,-0.285,-0.015
3689,-0.295,-0.015
3690,-0.355,-0.045
3691,-0.365,-0.045
3692,-0.385,-0.055
3693,-0.345,-0.045
3694,-0.325,-0.015
3695,-0.315,-0.075
3696,-0.305,-0.105
3697,-0.325,-0.095
3698,-0.255,-0.095
3699,-0.245,-0.125
3700,-0.225,-0.145
3701,-0.185,-0.135
3702,-0.185,-0.175
3703,-0.175,-0.205
3704,-0.185,-0.245
3705,-0.135,-0.265
3706,-0.105,-0.255
3707,-0.165,-0.305
3708,-0.155,-0.335
3709,-0.155,-0.335
3710,-0.135,-0.305
3711,-0.185,-0.335
3712,-0.165,-0.295
3713,-0.185,-0.225
3714,-0.105,-0.165
3715,-0.115,-0.125
3716,-0.135,-0.095
3717,-0.115,-0.035
3718,-0.125,-0.025
3719,-0.135,0.005
3720,-0.175,0.005
3721,-0.165,0.005
3722,-0.185,0.055
3723,-0.195,0.025
3724,-0.175,-0.015
3725,-0.165,0.015
3726,-0.145,0.045
3727,-0.155,0.045
3728,-0.145,0.025
3729,-0.165,0.005
3730,-0.145,0.015
3731,-0.145,0.035
3732,-0.155,0.015
3733,-0.145,0.005
3734,-0.145,0.015
3735,-0.165,0.035
3736,-0.135,0.015
3737,-0.155,0.025
3738,-0.185,0.015
3739,-0.165,0.005
3740,-0.155,0.025
3741,-0.145,0.045
3742,-0.095,0.075
3743,-0.125,0.065
3744,-0.055,-0.005
3745,0.045,-0.025
3746,-0.035,-0.025
3747,-0.105,-0.035
3748,-0.165,-0.045
3749,-0.165,-0.005
3750,-0.165,0.015
3751,-0.135,-0.015
3752,-0.205,0.025
3753,-0.215,0.005
3754,-0.235,-0.005
3755,-0.215,-0.005
3756,-0.235,-0.015
3757,-0.225,0.005
3758,-0.295,0.185
3759,-0.855,0.075
3760,-0.575,-0.305
3761,0.685,-0.565
3762,2.325,-0.035
3763,2.765,0.505
3764,2.575,0.905
3765,1.175,-0.415
3766,-0.275,-0.705
3767,-0.385,-0.235
3768,-0.325,-0.025
3769,-0.355,-0.055
3770,-0.365,-0.055
3771,-0.375,-0.065
3772,-0.355,-0.085
3773,-0.335,-0.045
3774,-0.315,-0.075
3775,-0.375,-0.065
3776,-0.285,-0.125
3777,-0.265,-0.115
3778,-0.245,-0.115
3779,-0.235,-0.135
3780,-0.265,-0.145
3781,-0.245,-0.175
3782,-0.225,-0.205
3783,-0.215,-0.225
3784,-0.185,-0.255
3785,-0.185,-0.285
3786,-0.155,-0.285
3787,-0.175,-0.305
3788,-0.175,-0.325
3789,-0.185,-0.335
3790,-0.225,-0.305
3791,-0.235,-0.285
3792,-0.185,-0.255
3793,-0.215,-0.225
3794,-0.235,-0.175
3795,-0.135,-0.125
3796,-0.095,-0.085
3797,-0.185,-0.045
3798,-0.135,-0.015
3799,-0.115,0.005
3800,-0.165,-0.015
3801,-0.155,-0.025
3802,-0.185,-0.005
3803,-0.165,0.025
3804,-0.155,-0.025
3805,-0.185,-0.025
3806,-0.155,-0.025
3807,-0.175,0.015
3808,-0.155,-0.035
3809,-0.185,-0.025
3810,-0.155,0.005
3811,-0.155,-0.015
3812,-0.145,-0.025
3813,-0.175,-0.005
3814,-0.185,-0.025
3815,-0.175,-0.025
3816,-0.165,-0.015
3817,-0.145,-0.015
3818,-0.155,0.005
3819,-0.125,-0.005
3820,-0.125,0.025
3821,-0.115,0.055
3822,-0.115,0.075
3823,-0.025,-0.005
3824,0.005,-0.065
3825,-0.045,-0.065
3826,-0.085,-0.035
3827,-0.105,-0.045
3828,-0.135,-0.035
3829,-0.175,-0.005
3830,-0.135,-0.005
3831,-0.195,-0.035
3832,-0.225,-0.055
3833,-0.205,-0.045
3834,-0.255,-0.025
3835,-0.155,-0.005
3836,-0.175,0.005
3837,-0.285,0.145
3838,-0.835,0.095
3839,-0.565,-0.335
3840,0.865,-0.605
3841,2.475,-0.185
3842,2.885,0.575
3843,2.485,0.475
3844,0.995,-0.805
3845,-0.215,-0.585
3846,-0.265,-0.125
3847,-0.245,-0.015
3848,-0.295,-0.025
3849,-0.365,-0.035
3850,-0.365,-0.035
3851,-0.335,-0.055
3852,-0.325,-0.055
3853,-0.295,-0.045
3854,-0.295,-0.075
3855,-0.295,-0.085
3856,-0.285,-0.095
3857,-0.265,-0.105
3858,-0.225,-0.095
3859,-0.185,-0.115
3860,-0.195,-0.135
3861,-0.175,-0.145
3862,-0.125,-0.155
3863,-0.115,-0.185
3864,-0.105,-0.225
3865,-0.095,-0.255
3866,-0.105,-0.265
3867,-0.105,-0.265
3868,-0.135,-0.295
3869,-0.155,-0.285
3870,-0.165,-0.275
3871,-0.155,-0.235
3872,-0.155,-0.215
3873,-0.135,-0.145
3874,-0.115,-0.095
3875,-0.145,-0.055
3876,-0.155,-0.045
3877,-0.105,-0.005
3878,-0.125,0.015
3879,-0.175,0.005
3880,-0.175,0.005
3881,-0.165,0.005
3882,-0.165,0.005
3883,-0.145,0.005
3884,-0.155,0.005
3885,-0.145,0.015
3886,-0.145,0.025
3887,-0.185,0.005
3888,-0.155,-0.005
3889,-0.165,0.015
3890,-0.145,0.015
3891,-0.125,-0.005
3892,-0.165,-0.015
3893,-0.155,0.005
3894,-0.145,-0.005
3895,-0.175,-0.005
3896,-0.135,-0.015
3897,-0.175,-0.005
3898,-0.155,0.005
3899,-0.125,0.025
3900,-0.105,0.035
3901,-0.095,0.045
3902,-0.035,0.045
3903,0.065,-0.045
3904,-0.035,-0.045
3905,-0.065,-0.065
3906,-0.105,-0.035
3907,-0.125,-0.025
3908,-0.135,-0.005
3909,-0.135,-0.015
3910,-0.195,-0.015
3911,-0.195,-0.025
3912,-0.215,-0.035
3913,-0.205,-0.025
3914,-0.195,-0.035
3915,-0.185,-0.035
3916,-0.185,0.065
3917,-0.725,0.185
3918,-0.815,-0.105
3919,0.075,-0.805
3920,1.815,-0.285
3921,2.745,0.275
3922,2.685,0.945
3923,1.935,-0.075
3924,0.305,-0.865
3925,-0.295,-0.425
3926,-0.275,-0.065
3927,-0.285,-0.015
3928,-0.355,-0.085
3929,-0.355,-0.095
3930,-0.375,-0.085
3931,-0.335,-0.095
3932,-0.315,-0.085
3933,-0.295,-0.095
3934,-0.315,-0.095
3935,-0.285,-0.115
3936,-0.245,-0.145
3937,-0.245,-0.135
3938,-0.265,-0.175
3939,-0.205,-0.195
3940,-0.205,-0.215
3941,-0.145,-0.235
3942,-0.125,-0.255
3943,-0.125,-0.275
3944,-0.135,-0.315
3945,-0.125,-0.315
3946,-0.125,-0.345
3947,-0.135,-0.385
3948,-0.155,-0.395
3949,-0.175,-0.375
3950,-0.175,-0.345
3951,-0.195,-0.305
3952,-0.145,-0.245
3953,-0.105,-0.175
3954,-0.105,-0.115
3955,-0.085,-0.105
3956,-0.075,-0.055
3957,-0.095,-0.035
3958,-0.115,0.015
3959,-0.135,0.005
3960,-0.145,-0.035
3961,-0.145,-0.005
3962,-0.165,0.015
3963,-0.135,0.005
3964,-0.135,-0.025
3965,-0.135,-0.015
3966,-0.125,-0.005
3967,-0.135,-0.025
3968,-0.155,-0.035
3969,-0.145,-0.015
3970,-0.175,-0.005
3971,-0.145,-0.025
3972,-0.135,-0.025
3973,-0.135,-0.035
3974,-0.145,-0.025
3975,-0.145,-0.025
3976,-0.175,-0.035
3977,-0.155,-0.025
3978,-0.135,-0.005
3979,-0.125,0.025
3980,-0.115,0.005
3981,-0.105,-0.005
3982,-0.025,-0.015
3983,0.035,-0.085
3984,-0.045,-0.085
3985,-0.065,-0.075
3986,-0.145,-0.065
3987,-0.135,-0.045
3988,-0.155,-0.025
3989,-0.155,-0.055
3990,-0.185,-0.035
3991,-0.255,-0.065
3992,-0.235,-0.065
3993,-0.225,-0.065
3994,-0.175,-0.045
3995,-0.205,-0.035
3996,-0.265,0.055
3997,-0.855,0.005
3998,-0.645,-0.225
3999,0.605,-0.505
4000,2.235,-0.105
4001,2.705,0.365
4002,2.525,0.785
4003,1.205,-0.285
4004,-0.255,-0.665
4005,-0.405,-0.315
4006,-0.285,-0.105
4007,-0.325,-0.085
4008,-0.385,-0.125
4009,-0.395,-0.135
4010,-0.405,-0.115
4011,-0.345,-0.115
4012,-0.325,-0.125
4013,-0.355,-0.135
4014,-0.345,-0.145
4015,-0.275,-0.165
4016,-0.285,-0.175
4017,-0.245,-0.185
4018,-0.255,-0.185
4019,-0.225,-0.215
4020,-0.265,-0.235
4021,-0.225,-0.255
4022,-0.195,-0.275
4023,-0.165,-0.315
4024,-0.165,-0.345
4025,-0.175,-0.345
4026,-0.245,-0.335
4027,-0.225,-0.345
4028,-0.215,-0.355
4029,-0.205,-0.335
4030,-0.175,-0.305
4031,-0.245,-0.255
4032,-0.205,-0.215
4033,-0.135,-0.165
4034,-0.105,-0.095
4035,-0.135,-0.065
4036,-0.185,-0.055
4037,-0.165,-0.065
4038,-0.175,-0.045
4039,-0.175,-0.025
4040,-0.215,-0.035
4041,-0.205,-0.025
4042,-0.175,-0.015
4043,-0.215,-0.015
4044,-0.235,-0.035
4045,-0.185,-0.035
4046,-0.175,-0.025
4047,-0.175,-0.045
4048,-0.205,-0.035
4049,-0.175,-0.015
4050,-0.195,-0.035
4051,-0.205,-0.055
4052,-0.225,-0.045
4053,-0.215,-0.045
4054,-0.185,-0.035
4055,-0.245,-0.045
4056,-0.205,-0.055
4057,-0.195,-0.045
4058,-0.245,-0.015
4059,-0.145,0.015
4060,-0.125,0.035
4061,-0.165,0.025
4062,-0.015,0.025
4063,-0.025,-0.055
4064,-0.105,-0.095
4065,-0.135,-0.075
4066,-0.185,-0.075
4067,-0.195,-0.055
4068,-0.195,-0.035
4069,-0.195,-0.065
4070,-0.265,-0.055
4071,-0.265,-0.035
4072,-0.295,-0.075
4073,-0.285,-0.085
4074,-0.315,-0.055
4075,-0.205,-0.045
4076,-0.465,0.165
4077,-0.945,0.085
4078,-0.535,-0.275
4079,0.945,-0.495
4080,2.475,-0.345
4081,2.805,0.365
4082,2.435,0.215
4083,0.635,-0.905
4084,-0.385,-0.535
4085,-0.335,-0.075
4086,-0.315,-0.025
4087,-0.355,-0.045
4088,-0.415,-0.065
4089,-0.435,-0.085
4090,-0.385,-0.055
4091,-0.415,-0.065
4092,-0.405,-0.065
4093,-0.415,-0.055
4094,-0.345,-0.095
4095,-0.355,-0.085
4096,-0.335,-0.075
4097,-0.285,-0.115
4098,-0.245,-0.125
4099,-0.215,-0.125
4100,-0.185,-0.115
4101,-0.205,-0.155
4102,-0.185,-0.185
4103,-0.205,-0.195
4104,-0.165,-0.215
4105,-0.185,-0.225
4106,-0.185,-0.245
4107,-0.215,-0.245
4108,-0.225,-0.225
4109,-0.275,-0.255
4110,-0.255,-0.205
4111,-0.225,-0.185
4112,-0.235,-0.125
4113,-0.185,-0.095
4114,-0.155,-0.075
4115,-0.155,-0.045
4116,-0.155,-0.025
4117,-0.185,-0.005
4118,-0.215,-0.025
4119,-0.215,-0.015
4120,-0.205,-0.005
4121,-0.195,-0.005
4122,-0.195,0.015
4123,-0.185,-0.005
4124,-0.185,0.005
4125,-0.165,-0.005
4126,-0.205,-0.015
4127,-0.195,-0.015
4128,-0.175,-0.025
4129,-0.175,-0.005
4130,-0.175,0.025
4131,-0.185,-0.025
4132,-0.175,-0.025
4133,-0.155,-0.015
4134,-0.175,0.005
4135,-0.185,-0.015
4136,-0.165,-0.005
4137,-0.105,0.025
4138,-0.095,0.055
4139,-0.115,0.075
4140,-0.105,0.095
4141,-0.045,0.025
4142,-0.025,-0.015
4143,-0.035,-0.045
4144,-0.105,-0.055
4145,-0.145,-0.025
4146,-0.125,-0.005
4147,-0.145,0.025
4148,-0.205,-0.015
4149,-0.215,-0.045
4150,-0.225,-0.015
4151,-0.225,-0.020
4152,-0.225,-0.040
4153,-0.255,-0.040
4154,-0.235,-0.010
4155,-0.185,0.000
4156,-0.465,0.230
4157,-0.865,0.050
4158,-0.505,-0.470
4159,1.125,-0.480
4160,2.595,-0.100
4161,2.885,0.610
4162,2.405,0.340
4163,0.795,-0.870
4164,-0.215,-0.580
4165,-0.315,-0.070
4166,-0.315,-0.030
4167,-0.325,-0.020
4168,-0.365,-0.050
4169,-0.365,-0.050
4170,-0.375,-0.050
4171,-0.365,-0.040
4172,-0.295,-0.060
4173,-0.335,-0.080
4174,-0.295,-0.070
4175,-0.275,-0.070
4176,-0.285,-0.075
4177,-0.275,-0.105
4178,-0.215,-0.105
4179,-0.205,-0.135
4180,-0.155,-0.155
4181,-0.155,-0.165
4182,-0.135,-0.195
4183,-0.125,-0.215
4184,-0.105,-0.255
4185,-0.135,-0.265
4186,-0.145,-0.245
4187,-0.175,-0.275
4188,-0.185,-0.275
4189,-0.195,-0.255
4190,-0.185,-0.205
4191,-0.155,-0.155
4192,-0.145,-0.125
4193,-0.145,-0.075
4194,-0.145,-0.015
4195,-0.145,-0.005
4196,-0.145,-0.005
4197,-0.155,0.025
4198,-0.155,0.035
4199,-0.195,0.045
4200,-0.165,0.025
4201,-0.165,0.015
4202,-0.135,0.035
4203,-0.165,0.045
4204,-0.155,0.005
4205,-0.175,0.015
4206,-0.145,0.015
4207,-0.105,0.025
4208,-0.125,0.015
4209,-0.155,0.025
4210,-0.155,0.005
4211,-0.125,0.015
4212,-0.155,0.005
4213,-0.145,0.015
4214,-0.135,0.015
4215,-0.135,0.005
4216,-0.125,0.005
4217,-0.175,0.005
4218,-0.155,0.025
4219,-0.105,0.025
4220,-0.065,0.055
4221,-0.105,0.045
4222,-0.085,0.065
4223,0.055,0.045
4224,0.015,-0.045
4225,-0.045,-0.055
4226,-0.095,-0.015
4227,-0.115,0.005
4228,-0.125,0.005
4229,-0.135,-0.005
4230,-0.195,-0.015
4231,-0.225,-0.005
4232,-0.225,-0.025
4233,-0.235,0.005
4234,-0.195,-0.005
4235,-0.205,-0.025
4236,-0.165,0.005
4237,-0.435,0.205
4238,-0.795,0.005
4239,-0.455,-0.495
4240,1.005,-0.555
4241,2.455,-0.055
4242,2.705,0.745
4243,2.315,0.655
4244,1.045,-0.645
4245,-0.135,-0.625
4246,-0.305,-0.215
4247,-0.275,-0.045
4248,-0.345,-0.055
4249,-0.345,-0.055
4250,-0.345,-0.045
4251,-0.385,-0.055
4252,-0.365,-0.085
4253,-0.315,-0.085
4254,-0.315,-0.085
4255,-0.305,-0.085
4256,-0.315,-0.125
4257,-0.295,-0.105
4258,-0.245,-0.105
4259,-0.225,-0.135
4260,-0.215,-0.165
4261,-0.205,-0.185
4262,-0.195,-0.195
4263,-0.185,-0.205
4264,-0.175,-0.255
4265,-0.145,-0.285
4266,-0.135,-0.285
4267,-0.125,-0.325
4268,-0.155,-0.345
4269,-0.165,-0.345
4270,-0.235,-0.305
4271,-0.195,-0.305
4272,-0.215,-0.275
4273,-0.195,-0.225
4274,-0.135,-0.155
4275,-0.125,-0.125
4276,-0.135,-0.075
4277,-0.155,0.005
4278,-0.175,-0.025
4279,-0.185,-0.005
4280,-0.185,0.005
4281,-0.185,-0.005
4282,-0.165,0.005
4283,-0.195,0.035
4284,-0.145,0.005
4285,-0.165,-0.005
4286,-0.155,-0.015
4287,-0.175,0.015
4288,-0.145,-0.015
4289,-0.145,-0.005
4290,-0.135,0.035
4291,-0.135,0.015
4292,-0.165,0.015
4293,-0.175,0.005
4294,-0.155,0.005
4295,-0.125,0.005
4296,-0.135,-0.025
4297,-0.165,-0.005
4298,-0.155,0.025
4299,-0.155,0.005
4300,-0.145,-0.015
4301,-0.145,-0.005
4302,-0.115,0.035
4303,-0.065,0.075
4304,-0.085,0.045
4305,-0.025,0.045
4306,0.035,-0.005
4307,-0.045,-0.035
4308,-0.045,-0.065
4309,-0.085,-0.025
4310,-0.095,-0.015
4311,-0.125,0.015
4312,-0.165,-0.025
4313,-0.165,-0.015
4314,-0.195,-0.005
4315,-0.235,-0.015
4316,-0.205,-0.045
4317,-0.165,-0.025
4318,-0.165,-0.025
4319,-0.165,0.045
4320,-0.645,0.145
4321,-0.755,-0.105
4322,-0.065,-0.665
4323,1.695,-0.285
4324,2.645,0.295
4325,2.525,1.005
4326,1.795,0.185
4327,0.125,-0.715
4328,-0.365,-0.415
4329,-0.315,-0.115
4330,-0.315,-0.045
4331,-0.315,-0.075
4332,-0.365,-0.085
4333,-0.325,-0.095
4334,-0.315,-0.065
4335,-0.325,-0.125
4336,-0.315,-0.115
4337,-0.295,-0.115
4338,-0.265,-0.145
4339,-0.235,-0.135
4340,-0.265,-0.165
4341,-0.235,-0.185
4342,-0.195,-0.195
4343,-0.175,-0.205
4344,-0.175,-0.255
4345,-0.165,-0.275
4346,-0.145,-0.285
4347,-0.185,-0.325
4348,-0.145,-0.365
4349,-0.145,-0.355
4350,-0.155,-0.355
4351,-0.175,-0.375
4352,-0.195,-0.355
4353,-0.145,-0.305
4354,-0.135,-0.275
4355,-0.125,-0.235
4356,-0.125,-0.175
4357,-0.085,-0.105
4358,-0.065,-0.095
4359,-0.095,-0.045
4360,-0.115,-0.025
4361,-0.135,-0.025
4362,-0.145,-0.005
4363,-0.145,-0.005
4364,-0.165,-0.015
4365,-0.145,0.005
4366,-0.165,-0.025
4367,-0.155,-0.035
4368,-0.145,-0.025
4369,-0.175,-0.005
4370,-0.135,-0.005
4371,-0.135,0.005
4372,-0.135,-0.035
4373,-0.145,-0.015
4374,-0.145,-0.015
4375,-0.165,0.005
4376,-0.175,-0.025
4377,-0.175,-0.035
4378,-0.165,-0.015
4379,-0.155,-0.025
4380,-0.175,-0.035
4381,-0.165,-0.015
4382,-0.135,-0.015
4383,-0.135,-0.045
4384,-0.145,-0.025
4385,-0.125,0.015
4386,-0.105,0.025
4387,-0.125,0.025
4388,-0.105,0.035
4389,-0.025,0.005
4390,0.035,-0.035
4391,-0.035,-0.035
4392,-0.105,-0.065
4393,-0.135,-0.075
4394,-0.115,-0.015
4395,-0.155,-0.015
4396,-0.195,-0.045
4397,-0.195,-0.015
4398,-0.215,-0.045
4399,-0.215,-0.055
4400,-0.245,-0.055
4401,-0.195,-0.035
4402,-0.105,0.035
4403,-0.485,0.165
4404,-0.855,-0.045
4405,-0.145,-0.455
4406,1.525,-0.315
4407,2.715,-0.005
4408,2.735,0.655
4409,2.205,0.315
4410,0.375,-0.855
4411,-0.425,-0.545
4412,-0.295,-0.155
4413,-0.305,-0.055
4414,-0.375,-0.055
4415,-0.345,-0.085
4416,-0.375,-0.055
4417,-0.375,-0.095
4418,-0.335,-0.095
4419,-0.345,-0.095
4420,-0.315,-0.115
4421,-0.275,-0.095
4422,-0.295,-0.095
4423,-0.285,-0.115
4424,-0.235,-0.135
4425,-0.215,-0.165
4426,-0.185,-0.175
4427,-0.185,-0.175
4428,-0.175,-0.215
4429,-0.145,-0.215
4430,-0.135,-0.235
4431,-0.195,-0.295
4432,-0.185,-0.315
4433,-0.175,-0.315
4434,-0.205,-0.275
4435,-0.215,-0.235
4436,-0.165,-0.275
4437,-0.175,-0.245
4438,-0.165,-0.185
4439,-0.125,-0.155
4440,-0.175,-0.125
4441,-0.115,-0.075
4442,-0.115,-0.015
4443,-0.145,-0.015
4444,-0.145,-0.045
4445,-0.165,0.005
4446,-0.185,0.015
4447,-0.175,-0.025
4448,-0.185,-0.015
4449,-0.175,-0.015
4450,-0.145,0.005
4451,-0.165,0.005
4452,-0.185,-0.005
4453,-0.175,-0.025
4454,-0.155,-0.015
4455,-0.155,-0.015
4456,-0.165,-0.025
4457,-0.165,-0.015
4458,-0.175,-0.005
4459,-0.155,-0.035
4460,-0.165,-0.025
4461,-0.155,-0.035
4462,-0.155,-0.025
4463,-0.185,-0.045
4464,-0.195,-0.015
4465,-0.175,-0.025
4466,-0.105,-0.005
4467,-0.085,0.025
4468,-0.125,0.045
4469,-0.145,0.035
4470,0.035,0.025
4471,0.005,-0.035
4472,-0.065,-0.055
4473,-0.085,-0.095
4474,-0.105,-0.045
4475,-0.115,-0.005
4476,-0.205,-0.025
4477,-0.185,-0.055
4478,-0.205,-0.035
4479,-0.195,-0.045
4480,-0.255,-0.065
4481,-0.225,-0.045
4482,-0.205,-0.035
4483,-0.165,-0.015
4484,-0.445,0.245
4485,-0.875,0.045
4486,-0.315,-0.445
4487,1.265,-0.435
4488,2.605,-0.185
4489,2.835,0.585
4490,2.315,0.275
4491,0.635,-0.845
4492,-0.325,-0.565
4493,-0.275,-0.105
4494,-0.255,-0.015
4495,-0.325,-0.035
4496,-0.385,-0.035
4497,-0.385,-0.035
4498,-0.335,-0.065
4499,-0.355,-0.075
4500,-0.305,-0.075
4501,-0.285,-0.075
4502,-0.305,-0.065
4503,-0.275,-0.115
4504,-0.255,-0.125
4505,-0.245,-0.125
4506,-0.165,-0.115
4507,-0.175,-0.125
4508,-0.175,-0.175
4509,-0.145,-0.185
4510,-0.115,-0.215
4511,-0.115,-0.235
4512,-0.125,-0.265
4513,-0.105,-0.275
4514,-0.125,-0.285
4515,-0.155,-0.275
4516,-0.185,-0.285
4517,-0.185,-0.255
4518,-0.175,-0.225
4519,-0.185,-0.185
4520,-0.125,-0.135
4521,-0.135,-0.105
4522,-0.125,-0.035
4523,-0.135,-0.045
4524,-0.145,-0.025
4525,-0.195,-0.005
4526,-0.145,-0.005
4527,-0.145,-0.005
4528,-0.165,-0.005
4529,-0.165,0.025
4530,-0.155,-0.005
4531,-0.155,-0.005
4532,-0.175,-0.025
4533,-0.125,-0.005
4534,-0.115,0.005
4535,-0.115,0.025
4536,-0.145,-0.025
4537,-0.145,-0.015
4538,-0.125,-0.005
4539,-0.125,-0.005
4540,-0.135,0.005
4541,-0.145,-0.035
4542,-0.115,-0.005
4543,-0.175,-0.015
4544,-0.135,-0.035
4545,-0.155,-0.015
4546,-0.135,-0.005
4547,-0.155,-0.005
4548,-0.095,-0.005
4549,-0.055,0.025
4550,-0.065,0.065
4551,-0.065,0.035
4552,0.065,-0.005
4553,0.015,-0.045
4554,-0.035,-0.065
4555,-0.105,-0.065
4556,-0.085,-0.055
4557,-0.105,0.025
4558,-0.115,-0.025
4559,-0.165,-0.055
4560,-0.185,-0.055
4561,-0.195,-0.045
4562,-0.195,-0.035
4563,-0.175,-0.035
4564,-0.185,-0.055
4565,-0.145,-0.035
4566,-0.325,0.185
4567,-0.775,0.015
4568,-0.295,-0.525
4569,1.355,-0.535
4570,2.695,-0.055
4571,2.835,0.765
4572,2.275,0.405
4573,0.745,-0.785
4574,-0.225,-0.595
4575,-0.275,-0.155
4576,-0.245,-0.035
4577,-0.315,-0.065
4578,-0.305,-0.075
4579,-0.355,-0.075
4580,-0.325,-0.085
4581,-0.315,-0.055
4582,-0.295,-0.075
4583,-0.275,-0.105
4584,-0.295,-0.115
4585,-0.265,-0.135
4586,-0.215,-0.075
4587,-0.185,-0.125
4588,-0.195,-0.155
4589,-0.155,-0.165
4590,-0.155,-0.165
4591,-0.155,-0.195
4592,-0.115,-0.195
4593,-0.095,-0.265
4594,-0.085,-0.275
4595,-0.095,-0.275
4596,-0.095,-0.315
4597,-0.115,-0.315
4598,-0.135,-0.335
4599,-0.115,-0.325
4600,-0.135,-0.275
4601,-0.145,-0.245
4602,-0.135,-0.195
4603,-0.125,-0.145
4604,-0.085,-0.105
4605,-0.095,-0.065
4606,-0.115,-0.005
4607,-0.125,-0.025
4608,-0.145,-0.005
4609,-0.135,-0.005
4610,-0.165,0.025
4611,-0.145,-0.005
4612,-0.135,-0.025
4613,-0.125,0.025
4614,-0.125,0.015
4615,-0.135,0.015
4616,-0.125,-0.025
4617,-0.135,-0.005
4618,-0.115,0.015
4619,-0.125,0.025
4620,-0.125,-0.025
4621,-0.135,-0.025
4622,-0.105,0.005
4623,-0.095,0.005
4624,-0.125,0.015
4625,-0.125,-0.035
4626,-0.145,-0.005
4627,-0.145,-0.005
4628,-0.125,0.025
4629,-0.125,-0.015
4630,-0.095,0.005
4631,-0.035,0.025
4632,-0.055,0.045
4633,-0.085,0.065
4634,0.035,0.065
4635,0.035,-0.015
4636,0.005,-0.055
4637,-0.065,-0.055
4638,-0.115,-0.025
4639,-0.085,0.005
4640,-0.145,0.035
4641,-0.145,-0.035
4642,-0.165,-0.025
4643,-0.195,-0.035
4644,-0.165,-0.015
4645,-0.175,-0.025
4646,-0.175,-0.005
4647,-0.125,-0.015
4648,-0.335,0.175
4649,-0.795,-0.005
4650,-0.485,-0.455
4651,1.045,-0.655
4652,2.575,-0.015
4653,2.775,0.825
4654,2.355,0.655
4655,0.755,-0.725
4656,-0.285,-0.625
4657,-0.275,-0.155
4658,-0.245,-0.035
4659,-0.305,-0.045
4660,-0.315,-0.085
4661,-0.355,-0.095
4662,-0.335,-0.085
4663,-0.325,-0.095
4664,-0.285,-0.095
4665,-0.285,-0.125
4666,-0.265,-0.125
4667,-0.245,-0.125
4668,-0.235,-0.125
4669,-0.185,-0.145
4670,-0.195,-0.175
4671,-0.175,-0.235
4672,-0.135,-0.225
4673,-0.125,-0.235
4674,-0.145,-0.245
4675,-0.105,-0.285
4676,-0.105,-0.355
4677,-0.095,-0.355
4678,-0.085,-0.335
4679,-0.195,-0.345
4680,-0.145,-0.345
4681,-0.135,-0.345
4682,-0.125,-0.315
4683,-0.105,-0.245
4684,-0.115,-0.195
4685,-0.075,-0.135
4686,-0.085,-0.075
4687,-0.075,-0.055
4688,-0.115,-0.055
4689,-0.125,-0.015
4690,-0.125,0.025
4691,-0.135,-0.005
4692,-0.145,-0.015
4693,-0.165,0.005
4694,-0.145,0.025
4695,-0.135,0.005
4696,-0.165,-0.015
4697,-0.165,-0.005
4698,-0.135,0.005
4699,-0.145,0.015
4700,-0.145,0.005
4701,-0.165,0.005
4702,-0.135,0.015
4703,-0.155,-0.015
4704,-0.145,-0.005
4705,-0.175,0.005
4706,-0.125,0.005
4707,-0.155,0.005
4708,-0.145,-0.005
4709,-0.145,-0.015
4710,-0.155,-0.005
4711,-0.125,0.005
4712,-0.095,0.025
4713,-0.095,0.045
4714,-0.075,0.075
4715,0.015,0.055
4716,0.005,0.005
4717,-0.045,-0.095
4718,-0.165,-0.035
4719,-0.115,-0.005
4720,-0.115,-0.015
4721,-0.125,-0.005
4722,-0.145,0.025
4723,-0.235,-0.025
4724,-0.265,-0.035
4725,-0.205,-0.035
4726,-0.185,-0.015
4727,-0.185,-0.005
4728,-0.175,-0.015
4729,-0.215,0.105
4730,-0.835,0.085
4731,-0.735,-0.195
4732,0.455,-0.655
4733,2.125,-0.125
4734,2.785,0.385
4735,2.525,1.005
4736,1.655,-0.045
4737,-0.015,-0.815
4738,-0.375,-0.335
4739,-0.285,-0.055
4740,-0.325,-0.075
4741,-0.375,-0.095
4742,-0.335,-0.065
4743,-0.315,-0.075
4744,-0.385,-0.095
4745,-0.335,-0.125
4746,-0.295,-0.105
4747,-0.365,-0.125
4748,-0.275,-0.125
4749,-0.235,-0.145
4750,-0.245,-0.135
4751,-0.225,-0.165
4752,-0.205,-0.195
4753,-0.185,-0.205
4754,-0.175,-0.245
4755,-0.165,-0.275
4756,-0.175,-0.285
4757,-0.155,-0.305
4758,-0.155,-0.315
4759,-0.125,-0.325
4760,-0.205,-0.345
4761,-0.195,-0.335
4762,-0.165,-0.285
4763,-0.215,-0.285
4764,-0.195,-0.235
4765,-0.135,-0.185
4766,-0.105,-0.125
4767,-0.095,-0.055
4768,-0.115,-0.035
4769,-0.165,-0.035
4770,-0.145,0.005
4771,-0.175,0.015
4772,-0.175,-0.005
4773,-0.145,0.015
4774,-0.125,0.035
4775,-0.145,0.005
4776,-0.175,-0.015
4777,-0.185,-0.005
4778,-0.145,0.015
4779,-0.155,0.015
4780,-0.155,-0.015
4781,-0.145,0.035
4782,-0.175,0.005
4783,-0.165,0.005
4784,-0.165,-0.005
4785,-0.135,0.005
4786,-0.115,0.025
4787,-0.155,0.005
4788,-0.185,0.005
4789,-0.155,0.005
4790,-0.155,0.015
4791,-0.165,0.005
4792,-0.145,0.045
4793,-0.075,0.085
4794,-0.105,0.075
4795,-0.105,0.075
4796,0.035,0.025
4797,0.005,-0.005
4798,-0.035,-0.015
4799,-0.075,-0.005
4800,-0.125,0.005
4801,-0.155,0.055
4802,-0.155,0.015
4803,-0.165,0.005
4804,-0.215,0.015
4805,-0.225,0.005
4806,-0.225,0.015
4807,-0.185,0.025
4808,-0.175,0.015
4809,-0.165,-0.015
4810,-0.375,0.215
4811,-0.845,0.065
4812,-0.365,-0.365
4813,1.295,-0.405
4814,2.605,-0.015
4815,2.825,0.615
4816,2.485,0.595
4817,0.915,-0.705
4818,-0.265,-0.605
4819,-0.315,-0.145
4820,-0.275,-0.005
4821,-0.325,-0.025
4822,-0.345,-0.045
4823,-0.385,-0.035
4824,-0.345,-0.055
4825,-0.335,-0.055
4826,-0.305,-0.055
4827,-0.295,-0.065
4828,-0.285,-0.085
4829,-0.275,-0.095
4830,-0.255,-0.075
4831,-0.225,-0.105
4832,-0.205,-0.095
4833,-0.185,-0.125
4834,-0.165,-0.125
4835,-0.135,-0.145
4836,-0.145,-0.205
4837,-0.115,-0.225
4838,-0.115,-0.235
4839,-0.155,-0.265
4840,-0.125,-0.305
4841,-0.145,-0.265
4842,-0.205,-0.275
4843,-0.185,-0.265
4844,-0.165,-0.225
4845,-0.165,-0.225
4846,-0.125,-0.135
4847,-0.125,-0.095
4848,-0.095,-0.085
4849,-0.095,-0.045
4850,-0.105,0.005
4851,-0.115,0.025
4852,-0.145,-0.005
4853,-0.125,0.005
4854,-0.125,0.025
4855,-0.125,0.045
4856,-0.115,0.005
4857,-0.125,-0.005
4858,-0.125,0.015
4859,-0.115,0.015
4860,-0.115,0.005
4861,-0.125,0.015
4862,-0.105,0.015
4863,-0.095,0.015
4864,-0.105,-0.005
4865,-0.105,-0.005
4866,-0.095,0.005
4867,-0.105,0.005
4868,-0.115,-0.005
4869,-0.105,-0.025
4870,-0.105,-0.005
4871,-0.145,-0.005
4872,-0.125,-0.025
4873,-0.105,0.005
4874,-0.075,0.035
4875,-0.055,0.035
4876,-0.055,0.035
4877,-0.045,0.075
4878,0.045,0.045
4879,0.035,-0.015
4880,-0.025,-0.075
4881,-0.055,-0.045
4882,-0.075,-0.025
4883,-0.075,0.015
4884,-0.085,0.025
4885,-0.125,-0.015
4886,-0.175,-0.015
4887,-0.185,-0.045
4888,-0.175,-0.005
4889,-0.185,-0.025
4890,-0.165,-0.015
4891,-0.135,0.015
4892,-0.455,0.195
4893,-0.725,0.025
4894,-0.235,-0.435
4895,1.375,-0.445
4896,2.675,-0.055
4897,2.815,0.725
4898,2.175,0.175
4899,0.555,-0.785
4900,-0.275,-0.485
4901,-0.265,-0.065
4902,-0.265,0.015
4903,-0.285,-0.015
4904,-0.315,-0.025
4905,-0.335,-0.035
4906,-0.325,-0.025
4907,-0.325,-0.035
4908,-0.315,-0.045
4909,-0.265,-0.055
4910,-0.255,-0.055
4911,-0.235,-0.065
4912,-0.215,-0.085
4913,-0.215,-0.095
4914,-0.185,-0.085
4915,-0.155,-0.095
4916,-0.125,-0.145
4917,-0.125,-0.155
4918,-0.115,-0.165
4919,-0.095,-0.175
4920,-0.105,-0.215
4921,-0.085,-0.215
4922,-0.135,-0.265
4923,-0.125,-0.275
4924,-0.135,-0.265
4925,-0.165,-0.225
4926,-0.155,-0.215
4927,-0.155,-0.195
4928,-0.105,-0.145
4929,-0.115,-0.085
4930,-0.095,-0.035
4931,-0.085,-0.015
4932,-0.135,0.005
4933,-0.145,0.035
4934,-0.125,0.025
4935,-0.135,0.015
4936,-0.155,0.005
4937,-0.135,0.025
4938,-0.115,0.055
4939,-0.105,0.005
4940,-0.125,0.005
4941,-0.115,0.015
4942,-0.115,0.035
4943,-0.125,0.025
4944,-0.115,0.025
4945,-0.105,-0.015
4946,-0.105,0.015
4947,-0.095,0.015
4948,-0.115,0.035
4949,-0.105,0.025
4950,-0.115,-0.005
4951,-0.125,-0.005
4952,-0.125,0.015
4953,-0.125,0.015
4954,-0.115,0.015
4955,-0.125,0.005
4956,-0.135,-0.025
4957,-0.105,0.005
4958,-0.045,0.065
4959,-0.045,0.085
4960,-0.045,0.065
4961,0.035,0.055
4962,0.065,-0.035
4963,-0.005,-0.045
4964,-0.045,-0.015
4965,-0.075,-0.025
4966,-0.045,0.015
4967,-0.085,0.005
4968,-0.135,0.005
4969,-0.165,-0.025
4970,-0.175,-0.025
4971,-0.155,-0.015
4972,-0.175,-0.015
4973,-0.145,0.015
4974,-0.115,0.005
4975,-0.145,0.095
4976,-0.625,0.105
4977,-0.645,-0.195
4978,0.465,-0.725
4979,2.045,-0.245
4980,2.655,0.345
4981,2.455,0.865
4982,1.465,-0.355
4983,0.105,-0.755
4984,-0.255,-0.295
4985,-0.235,-0.045
4986,-0.245,-0.055
4987,-0.305,-0.075
4988,-0.295,-0.085
4989,-0.335,-0.085
4990,-0.315,-0.085
4991,-0.235,-0.085
4992,-0.285,-0.115
4993,-0.255,-0.085
4994,-0.275,-0.125
4995,-0.215,-0.125
4996,-0.185,-0.155
4997,-0.185,-0.175
4998,-0.135,-0.175
4999,-0.155,-0.185
5000,-0.125,-0.205
5001,-0.165,-0.235
5002,-0.095,-0.275
5003,-0.065,-0.305
5004,-0.085,-0.335
5005,-0.065,-0.325
5006,-0.125,-0.325
5007,-0.175,-0.365
5008,-0.175,-0.355
5009,-0.145,-0.305
5010,-0.145,-0.245
5011,-0.125,-0.225
5012,-0.125,-0.155
5013,-0.125,-0.125
5014,-0.115,-0.095
5015,-0.105,-0.055
5016,-0.145,-0.055
5017,-0.145,-0.035
5018,-0.135,-0.015
5019,-0.165,-0.045
5020,-0.205,-0.025
5021,-0.115,-0.005
5022,-0.145,-0.025
5023,-0.175,-0.035
5024,-0.155,-0.035
5025,-0.135,-0.015
5026,-0.155,-0.015
5027,-0.165,-0.015
5028,-0.165,-0.065
5029,-0.145,-0.035
5030,-0.145,-0.005
5031,-0.155,-0.035
5032,-0.165,-0.045
5033,-0.165,-0.045
5034,-0.105,-0.015
5035,-0.155,-0.025
5036,-0.155,-0.055
5037,-0.165,-0.055
5038,-0.145,-0.025
5039,-0.185,-0.025
5040,-0.185,-0.045
5041,-0.135,-0.045
5042,-0.085,0.015
5043,-0.075,0.045
5044,-0.085,0.035
5045,0.005,-0.035
5046,0.015,-0.065
5047,-0.075,-0.095
5048,-0.105,-0.065
5049,-0.085,-0.065
5050,-0.155,0.005
5051,-0.125,-0.055
5052,-0.155,-0.065
5053,-0.245,-0.055
5054,-0.185,-0.035
5055,-0.195,-0.065
5056,-0.265,-0.045
5057,-0.175,-0.065
5058,-0.175,-0.055
5059,-0.345,0.145
5060,-0.695,-0.025
5061,-0.495,-0.425
5062,0.825,-0.675
5063,2.325,-0.135
5064,2.695,0.585
5065,2.305,0.765
5066,0.855,-0.615
5067,-0.305,-0.635
5068,-0.335,-0.245
5069,-0.345,-0.095
5070,-0.305,-0.075
5071,-0.325,-0.125
5072,-0.345,-0.145
5073,-0.375,-0.125
5074,-0.355,-0.125
5075,-0.325,-0.115
5076,-0.335,-0.145
5077,-0.305,-0.145
5078,-0.255,-0.145
5079,-0.255,-0.165
5080,-0.245,-0.195
5081,-0.245,-0.195
5082,-0.225,-0.225
5083,-0.195,-0.265
5084,-0.185,-0.295
5085,-0.225,-0.315
5086,-0.175,-0.325
5087,-0.105,-0.335
5088,-0.155,-0.405
5089,-0.165,-0.415
5090,-0.165,-0.405
5091,-0.185,-0.395
5092,-0.195,-0.375
5093,-0.175,-0.325
5094,-0.145,-0.245
5095,-0.135,-0.215
5096,-0.195,-0.195
5097,-0.115,-0.145
5098,-0.085,-0.055
5099,-0.115,-0.055
5100,-0.165,-0.035
5101,-0.155,-0.015
5102,-0.175,-0.045
5103,-0.195,-0.035
5104,-0.155,-0.025
5105,-0.165,-0.015
5106,-0.195,-0.005
5107,-0.175,-0.015
5108,-0.215,-0.035
5109,-0.195,-0.035
5110,-0.185,-0.015
5111,-0.165,-0.035
5112,-0.145,-0.035
5113,-0.175,-0.035
5114,-0.145,-0.015
5115,-0.205,-0.025
5116,-0.225,-0.035
5117,-0.165,-0.025
5118,-0.195,-0.015
5119,-0.185,-0.025
5120,-0.175,-0.035
5121,-0.155,-0.035
5122,-0.155,-0.025
5123,-0.205,-0.015
5124,-0.125,0.015
5125,-0.095,0.035
5126,-0.135,0.035
5127,-0.045,-0.005
5128,-0.005,-0.055
5129,-0.085,-0.085
5130,-0.135,-0.055
5131,-0.125,-0.035
5132,-0.145,-0.045
5133,-0.165,-0.035
5134,-0.205,-0.045
5135,-0.225,-0.055
5136,-0.235,-0.065
5137,-0.265,-0.065
5138,-0.215,-0.015
5139,-0.185,-0.035
5140,-0.205,-0.035
5141,-0.355,0.125
5142,-0.875,0.015
5143,-0.505,-0.315
5144,0.895,-0.575
5145,2.465,-0.105
5146,2.695,0.525
5147,2.415,0.765
5148,0.945,-0.535
5149,-0.285,-0.685
5150,-0.385,-0.255
5151,-0.405,-0.085
5152,-0.305,-0.095
5153,-0.295,-0.095
5154,-0.345,-0.105
5155,-0.335,-0.085
5156,-0.365,-0.115
5157,-0.405,-0.115
5158,-0.265,-0.125
5159,-0.295,-0.145
5160,-0.305,-0.155
5161,-0.255,-0.155
5162,-0.255,-0.115
5163,-0.255,-0.195
5164,-0.235,-0.215
5165,-0.215,-0.215
5166,-0.235,-0.255
5167,-0.185,-0.285
5168,-0.145,-0.305
5169,-0.155,-0.315
5170,-0.155,-0.325
5171,-0.185,-0.345
5172,-0.215,-0.355
5173,-0.205,-0.335
5174,-0.195,-0.305
5175,-0.205,-0.285
5176,-0.175,-0.225
5177,-0.135,-0.195
5178,-0.125,-0.135
5179,-0.135,-0.095
5180,-0.175,-0.055
5181,-0.155,-0.045
5182,-0.125,-0.025
5183,-0.155,-0.005
5184,-0.195,0.005
5185,-0.175,-0.015
5186,-0.175,0.005
5187,-0.165,-0.005
5188,-0.175,-0.025
5189,-0.175,-0.005
5190,-0.155,-0.025
5191,-0.175,-0.025
5192,-0.185,-0.015
5193,-0.205,-0.025
5194,-0.155,-0.025
5195,-0.125,-0.005
5196,-0.175,-0.025
5197,-0.205,-0.015
5198,-0.115,-0.005
5199,-0.165,-0.035
5200,-0.215,-0.045
5201,-0.125,-0.005
5202,-0.155,-0.005
5203,-0.195,-0.025
5204,-0.135,0.015
5205,-0.095,0.025
5206,-0.115,0.045
5207,-0.075,0.045
5208,-0.055,0.045
5209,0.055,-0.015
5210,-0.045,-0.065
5211,-0.095,-0.075
5212,-0.135,-0.055
5213,-0.105,0.015
5214,-0.115,0.015
5215,-0.165,-0.035
5216,-0.205,-0.055
5217,-0.195,-0.015
5218,-0.235,-0.005
5219,-0.165,-0.025
5220,-0.165,-0.045
5221,-0.145,-0.025
5222,-0.205,0.135
5223,-0.745,0.175
5224,-0.555,-0.145
5225,0.755,-0.535
5226,2.285,-0.235
5227,2.865,0.165
5228,2.675,0.615
5229,1.515,-0.535
5230,0.025,-0.805
5231,-0.355,-0.265
5232,-0.255,-0.045
5233,-0.245,-0.005
5234,-0.305,-0.025
5235,-0.335,-0.025
5236,-0.345,-0.055
5237,-0.335,-0.035
5238,-0.305,-0.045
5239,-0.275,-0.035
5240,-0.265,-0.055
5241,-0.275,-0.085
5242,-0.235,-0.065
5243,-0.235,-0.065
5244,-0.205,-0.065
5245,-0.195,-0.105
5246,-0.165,-0.115
5247,-0.135,-0.125
5248,-0.155,-0.145
5249,-0.145,-0.155
5250,-0.105,-0.175
5251,-0.125,-0.255
5252,-0.125,-0.265
5253,-0.115,-0.215
5254,-0.135,-0.245
5255,-0.185,-0.235
5256,-0.195,-0.235
5257,-0.205,-0.205
5258,-0.145,-0.135
5259,-0.115,-0.095
5260,-0.135,-0.075
5261,-0.105,-0.005
5262,-0.115,-0.015
5263,-0.095,0.015
5264,-0.115,0.055
5265,-0.135,0.055
5266,-0.145,0.045
5267,-0.165,0.025
5268,-0.185,0.035
5269,-0.135,0.015
5270,-0.125,0.055
5271,-0.145,0.055
5272,-0.145,0.035
5273,-0.135,0.045
5274,-0.105,0.025
5275,-0.155,0.025
5276,-0.145,0.045
5277,-0.125,0.025
5278,-0.115,0.045
5279,-0.115,0.025
5280,-0.135,0.015
5281,-0.145,0.005
5282,-0.135,0.055
5283,-0.105,0.065
5284,-0.125,0.015
5285,-0.125,0.005
5286,-0.135,0.025
5287,-0.095,0.025
5288,-0.045,0.095
5289,-0.075,0.065
5290,-0.035,0.085
5291,0.045,0.065
5292,0.025,0.005
5293,-0.035,-0.055
5294,-0.085,-0.005
5295,-0.115,-0.005
5296,-0.115,0.045
5297,-0.145,0.025
5298,-0.135,0.025
5299,-0.145,-0.005
5300,-0.165,0.015
5301,-0.195,-0.015
5302,-0.195,-0.005
5303,-0.185,0.045
5304,-0.125,0.035
5305,-0.365,0.205
5306,-0.765,0.075
5307,-0.385,-0.345
5308,1.205,-0.505
5309,2.685,-0.115
5310,2.875,0.775
5311,2.085,0.125
5312,0.265,-0.835
5313,-0.305,-0.375
5314,-0.255,-0.035
5315,-0.245,-0.005
5316,-0.335,-0.005
5317,-0.345,-0.015
5318,-0.335,-0.045
5319,-0.325,-0.025
5320,-0.325,-0.045
5321,-0.305,-0.075
5322,-0.235,-0.065
5323,-0.295,-0.065
5324,-0.245,-0.065
5325,-0.235,-0.065
5326,-0.185,-0.105
5327,-0.175,-0.095
5328,-0.185,-0.135
5329,-0.115,-0.145
5330,-0.145,-0.155
5331,-0.085,-0.175
5332,-0.095,-0.235
5333,-0.075,-0.245
5334,-0.115,-0.225
5335,-0.115,-0.305
5336,-0.095,-0.285
5337,-0.165,-0.285
5338,-0.135,-0.245
5339,-0.155,-0.245
5340,-0.115,-0.195
5341,-0.105,-0.115
5342,-0.115,-0.085
5343,-0.105,-0.045
5344,-0.075,-0.015
5345,-0.125,0.015
5346,-0.145,0.015
5347,-0.125,0.035
5348,-0.175,0.025
5349,-0.125,0.045
5350,-0.135,0.055
5351,-0.135,-0.005
5352,-0.135,0.045
5353,-0.135,0.045
5354,-0.155,0.035
5355,-0.115,0.035
5356,-0.155,0.005
5357,-0.135,0.005
5358,-0.155,0.055
5359,-0.135,0.025
5360,-0.125,0.015
5361,-0.125,0.005
5362,-0.115,0.035
5363,-0.105,0.055
5364,-0.125,0.015
5365,-0.165,0.005
5366,-0.115,0.045
5367,-0.005,0.025
5368,-0.105,0.055
5369,-0.125,0.065
5370,-0.095,0.085
5371,0.035,0.045
5372,0.025,-0.005
5373,-0.045,0.015
5374,-0.105,-0.005
5375,-0.105,-0.005
5376,-0.115,0.015
5377,-0.135,0.035
5378,-0.155,0.055
5379,-0.225,0.025
5380,-0.205,0.025
5381,-0.175,0.005
5382,-0.195,0.035
5383,-0.205,0.025
5384,-0.165,0.015
5385,-0.215,0.065
5386,-0.815,0.145
5387,-0.715,-0.045
5388,0.375,-0.415
5389,2.055,-0.155
5390,2.805,0.185
5391,2.555,0.585
5392,1.615,0.025
5393,0.135,-0.435
5394,-0.335,-0.225
5395,-0.295,-0.055
5396,-0.355,-0.025
5397,-0.325,-0.005
5398,-0.365,-0.005
5399,-0.345,-0.005
5400,-0.375,-0.035
5401,-0.335,-0.045
5402,-0.315,-0.025
5403,-0.315,-0.035
5404,-0.315,-0.045
5405,-0.315,-0.075
5406,-0.225,-0.075
5407,-0.245,-0.065
5408,-0.215,-0.105
5409,-0.185,-0.125
5410,-0.165,-0.125
5411,-0.165,-0.165
5412,-0.155,-0.175
5413,-0.155,-0.225
5414,-0.135,-0.235
5415,-0.145,-0.245
5416,-0.215,-0.275
5417,-0.185,-0.275
5418,-0.195,-0.255
5419,-0.165,-0.235
5420,-0.175,-0.215
5421,-0.155,-0.135
5422,-0.165,-0.105
5423,-0.155,-0.075
5424,-0.115,-0.045
5425,-0.165,0.005
5426,-0.155,0.005
5427,-0.165,0.005
5428,-0.205,0.005
5429,-0.165,0.025
5430,-0.165,0.035
5431,-0.195,0.015
5432,-0.205,0.005
5433,-0.165,-0.005
5434,-0.185,-0.005
5435,-0.165,0.015
5436,-0.165,0.035
5437,-0.135,-0.005
5438,-0.125,0.035
5439,-0.175,0.035
5440,-0.105,-0.015
5441,-0.155,-0.015
5442,-0.185,0.025
5443,-0.185,0.015
5444,-0.145,0.005
5445,-0.175,0.035
5446,-0.135,0.015
5447,-0.105,-0.015
5448,-0.105,0.025
5449,-0.105,0.025
5450,-0.085,0.065
5451,0.055,-0.005
5452,-0.005,-0.075
5453,-0.125,-0.075
5454,-0.045,-0.025
5455,-0.185,-0.025
5456,-0.105,0.005
5457,-0.105,-0.025
5458,-0.175,0.005
5459,-0.175,-0.025
5460,-0.225,-0.035
5461,-0.245,-0.055
5462,-0.205,-0.045
5463,-0.175,-0.045
5464,-0.185,-0.015
5465,-0.245,0.105
5466,-0.855,0.055
5467,-0.645,-0.225
5468,0.655,-0.745
5469,2.345,-0.085
5470,2.725,0.605
5471,2.485,1.015
5472,1.195,-0.295
5473,-0.165,-0.775
5474,-0.355,-0.325
5475,-0.265,-0.085
5476,-0.315,-0.115
5477,-0.345,-0.115
5478,-0.425,-0.105
5479,-0.305,-0.115
5480,-0.315,-0.115
5481,-0.305,-0.105
5482,-0.295,-0.155
5483,-0.315,-0.175
5484,-0.265,-0.175
5485,-0.275,-0.155
5486,-0.265,-0.185
5487,-0.235,-0.215
5488,-0.225,-0.235
5489,-0.185,-0.275
5490,-0.175,-0.285
5491,-0.165,-0.305
5492,-0.165,-0.335
5493,-0.185,-0.365
5494,-0.155,-0.365
5495,-0.175,-0.395
5496,-0.255,-0.385
5497,-0.195,-0.395
5498,-0.165,-0.355
5499,-0.145,-0.305
5500,-0.135,-0.255
5501,-0.165,-0.215
5502,-0.095,-0.145
5503,-0.125,-0.115
5504,-0.165,-0.085
5505,-0.115,-0.035
5506,-0.115,-0.045
5507,-0.155,-0.045
5508,-0.175,-0.035
5509,-0.175,-0.015
5510,-0.225,-0.015
5511,-0.145,-0.045
5512,-0.155,-0.065
5513,-0.175,-0.025
5514,-0.165,-0.025
5515,-0.185,-0.045
5516,-0.145,-0.035
5517,-0.145,-0.025
5518,-0.165,-0.025
5519,-0.165,-0.035
5520,-0.185,-0.045
5521,-0.155,-0.035
5522,-0.155,-0.045
5523,-0.155,-0.035
5524,-0.175,-0.055
5525,-0.145,-0.035
5526,-0.195,-0.035
5527,-0.185,-0.025
5528,-0.185,-0.025
5529,-0.145,-0.025
5530,-0.125,0.035
5531,-0.145,0.005
5532,-0.065,0.025
5533,0.025,-0.025
5534,0.005,-0.075
5535,-0.065,-0.085
5536,-0.165,-0.055
5537,-0.155,-0.075
5538,-0.155,-0.065
5539,-0.155,-0.045
5540,-0.185,-0.065
5541,-0.205,-0.045
5542,-0.215,-0.045
5543,-0.235,-0.055
5544,-0.245,-0.065
5545,-0.205,-0.065
5546,-0.165,-0.065
5547,-0.395,0.155
5548,-0.825,0.065
5549,-0.275,-0.245
5550,1.135,-0.525
5551,2.565,-0.185
5552,2.785,0.255
5553,2.465,0.585
5554,0.755,-0.695
5555,-0.375,-0.705
5556,-0.335,-0.225
5557,-0.345,-0.055
5558,-0.365,-0.085
5559,-0.395,-0.095
5560,-0.355,-0.105
5561,-0.345,-0.085
5562,-0.355,-0.115
5563,-0.315,-0.105
5564,-0.345,-0.115
5565,-0.295,-0.125
5566,-0.285,-0.135
5567,-0.275,-0.165
5568,-0.245,-0.175
5569,-0.235,-0.185
5570,-0.245,-0.175
5571,-0.215,-0.215
5572,-0.195,-0.245
5573,-0.235,-0.245
5574,-0.145,-0.275
5575,-0.125,-0.285
5576,-0.175,-0.295
5577,-0.155,-0.305
5578,-0.155,-0.295
5579,-0.205,-0.305
5580,-0.195,-0.285
5581,-0.155,-0.205
5582,-0.215,-0.195
5583,-0.175,-0.175
5584,-0.145,-0.145
5585,-0.065,-0.105
5586,-0.205,-0.085
5587,-0.175,-0.075
5588,-0.125,-0.055
5589,-0.155,-0.045
5590,-0.155,-0.015
5591,-0.195,-0.045
5592,-0.155,-0.035
5593,-0.185,-0.045
5594,-0.185,-0.035
5595,-0.195,-0.055
5596,-0.205,-0.035
5597,-0.215,-0.055
5598,-0.195,-0.055
5599,-0.105,-0.045
5600,-0.155,-0.055
5601,-0.185,-0.085
5602,-0.145,-0.055
5603,-0.195,-0.015
5604,-0.155,-0.055
5605,-0.215,-0.065
5606,-0.175,-0.115
5607,-0.105,-0.075
5608,-0.175,-0.035
5609,-0.205,-0.055
5610,-0.135,-0.045
5611,-0.105,-0.005
5612,-0.145,0.005
5613,-0.155,0.015
5614,-0.035,-0.025
5615,-0.035,-0.055
5616,-0.075,-0.095
5617,-0.085,-0.095
5618,-0.115,-0.085
5619,-0.195,-0.075
5620,-0.185,-0.065
5621,-0.175,-0.065
5622,-0.215,-0.065
5623,-0.225,-0.065
5624,-0.225,-0.095
5625,-0.225,-0.085
5626,-0.205,-0.045
5627,-0.155,-0.095
5628,-0.365,0.095
5629,-0.865,0.165
5630,-0.435,-0.085
5631,1.115,-0.455
5632,2.645,-0.285
5633,2.955,0.055
5634,2.595,0.315
5635,0.965,-0.745
5636,-0.345,-0.745
5637,-0.295,-0.145
5638,-0.275,-0.005
5639,-0.345,-0.025
5640,-0.415,-0.065
5641,-0.375,-0.055
5642,-0.325,-0.035
5643,-0.335,-0.055
5644,-0.325,-0.075
5645,-0.355,-0.075
5646,-0.325,-0.095
5647,-0.275,-0.085
5648,-0.245,-0.085
5649,-0.265,-0.085
5650,-0.245,-0.115
5651,-0.205,-0.135
5652,-0.185,-0.155
5653,-0.155,-0.175
5654,-0.115,-0.165
5655,-0.135,-0.195
5656,-0.145,-0.215
5657,-0.155,-0.205
5658,-0.095,-0.245
5659,-0.105,-0.245
5660,-0.155,-0.235
5661,-0.165,-0.225
5662,-0.155,-0.185
5663,-0.155,-0.165
5664,-0.145,-0.125
5665,-0.135,-0.085
5666,-0.095,-0.065
5667,-0.095,-0.035
5668,-0.135,-0.055
5669,-0.145,-0.025
5670,-0.135,-0.005
5671,-0.175,-0.005
5672,-0.175,-0.025
5673,-0.175,-0.015
5674,-0.185,-0.015
5675,-0.155,-0.025
5676,-0.165,0.005
5677,-0.135,0.005
5678,-0.175,-0.035
5679,-0.125,-0.025
5680,-0.135,-0.025
5681,-0.145,-0.015
5682,-0.145,-0.015
5683,-0.155,-0.035
5684,-0.155,-0.045
5685,-0.175,-0.035
5686,-0.075,-0.045
5687,-0.155,0.005
5688,-0.155,-0.015
5689,-0.105,-0.025
5690,-0.125,-0.025
5691,-0.075,-0.005
5692,-0.055,0.025
5693,-0.055,0.045
5694,-0.055,0.065
5695,0.015,-0.015
5696,0.005,-0.045
5697,-0.095,-0.065
5698,-0.095,-0.065
5699,-0.155,-0.055
5700,-0.125,-0.025
5701,-0.125,-0.025
5702,-0.155,-0.015
5703,-0.215,-0.035
5704,-0.195,-0.055
5705,-0.165,-0.055
5706,-0.195,-0.045
5707,-0.125,-0.045
5708,-0.115,-0.035
5709,-0.475,0.195
5710,-0.745,0.175
5711,-0.045,-0.265
5712,1.505,-0.345
5713,2.625,-0.195
5714,2.775,0.325
5715,2.315,0.075
5716,0.695,-0.915
5717,-0.205,-0.525
5718,-0.205,-0.045
5719,-0.255,-0.005
5720,-0.325,-0.035
5721,-0.325,-0.035
5722,-0.335,-0.035
5723,-0.315,-0.035
5724,-0.315,-0.035
5725,-0.305,-0.065
5726,-0.295,-0.025
5727,-0.265,-0.065
5728,-0.245,-0.075
5729,-0.215,-0.065
5730,-0.195,-0.065
5731,-0.165,-0.085
5732,-0.205,-0.115
5733,-0.115,-0.115
5734,-0.105,-0.125
5735,-0.125,-0.135
5736,-0.105,-0.185
5737,-0.085,-0.205
5738,-0.105,-0.225
5739,-0.145,-0.215
5740,-0.135,-0.205
5741,-0.185,-0.175
5742,-0.125,-0.165
5743,-0.185,-0.165
5744,-0.185,-0.155
5745,-0.145,-0.095
5746,-0.095,-0.045
5747,-0.095,-0.015
5748,-0.135,0.015
5749,-0.145,0.005
5750,-0.145,0.075
5751,-0.135,0.045
5752,-0.185,0.005
5753,-0.175,0.025
5754,-0.115,0.045
5755,-0.155,0.035
5756,-0.145,0.055
5757,-0.165,0.035
5758,-0.145,0.025
5759,-0.165,0.045
5760,-0.095,0.035
5761,-0.105,0.025
5762,-0.095,0.025
5763,-0.145,0.045
5764,-0.115,0.035
5765,-0.115,0.025
5766,-0.135,0.005
5767,-0.115,0.025
5768,-0.095,0.035
5769,-0.125,0.025
5770,-0.145,0.015
5771,-0.155,0.025
5772,-0.115,0.015
5773,-0.135,0.005
5774,-0.135,0.025
5775,-0.095,0.035
5776,-0.075,0.035
5777,-0.035,0.045
5778,-0.075,0.085
5779,-0.035,0.065
5780,0.055,-0.005
5781,-0.035,0.015
5782,-0.065,-0.025
5783,-0.105,-0.025
5784,-0.125,-0.005
5785,-0.115,0.015
5786,-0.095,0.015
5787,-0.185,0.025
5788,-0.205,-0.015
5789,-0.165,-0.015
5790,-0.155,0.015
5791,-0.205,0.005
5792,-0.135,0.005
5793,-0.185,0.035
5794,-0.645,0.205
5795,-0.655,0.075
5796,0.465,-0.285
5797,2.065,-0.215
5798,2.805,-0.055
5799,2.575,0.425
5800,1.375,-0.135
5801,-0.035,-0.535
5802,-0.245,-0.195
5803,-0.285,-0.005
5804,-0.275,0.025
5805,-0.285,0.005
5806,-0.345,0.015
5807,-0.335,0.025
5808,-0.295,0.005
5809,-0.305,-0.015
5810,-0.285,0.015
5811,-0.275,-0.015
5812,-0.265,-0.015
5813,-0.255,-0.025
5814,-0.185,-0.015
5815,-0.155,-0.005
5816,-0.155,-0.045
5817,-0.165,-0.045
5818,-0.095,-0.055
5819,-0.095,-0.055
5820,-0.115,-0.085
5821,-0.065,-0.095
5822,-0.075,-0.105
5823,-0.095,-0.145
5824,-0.095,-0.145
5825,-0.135,-0.155
5826,-0.145,-0.145
5827,-0.145,-0.135
5828,-0.155,-0.115
5829,-0.135,-0.095
5830,-0.115,-0.045
5831,-0.105,-0.025
5832,-0.095,-0.025
5833,-0.135,0.005
5834,-0.135,0.025
5835,-0.115,0.045
5836,-0.155,0.005
5837,-0.145,0.045
5838,-0.135,0.035
5839,-0.145,0.025
5840,-0.135,0.025
5841,-0.135,0.035
5842,-0.085,0.035
5843,-0.135,0.025
5844,-0.125,0.005
5845,-0.145,0.035
5846,-0.095,0.035
5847,-0.095,0.025
5848,-0.145,0.025
5849,-0.095,0.035
5850,-0.145,0.005
5851,-0.155,0.015
5852,-0.105,0.025
5853,-0.085,0.025
5854,-0.115,0.015
5855,-0.155,-0.005
5856,-0.145,-0.005
5857,-0.135,0.015
5858,-0.145,0.015
5859,-0.105,0.015
5860,-0.065,0.045
5861,-0.085,0.055
5862,-0.095,0.075
5863,0.005,0.085
5864,0.005,0.025
5865,0.025,-0.015
5866,-0.025,-0.025
5867,-0.045,-0.015
5868,-0.075,-0.025
5869,-0.085,0.015
5870,-0.115,0.015
5871,-0.145,0.035
5872,-0.185,-0.005
5873,-0.155,-0.015
5874,-0.195,-0.005
5875,-0.145,0.025
5876,-0.145,0.025
5877,-0.135,0.005
5878,-0.235,0.175
5879,-0.715,0.155
5880,-0.505,-0.185
5881,0.905,-0.645
5882,2.435,-0.225
5883,2.735,0.315
5884,2.365,0.695
5885,0.925,-0.555
5886,-0.175,-0.685
5887,-0.305,-0.195
5888,-0.235,0.015
5889,-0.265,-0.005
5890,-0.325,-0.025
5891,-0.295,-0.015
5892,-0.295,-0.025
5893,-0.285,-0.035
5894,-0.275,-0.035
5895,-0.265,-0.065
5896,-0.275,-0.045
5897,-0.245,-0.035
5898,-0.225,-0.075
5899,-0.205,-0.095
5900,-0.205,-0.125
5901,-0.135,-0.095
5902,-0.105,-0.095
5903,-0.055,-0.135
5904,-0.115,-0.125
5905,-0.065,-0.215
5906,-0.075,-0.205
5907,-0.075,-0.245
5908,-0.135,-0.255
5909,-0.045,-0.245
5910,-0.085,-0.235
5911,-0.105,-0.265
5912,-0.155,-0.255
5913,-0.095,-0.185
5914,-0.115,-0.155
5915,-0.105,-0.115
5916,-0.105,-0.075
5917,-0.075,-0.045
5918,-0.075,0.015
5919,-0.115,0.025
5920,-0.125,0.035
5921,-0.135,0.025
5922,-0.125,0.045
5923,-0.115,0.055
5924,-0.135,0.025
5925,-0.155,0.045
5926,-0.145,0.015
5927,-0.075,0.035
5928,-0.115,0.045
5929,-0.145,0.025
5930,-0.125,0.015
5931,-0.055,0.035
5932,-0.115,0.015
5933,-0.085,0.045
5934,-0.085,0.035
5935,-0.135,0.035
5936,-0.095,0.005
5937,-0.115,0.015
5938,-0.125,0.025
5939,-0.085,0.015
5940,-0.125,0.045
5941,-0.105,0.005
5942,-0.115,0.005
5943,-0.125,0.025
5944,-0.105,0.025
5945,-0.135,0.015
5946,-0.155,0.015
5947,-0.015,0.045
5948,-0.085,0.065
5949,-0.015,0.045
5950,0.045,0.055
5951,0.095,-0.005
5952,-0.015,-0.045
5953,-0.055,-0.035
5954,-0.045,-0.005
5955,-0.085,0.015
5956,-0.125,-0.005
5957,-0.095,-0.015
5958,-0.185,-0.015
5959,-0.145,-0.025
5960,-0.165,-0.035
5961,-0.205,-0.005
5962,-0.095,-0.015
5963,-0.095,-0.005
5964,-0.295,0.125
5965,-0.735,0.095
5966,-0.295,-0.225
5967,1.165,-0.625
5968,2.555,-0.135
5969,2.705,0.465
5970,2.405,0.795
5971,0.755,-0.505
5972,-0.295,-0.715
5973,-0.305,-0.245
5974,-0.255,-0.045
5975,-0.315,-0.065
5976,-0.305,-0.075
5977,-0.315,-0.065
5978,-0.305,-0.065
5979,-0.295,-0.065
5980,-0.285,-0.095
5981,-0.215,-0.085
5982,-0.235,-0.065
5983,-0.255,-0.115
5984,-0.235,-0.135
5985,-0.195,-0.145
5986,-0.165,-0.125
5987,-0.215,-0.155
5988,-0.175,-0.185
5989,-0.085,-0.245
5990,-0.095,-0.245
5991,-0.135,-0.265
5992,-0.105,-0.285
5993,-0.105,-0.305
5994,-0.085,-0.315
5995,-0.085,-0.295
5996,-0.155,-0.325
5997,-0.135,-0.305
5998,-0.135,-0.255
5999,-0.115,-0.195
6000,-0.095,-0.205
6001,-0.105,-0.155
6002,-0.115,-0.085
6003,-0.105,-0.065
6004,-0.095,-0.055
6005,-0.085,-0.015
6006,-0.105,0.015
6007,-0.175,-0.005
6008,-0.195,-0.005
6009,-0.145,0.015
6010,-0.125,-0.025
6011,-0.115,-0.015
6012,-0.125,-0.015
6013,-0.145,-0.035
6014,-0.135,-0.015
6015,-0.115,-0.015
6016,-0.135,-0.045
6017,-0.115,0.005
6018,-0.125,-0.015
6019,-0.125,-0.045
6020,-0.185,-0.055
6021,-0.115,-0.035
6022,-0.095,-0.025
6023,-0.115,-0.035
6024,-0.135,-0.045
6025,-0.165,-0.025
6026,-0.145,-0.005
6027,-0.155,-0.025
6028,-0.135,-0.035
6029,-0.155,-0.045
6030,-0.175,-0.025
6031,-0.115,-0.005
6032,-0.115,0.005
6033,-0.075,0.005
6034,-0.085,0.045
6035,-0.055,0.045
6036,0.055,-0.025
6037,-0.025,-0.045
6038,-0.065,-0.085
6039,-0.085,-0.055
6040,-0.055,-0.035
6041,-0.105,-0.035
6042,-0.125,-0.045
6043,-0.175,-0.075
6044,-0.175,-0.065
6045,-0.215,-0.055
6046,-0.195,-0.055
6047,-0.205,-0.055
6048,-0.165,-0.055
6049,-0.175,0.045
6050,-0.725,0.165
6051,-0.365,-0.135
6052,1.055,-0.505
6053,2.535,-0.225
6054,2.845,0.155
6055,2.525,0.475
6056,0.885,-0.625
6057,-0.325,-0.745
6058,-0.285,-0.225
6059,-0.265,-0.055
6060,-0.345,-0.055
6061,-0.325,-0.065
6062,-0.385,-0.065
6063,-0.325,-0.065
6064,-0.285,-0.085
6065,-0.265,-0.065
6066,-0.275,-0.085
6067,-0.285,-0.085
6068,-0.225,-0.105
6069,-0.205,-0.115
6070,-0.185,-0.145
6071,-0.175,-0.145
6072,-0.175,-0.155
6073,-0.135,-0.185
6074,-0.165,-0.195
6075,-0.105,-0.215
6076,-0.085,-0.245
6077,-0.125,-0.275
6078,-0.095,-0.275
6079,-0.095,-0.265
6080,-0.055,-0.255
6081,-0.155,-0.255
6082,-0.145,-0.255
6083,-0.125,-0.225
6084,-0.085,-0.175
6085,-0.075,-0.135
6086,-0.085,-0.095
6087,-0.085,-0.075
6088,-0.095,-0.045
6089,-0.115,-0.035
6090,-0.135,-0.015
6091,-0.125,-0.005
6092,-0.135,-0.005
6093,-0.125,-0.025
6094,-0.155,-0.015
6095,-0.135,0.015
6096,-0.125,-0.015
6097,-0.125,-0.005
6098,-0.145,-0.045
6099,-0.145,-0.035
6100,-0.115,-0.025
6101,-0.115,-0.005
6102,-0.115,-0.005
6103,-0.115,-0.045
6104,-0.135,-0.035
6105,-0.115,-0.025
6106,-0.095,-0.025
6107,-0.135,-0.045
6108,-0.135,-0.045
6109,-0.115,-0.005
6110,-0.115,-0.025
6111,-0.135,-0.045
6112,-0.115,-0.035
6113,-0.075,0.015
6114,-0.035,0.035
6115,-0.055,0.045
6116,-0.015,0.035
6117,0.045,-0.035
6118,0.015,-0.065
6119,-0.045,-0.065
6120,-0.115,-0.065
6121,-0.115,-0.035
6122,-0.115,0.005
6123,-0.115,-0.055
6124,-0.155,-0.065
6125,-0.185,-0.025
6126,-0.195,-0.025
6127,-0.185,-0.055
6128,-0.155,-0.065
6129,-0.125,-0.045
6130,-0.205,0.075
6131,-0.715,0.195
6132,-0.605,-0.005
6133,0.515,-0.475
6134,2.165,-0.275
6135,2.885,-0.055
6136,2.705,0.465
6137,1.535,-0.445
6138,0.025,-0.865
6139,-0.285,-0.305
6140,-0.245,-0.015
6141,-0.265,-0.035
6142,-0.325,-0.055
6143,-0.315,-0.045
6144,-0.345,-0.055
6145,-0.305,-0.065
6146,-0.335,-0.035
6147,-0.295,-0.095
6148,-0.245,-0.075
6149,-0.265,-0.065
6150,-0.255,-0.075
6151,-0.235,-0.115
6152,-0.175,-0.115
6153,-0.155,-0.145
6154,-0.155,-0.125
6155,-0.135,-0.145
6156,-0.125,-0.195
6157,-0.135,-0.195
6158,-0.065,-0.225
6159,-0.105,-0.255
6160,-0.135,-0.265
6161,-0.105,-0.275
6162,-0.165,-0.235
6163,-0.185,-0.255
6164,-0.185,-0.285
6165,-0.175,-0.205
6166,-0.145,-0.145
6167,-0.145,-0.125
6168,-0.125,-0.085
6169,-0.165,-0.055
6170,-0.145,0.005
6171,-0.165,-0.025
6172,-0.145,-0.035
6173,-0.155,0.005
6174,-0.165,0.025
6175,-0.155,-0.015
6176,-0.145,0.005
6177,-0.155,-0.035
6178,-0.165,-0.005
6179,-0.105,0.015
6180,-0.165,0.005
6181,-0.175,0.005
6182,-0.155,-0.015
6183,-0.145,0.005
6184,-0.135,-0.005
6185,-0.145,0.005
6186,-0.105,-0.015
6187,-0.145,-0.015
6188,-0.195,-0.025
6189,-0.135,-0.015
6190,-0.145,0.005
6191,-0.155,-0.005
6192,-0.155,-0.015
6193,-0.055,0.045
6194,-0.055,0.065
6195,-0.095,0.055
6196,-0.025,0.035
6197,0.045,-0.035
6198,-0.035,-0.005
6199,-0.075,-0.045
6200,-0.125,-0.055
6201,-0.125,-0.035
6202,-0.135,0.015
6203,-0.185,-0.015
6204,-0.165,-0.035
6205,-0.185,-0.045
6206,-0.195,-0.025
6207,-0.225,-0.035
6208,-0.245,-0.035
6209,-0.165,-0.025
6210,-0.165,-0.005
6211,-0.525,0.205
6212,-0.795,-0.005
6213,-0.165,-0.475
6214,1.525,-0.495
6215,2.675,-0.125
6216,2.805,0.555
6217,2.235,0.395
6218,0.645,-0.725
6219,-0.255,-0.595
6220,-0.245,-0.165
6221,-0.265,-0.045
6222,-0.365,-0.025
6223,-0.355,-0.055
6224,-0.355,-0.085
6225,-0.355,-0.095
6226,-0.335,-0.065
6227,-0.325,-0.075
6228,-0.285,-0.075
6229,-0.305,-0.115
6230,-0.265,-0.105
6231,-0.235,-0.115
6232,-0.245,-0.135
6233,-0.205,-0.155
6234,-0.195,-0.155
6235,-0.165,-0.155
6236,-0.165,-0.205
6237,-0.105,-0.235
6238,-0.105,-0.245
6239,-0.085,-0.245
6240,-0.115,-0.285
6241,-0.115,-0.315
6242,-0.155,-0.295
6243,-0.165,-0.295
6244,-0.145,-0.275
6245,-0.175,-0.225
6246,-0.165,-0.165
6247,-0.145,-0.145
6248,-0.135,-0.115
6249,-0.125,-0.085
6250,-0.145,-0.045
6251,-0.115,-0.015
6252,-0.185,-0.005
6253,-0.155,0.025
6254,-0.185,0.005
6255,-0.205,-0.005
6256,-0.155,-0.015
6257,-0.175,-0.005
6258,-0.205,0.025
6259,-0.135,0.025
6260,-0.095,0.015
6261,-0.145,-0.015
6262,-0.175,-0.005
6263,-0.165,-0.005
6264,-0.165,-0.005
6265,-0.145,0.015
6266,-0.145,0.035
6267,-0.165,-0.025
6268,-0.165,-0.025
6269,-0.145,-0.005
6270,-0.155,0.015
6271,-0.185,0.005
6272,-0.135,-0.005
6273,-0.135,-0.005
6274,-0.105,0.015
6275,-0.065,0.025
6276,-0.115,0.025
6277,-0.065,0.025
6278,0.025,0.005
6279,0.015,-0.055
6280,-0.055,-0.065
6281,-0.135,0.005
6282,-0.155,-0.025
6283,-0.105,-0.005
6284,-0.145,-0.025
6285,-0.165,-0.015
6286,-0.225,0.005
6287,-0.255,-0.005
6288,-0.235,-0.025
6289,-0.155,-0.025
6290,-0.205,-0.005
6291,-0.215,-0.045
6292,-0.265,0.105
6293,-0.785,0.075
6294,-0.555,-0.245
6295,0.805,-0.665
6296,2.365,-0.125
6297,2.675,0.525
6298,2.385,0.905
6299,1.135,-0.405
6300,-0.155,-0.775
6301,-0.345,-0.315
6302,-0.245,-0.065
6303,-0.305,-0.065
6304,-0.355,-0.085
6305,-0.375,-0.065
6306,-0.355,-0.105
6307,-0.375,-0.105
6308,-0.295,-0.115
6309,-0.305,-0.115
6310,-0.265,-0.115
6311,-0.255,-0.135
6312,-0.245,-0.155
6313,-0.255,-0.175
6314,-0.225,-0.145
6315,-0.215,-0.225
6316,-0.175,-0.235
6317,-0.175,-0.265
6318,-0.145,-0.265
6319,-0.145,-0.295
6320,-0.155,-0.315
6321,-0.145,-0.325
6322,-0.125,-0.325
6323,-0.165,-0.335
6324,-0.155,-0.345
6325,-0.155,-0.315
6326,-0.125,-0.275
6327,-0.125,-0.255
6328,-0.115,-0.215
6329,-0.115,-0.145
6330,-0.115,-0.085
6331,-0.105,-0.045
6332,-0.125,-0.015
6333,-0.125,0.005
6334,-0.145,0.005
6335,-0.165,0.005
6336,-0.135,-0.015
6337,-0.185,-0.015
6338,-0.205,0.035
6339,-0.155,0.015
6340,-0.175,0.015
6341,-0.145,0.005
6342,-0.125,0.025
6343,-0.145,0.005
6344,-0.135,0.015
6345,-0.185,0.025
6346,-0.135,0.005
6347,-0.175,-0.005
6348,-0.155,-0.015
6349,-0.165,0.005
6350,-0.175,0.005
6351,-0.215,0.005
6352,-0.125,-0.005
6353,-0.165,-0.015
6354,-0.225,0.005
6355,-0.065,0.045
6356,-0.055,0.065
6357,-0.085,0.045
6358,-0.015,0.035
6359,0.025,-0.035
6360,-0.065,-0.055
6361,-0.135,-0.035
6362,-0.145,-0.025
6363,-0.155,-0.015
6364,-0.145,-0.015
6365,-0.195,-0.025
6366,-0.195,-0.015
6367,-0.225,-0.045
6368,-0.275,-0.035
6369,-0.225,-0.035
6370,-0.195,-0.015
6371,-0.165,-0.005
6372,-0.445,0.175
6373,-0.875,0.075
6374,-0.335,-0.225
6375,1.275,-0.415
6376,2.665,-0.105
6377,2.845,0.315
6378,2.595,0.585
6379,0.925,-0.515
6380,-0.345,-0.695
6381,-0.345,-0.235
6382,-0.265,-0.065
6383,-0.325,-0.035
6384,-0.365,-0.045
6385,-0.385,-0.065
6386,-0.395,-0.065
6387,-0.335,-0.065
6388,-0.335,-0.065
6389,-0.335,-0.085
6390,-0.305,-0.095
6391,-0.275,-0.065
6392,-0.275,-0.105
6393,-0.295,-0.115
6394,-0.235,-0.105
6395,-0.215,-0.135
6396,-0.195,-0.145
6397,-0.175,-0.155
6398,-0.125,-0.175
6399,-0.115,-0.205
6400,-0.145,-0.215
6401,-0.125,-0.225
6402,-0.135,-0.215
6403,-0.165,-0.225
6404,-0.175,-0.235
6405,-0.205,-0.215
6406,-0.175,-0.175
6407,-0.175,-0.155
6408,-0.125,-0.115
6409,-0.115,-0.075
6410,-0.145,-0.055
6411,-0.165,-0.035
6412,-0.145,-0.025
6413,-0.135,0.005
6414,-0.185,0.015
6415,-0.225,0.005
6416,-0.165,-0.005
6417,-0.155,0.005
6418,-0.175,0.015
6419,-0.175,0.035
6420,-0.175,-0.005
6421,-0.185,-0.005
6422,-0.175,0.015
6423,-0.135,-0.005
6424,-0.225,-0.015
6425,-0.185,0.015
6426,-0.165,0.025
6427,-0.175,0.015
6428,-0.185,0.005
6429,-0.125,0.005
6430,-0.125,0.015
6431,-0.215,-0.005
6432,-0.195,0.005
6433,-0.165,0.005
6434,-0.105,0.045
6435,-0.075,0.065
6436,-0.075,0.055
6437,-0.095,0.065
6438,0.005,0.025
6439,-0.045,-0.025
6440,-0.075,-0.055
6441,-0.125,-0.005
6442,-0.155,-0.005
6443,-0.195,-0.005
6444,-0.195,-0.015
6445,-0.185,-0.025
6446,-0.215,-0.005
6447,-0.235,-0.025
6448,-0.265,-0.025
6449,-0.175,-0.025
6450,-0.175,-0.015
6451,-0.195,0.015
6452,-0.585,0.235
6453,-0.865,0.085
6454,0.005,-0.325
6455,1.735,-0.235
6456,2.755,-0.095
6457,2.745,0.505
6458,2.125,-0.085
6459,0.405,-0.855
6460,-0.275,-0.405
6461,-0.225,-0.045
6462,-0.245,0.005
6463,-0.345,-0.005
6464,-0.365,-0.035
6465,-0.355,-0.025
6466,-0.365,-0.025
6467,-0.345,-0.025
6468,-0.325,-0.035
6469,-0.285,-0.025
6470,-0.265,-0.055
6471,-0.235,-0.045
6472,-0.235,-0.055
6473,-0.235,-0.065
6474,-0.195,-0.065
6475,-0.165,-0.075
6476,-0.165,-0.105
6477,-0.125,-0.125
6478,-0.105,-0.115
6479,-0.115,-0.145
6480,-0.135,-0.195
6481,-0.115,-0.205
6482,-0.135,-0.185
