'sample interval','MLII','V1'
'0.00277778 sec','mV','mV'
0,-6.115,-5.590
1,-6.115,-5.590
2,-6.115,-5.590
3,-6.115,-5.590
4,-6.115,-5.590
5,-6.115,-5.590
6,-6.115,-5.590
7,-6.135,-5.590
8,-6.105,-5.575
9,-6.105,-5.570
10,-6.090,-5.565
11,-6.095,-5.530
12,-6.090,-5.545
13,-6.110,-5.535
14,-6.120,-5.540
15,-6.140,-5.545
16,-6.145,-5.565
17,-6.150,-5.570
18,-6.165,-5.575
19,-6.145,-5.565
20,-6.155,-5.545
21,-6.135,-5.525
22,-6.135,-5.520
23,-6.115,-5.505
24,-6.110,-5.500
25,-6.110,-5.505
26,-6.115,-5.505
27,-6.125,-5.525
28,-6.125,-5.520
29,-6.135,-5.535
30,-6.130,-5.530
31,-6.110,-5.525
32,-6.140,-5.520
33,-6.130,-5.500
34,-6.135,-5.510
35,-6.120,-5.490
36,-6.110,-5.495
37,-6.115,-5.505
38,-6.130,-5.515
39,-6.125,-5.535
40,-6.135,-5.540
41,-6.115,-5.530
42,-6.125,-5.535
43,-6.125,-5.540
44,-6.105,-5.530
45,-6.105,-5.490
46,-6.100,-5.485
47,-6.080,-5.470
48,-6.060,-5.490
49,-6.080,-5.490
50,-6.060,-5.505
51,-6.065,-5.500
52,-6.065,-5.510
53,-6.060,-5.505
54,-6.070,-5.525
55,-6.055,-5.500
56,-6.035,-5.505
57,-6.025,-5.490
58,-6.010,-5.490
59,-5.995,-5.480
60,-5.980,-5.500
61,-5.985,-5.505
62,-5.980,-5.505
63,-5.965,-5.500
64,-5.970,-5.530
65,-5.970,-5.505
66,-5.960,-5.495
67,-5.940,-5.510
68,-5.925,-5.485
69,-5.895,-5.470
70,-5.875,-5.470
71,-5.845,-5.445
72,-5.825,-5.455
73,-5.805,-5.450
74,-5.790,-5.475
75,-5.790,-5.485
76,-5.780,-5.485
77,-5.770,-5.485
78,-5.750,-5.495
79,-5.725,-5.505
80,-5.720,-5.500
81,-5.680,-5.485
82,-5.650,-5.470
83,-5.640,-5.475
84,-5.615,-5.480
85,-5.595,-5.480
86,-5.590,-5.490
87,-5.570,-5.520
88,-5.570,-5.525
89,-5.565,-5.520
90,-5.555,-5.530
91,-5.545,-5.520
92,-5.535,-5.520
93,-5.505,-5.500
94,-5.490,-5.500
95,-5.485,-5.485
96,-5.485,-5.480
97,-5.470,-5.505
98,-5.490,-5.515
99,-5.515,-5.525
100,-5.540,-5.535
101,-5.565,-5.530
102,-5.590,-5.530
103,-5.610,-5.525
104,-5.645,-5.500
105,-5.670,-5.500
106,-5.675,-5.495
107,-5.710,-5.505
108,-5.735,-5.490
109,-5.770,-5.480
110,-5.805,-5.490
111,-5.860,-5.485
112,-5.885,-5.520
113,-5.920,-5.520
114,-5.950,-5.520
115,-5.965,-5.510
116,-5.970,-5.490
117,-5.985,-5.495
118,-5.995,-5.485
119,-5.990,-5.490
120,-5.985,-5.505
121,-5.990,-5.505
122,-6.010,-5.505
123,-6.025,-5.515
124,-6.045,-5.525
125,-6.050,-5.550
126,-6.065,-5.545
127,-6.070,-5.550
128,-6.055,-5.535
129,-6.050,-5.525
130,-6.050,-5.525
131,-6.045,-5.515
132,-6.050,-5.515
133,-6.055,-5.515
134,-6.060,-5.525
135,-6.050,-5.535
136,-6.070,-5.540
137,-6.055,-5.555
138,-6.070,-5.545
139,-6.075,-5.530
140,-6.080,-5.535
141,-6.065,-5.530
142,-6.040,-5.500
143,-6.035,-5.495
144,-6.025,-5.515
145,-6.040,-5.510
146,-6.035,-5.520
147,-6.050,-5.525
148,-6.055,-5.535
149,-6.065,-5.535
150,-6.040,-5.550
151,-6.035,-5.550
152,-6.025,-5.535
153,-6.020,-5.540
154,-6.025,-5.525
155,-6.000,-5.510
156,-5.995,-5.525
157,-5.990,-5.510
158,-5.990,-5.515
159,-6.000,-5.525
160,-6.000,-5.540
161,-6.025,-5.540
162,-6.020,-5.550
163,-6.030,-5.555
164,-6.020,-5.545
165,-6.005,-5.530
166,-5.985,-5.535
167,-5.970,-5.520
168,-5.970,-5.535
169,-5.965,-5.540
170,-5.975,-5.545
171,-5.985,-5.545
172,-5.995,-5.545
173,-6.010,-5.560
174,-6.015,-5.565
175,-6.015,-5.570
176,-6.010,-5.550
177,-6.005,-5.555
178,-5.995,-5.530
179,-5.995,-5.525
180,-5.980,-5.520
181,-5.990,-5.525
182,-6.000,-5.530
183,-6.010,-5.540
184,-6.020,-5.555
185,-6.035,-5.545
186,-6.050,-5.550
187,-6.050,-5.550
188,-6.025,-5.545
189,-6.040,-5.550
190,-6.000,-5.535
191,-6.010,-5.530
192,-6.005,-5.525
193,-6.025,-5.540
194,-6.005,-5.545
195,-6.030,-5.565
196,-6.020,-5.570
197,-6.040,-5.575
198,-6.045,-5.570
199,-6.040,-5.550
200,-6.045,-5.545
201,-6.040,-5.545
202,-6.040,-5.510
203,-6.025,-5.510
204,-6.020,-5.520
205,-6.035,-5.530
206,-6.040,-5.530
207,-6.055,-5.550
208,-6.065,-5.565
209,-6.060,-5.560
210,-6.085,-5.570
211,-6.070,-5.565
212,-6.080,-5.565
213,-6.060,-5.545
214,-6.060,-5.545
215,-6.045,-5.540
216,-6.030,-5.545
217,-6.035,-5.530
218,-6.040,-5.545
219,-6.035,-5.560
220,-6.040,-5.565
221,-6.050,-5.570
222,-6.060,-5.580
223,-6.060,-5.570
224,-6.055,-5.550
225,-6.035,-5.535
226,-6.035,-5.540
227,-6.025,-5.515
228,-6.015,-5.535
229,-6.025,-5.530
230,-6.020,-5.545
231,-6.030,-5.555
232,-6.030,-5.545
233,-6.030,-5.565
234,-6.045,-5.565
235,-6.030,-5.545
236,-6.010,-5.535
237,-5.985,-5.520
238,-5.965,-5.515
239,-5.940,-5.485
240,-5.920,-5.490
241,-5.910,-5.485
242,-5.890,-5.490
243,-5.890,-5.490
244,-5.875,-5.490
245,-5.865,-5.460
246,-5.840,-5.475
247,-5.795,-5.460
248,-5.760,-5.465
249,-5.725,-5.445
250,-5.700,-5.470
251,-5.670,-5.465
252,-5.680,-5.510
253,-5.695,-5.530
254,-5.730,-5.570
255,-5.725,-5.585
256,-5.745,-5.590
257,-5.775,-5.585
258,-5.785,-5.600
259,-5.825,-5.600
260,-5.865,-5.600
261,-5.900,-5.600
262,-5.970,-5.575
263,-5.995,-5.575
264,-6.030,-5.575
265,-6.030,-5.560
266,-6.045,-5.575
267,-6.055,-5.590
268,-6.070,-5.585
269,-6.065,-5.595
270,-6.070,-5.610
271,-6.075,-5.600
272,-6.080,-5.600
273,-6.080,-5.595
274,-6.065,-5.585
275,-6.055,-5.570
276,-6.060,-5.595
277,-6.065,-5.580
278,-6.070,-5.590
279,-6.075,-5.615
280,-6.085,-5.600
281,-6.100,-5.610
282,-6.090,-5.625
283,-6.095,-5.620
284,-6.095,-5.625
285,-6.070,-5.610
286,-6.075,-5.605
287,-6.065,-5.585
288,-6.050,-5.570
289,-6.065,-5.580
290,-6.090,-5.590
291,-6.075,-5.580
292,-6.070,-5.595
293,-6.075,-5.605
294,-6.085,-5.595
295,-6.095,-5.590
296,-6.110,-5.575
297,-6.125,-5.545
298,-6.120,-5.520
299,-6.090,-5.455
300,-6.010,-5.395
301,-5.875,-5.365
302,-5.690,-5.345
303,-5.455,-5.380
304,-5.160,-5.475
305,-4.800,-5.620
306,-4.455,-5.795
307,-4.175,-6.025
308,-4.005,-6.245
309,-3.915,-6.455
310,-3.945,-6.595
311,-4.080,-6.650
312,-4.300,-6.665
313,-4.670,-6.625
314,-5.150,-6.565
315,-5.655,-6.505
316,-6.025,-6.410
317,-6.205,-6.315
318,-6.190,-6.210
319,-6.085,-6.110
320,-5.950,-6.010
321,-5.855,-5.910
322,-5.810,-5.840
323,-5.830,-5.770
324,-5.875,-5.715
325,-5.945,-5.680
326,-6.000,-5.630
327,-6.040,-5.615
328,-6.075,-5.615
329,-6.075,-5.610
330,-6.085,-5.605
331,-6.075,-5.590
332,-6.060,-5.575
333,-6.055,-5.565
334,-6.065,-5.540
335,-6.050,-5.525
336,-6.080,-5.520
337,-6.065,-5.515
338,-6.085,-5.520
339,-6.090,-5.520
340,-6.090,-5.530
341,-6.100,-5.530
342,-6.100,-5.545
343,-6.105,-5.525
344,-6.100,-5.525
345,-6.100,-5.525
346,-6.090,-5.505
347,-6.085,-5.505
348,-6.095,-5.510
349,-6.090,-5.505
350,-6.100,-5.510
351,-6.095,-5.515
352,-6.105,-5.525
353,-6.120,-5.520
354,-6.135,-5.530
355,-6.110,-5.530
356,-6.090,-5.510
357,-6.090,-5.500
358,-6.080,-5.490
359,-6.080,-5.470
360,-6.060,-5.475
361,-6.070,-5.470
362,-6.070,-5.475
363,-6.095,-5.485
364,-6.090,-5.500
365,-6.085,-5.500
366,-6.070,-5.520
367,-6.080,-5.510
368,-6.075,-5.510
369,-6.050,-5.505
370,-6.055,-5.480
371,-6.035,-5.475
372,-6.025,-5.485
373,-6.025,-5.495
374,-6.020,-5.505
375,-6.030,-5.515
376,-6.030,-5.515
377,-6.040,-5.530
378,-6.020,-5.515
379,-6.015,-5.525
380,-6.005,-5.495
381,-6.005,-5.480
382,-5.985,-5.480
383,-5.955,-5.455
384,-5.945,-5.455
385,-5.940,-5.465
386,-5.930,-5.480
387,-5.935,-5.475
388,-5.925,-5.475
389,-5.930,-5.480
390,-5.920,-5.470
391,-5.900,-5.465
392,-5.895,-5.440
393,-5.865,-5.465
394,-5.845,-5.445
395,-5.805,-5.440
396,-5.785,-5.435
397,-5.770,-5.445
398,-5.770,-5.450
399,-5.770,-5.455
400,-5.770,-5.445
401,-5.730,-5.455
402,-5.710,-5.475
403,-5.675,-5.460
404,-5.655,-5.440
405,-5.620,-5.445
406,-5.605,-5.435
407,-5.575,-5.430
408,-5.550,-5.440
409,-5.525,-5.425
410,-5.525,-5.460
411,-5.515,-5.465
412,-5.515,-5.475
413,-5.505,-5.485
414,-5.495,-5.485
415,-5.490,-5.500
416,-5.480,-5.490
417,-5.460,-5.480
418,-5.455,-5.480
419,-5.425,-5.465
420,-5.430,-5.485
421,-5.465,-5.490
422,-5.485,-5.485
423,-5.500,-5.490
424,-5.525,-5.495
425,-5.545,-5.500
426,-5.575,-5.495
427,-5.605,-5.480
428,-5.635,-5.485
429,-5.655,-5.470
430,-5.665,-5.450
431,-5.700,-5.460
432,-5.705,-5.445
433,-5.745,-5.445
434,-5.765,-5.470
435,-5.805,-5.475
436,-5.840,-5.495
437,-5.855,-5.500
438,-5.885,-5.505
439,-5.905,-5.495
440,-5.920,-5.500
441,-5.925,-5.490
442,-5.925,-5.490
443,-5.925,-5.495
444,-5.950,-5.500
445,-5.945,-5.495
446,-5.960,-5.505
447,-5.990,-5.520
448,-5.995,-5.515
449,-6.010,-5.510
450,-6.015,-5.535
451,-6.010,-5.515
452,-6.030,-5.515
453,-6.020,-5.510
454,-6.020,-5.515
455,-6.025,-5.505
456,-6.010,-5.495
457,-6.030,-5.505
458,-6.020,-5.505
459,-6.030,-5.525
460,-6.035,-5.535
461,-6.035,-5.525
462,-6.050,-5.535
463,-6.045,-5.550
464,-6.030,-5.525
465,-6.015,-5.520
466,-6.010,-5.515
467,-5.990,-5.495
468,-5.985,-5.500
469,-5.990,-5.510
470,-5.995,-5.520
471,-6.005,-5.515
472,-6.010,-5.530
473,-6.010,-5.525
474,-5.990,-5.535
475,-5.975,-5.515
476,-5.985,-5.500
477,-5.970,-5.490
478,-5.975,-5.470
479,-5.975,-5.470
480,-5.970,-5.465
481,-5.975,-5.455
482,-5.970,-5.445
483,-5.980,-5.435
484,-5.970,-5.415
485,-5.950,-5.400
486,-5.890,-5.350
487,-5.805,-5.315
488,-5.670,-5.295
489,-5.530,-5.320
490,-5.365,-5.395
491,-5.220,-5.530
492,-5.045,-5.680
493,-4.885,-5.830
494,-4.675,-6.000
495,-4.490,-6.165
496,-4.285,-6.340
497,-4.060,-6.565
498,-3.860,-6.790
499,-3.680,-6.990
500,-3.510,-7.185
501,-3.385,-7.310
502,-3.295,-7.365
503,-3.235,-7.405
504,-3.210,-7.415
505,-3.215,-7.430
506,-3.245,-7.425
507,-3.295,-7.425
508,-3.360,-7.425
509,-3.445,-7.405
510,-3.545,-7.345
511,-3.590,-7.270
512,-3.610,-7.155
513,-3.570,-7.060
514,-3.560,-6.965
515,-3.580,-6.865
516,-3.585,-6.785
517,-3.675,-6.695
518,-3.785,-6.595
519,-3.920,-6.530
520,-4.055,-6.465
521,-4.230,-6.405
522,-4.410,-6.320
523,-4.640,-6.245
524,-4.940,-6.150
525,-5.295,-6.055
526,-5.640,-5.980
527,-5.930,-5.875
528,-6.095,-5.750
529,-6.165,-5.650
530,-6.185,-5.560
531,-6.170,-5.495
532,-6.170,-5.470
533,-6.185,-5.480
534,-6.230,-5.470
535,-6.275,-5.465
536,-6.340,-5.430
537,-6.365,-5.410
538,-6.390,-5.365
539,-6.390,-5.345
540,-6.400,-5.305
541,-6.420,-5.295
542,-6.440,-5.310
543,-6.450,-5.290
544,-6.485,-5.310
545,-6.490,-5.305
546,-6.510,-5.295
547,-6.535,-5.295
548,-6.525,-5.275
549,-6.545,-5.265
550,-6.545,-5.230
551,-6.565,-5.215
552,-6.555,-5.220
553,-6.565,-5.220
554,-6.600,-5.205
555,-6.610,-5.220
556,-6.625,-5.215
557,-6.660,-5.205
558,-6.655,-5.200
559,-6.675,-5.185
560,-6.665,-5.175
561,-6.685,-5.140
562,-6.685,-5.130
563,-6.690,-5.090
564,-6.690,-5.080
565,-6.695,-5.055
566,-6.705,-5.050
567,-6.705,-5.035
568,-6.710,-5.025
569,-6.720,-5.025
570,-6.735,-5.015
571,-6.740,-4.970
572,-6.750,-4.945
573,-6.750,-4.915
574,-6.765,-4.900
575,-6.735,-4.865
576,-6.730,-4.830
577,-6.740,-4.825
578,-6.735,-4.810
579,-6.730,-4.825
580,-6.725,-4.820
581,-6.750,-4.825
582,-6.760,-4.835
583,-6.795,-4.820
584,-6.820,-4.815
585,-6.845,-4.810
586,-6.865,-4.790
587,-6.875,-4.765
588,-6.900,-4.730
589,-6.935,-4.695
590,-7.005,-4.675
591,-7.040,-4.695
592,-7.105,-4.670
593,-7.175,-4.675
594,-7.240,-4.655
595,-7.300,-4.620
596,-7.345,-4.605
597,-7.370,-4.590
598,-7.390,-4.545
599,-7.415,-4.555
600,-7.420,-4.540
601,-7.425,-4.565
602,-7.430,-4.590
603,-7.435,-4.605
604,-7.425,-4.620
605,-7.415,-4.635
606,-7.405,-4.645
607,-7.405,-4.665
608,-7.370,-4.675
609,-7.340,-4.685
610,-7.300,-4.715
611,-7.265,-4.720
612,-7.245,-4.770
613,-7.215,-4.795
614,-7.170,-4.835
615,-7.135,-4.880
616,-7.115,-4.915
617,-7.060,-4.965
618,-7.000,-5.005
619,-6.945,-5.050
620,-6.890,-5.070
621,-6.820,-5.090
622,-6.750,-5.130
623,-6.695,-5.150
624,-6.635,-5.195
625,-6.605,-5.225
626,-6.570,-5.260
627,-6.540,-5.290
628,-6.520,-5.340
629,-6.490,-5.350
630,-6.450,-5.380
631,-6.430,-5.395
632,-6.405,-5.415
633,-6.375,-5.400
634,-6.350,-5.415
635,-6.350,-5.410
636,-6.315,-5.420
637,-6.315,-5.425
638,-6.315,-5.435
639,-6.330,-5.440
640,-6.340,-5.470
641,-6.355,-5.475
642,-6.350,-5.490
643,-6.340,-5.480
644,-6.345,-5.475
645,-6.335,-5.465
646,-6.330,-5.465
647,-6.295,-5.440
648,-6.300,-5.440
649,-6.305,-5.450
650,-6.330,-5.435
651,-6.310,-5.455
652,-6.320,-5.460
653,-6.325,-5.465
654,-6.330,-5.465
655,-6.330,-5.475
656,-6.330,-5.460
657,-6.325,-5.460
658,-6.305,-5.445
659,-6.315,-5.435
660,-6.280,-5.430
661,-6.295,-5.435
662,-6.285,-5.440
663,-6.290,-5.445
664,-6.290,-5.450
665,-6.295,-5.475
666,-6.295,-5.480
667,-6.285,-5.475
668,-6.295,-5.465
669,-6.275,-5.455
670,-6.265,-5.455
671,-6.280,-5.440
672,-6.270,-5.425
673,-6.260,-5.435
674,-6.275,-5.450
675,-6.275,-5.455
676,-6.270,-5.445
677,-6.260,-5.475
678,-6.265,-5.455
679,-6.275,-5.475
680,-6.280,-5.460
681,-6.255,-5.445
682,-6.255,-5.445
683,-6.240,-5.435
684,-6.245,-5.440
685,-6.250,-5.450
686,-6.245,-5.445
687,-6.250,-5.480
688,-6.255,-5.485
689,-6.265,-5.485
690,-6.270,-5.480
691,-6.265,-5.495
692,-6.255,-5.490
693,-6.245,-5.470
694,-6.240,-5.465
695,-6.220,-5.450
696,-6.215,-5.455
697,-6.220,-5.460
698,-6.220,-5.470
699,-6.230,-5.480
700,-6.240,-5.475
701,-6.255,-5.505
702,-6.255,-5.505
703,-6.255,-5.515
704,-6.245,-5.505
705,-6.245,-5.495
706,-6.215,-5.495
707,-6.230,-5.475
708,-6.215,-5.485
709,-6.240,-5.500
710,-6.260,-5.505
711,-6.235,-5.510
712,-6.250,-5.510
713,-6.220,-5.520
714,-6.240,-5.525
715,-6.250,-5.525
716,-6.250,-5.510
717,-6.240,-5.505
718,-6.230,-5.500
719,-6.220,-5.495
720,-6.210,-5.500
721,-6.220,-5.490
722,-6.215,-5.500
723,-6.215,-5.515
724,-6.220,-5.515
725,-6.245,-5.540
726,-6.240,-5.525
727,-6.250,-5.535
728,-6.235,-5.530
729,-6.225,-5.520
730,-6.220,-5.520
731,-6.205,-5.510
732,-6.195,-5.510
733,-6.205,-5.540
734,-6.210,-5.520
735,-6.205,-5.535
736,-6.210,-5.555
737,-6.220,-5.545
738,-6.210,-5.545
739,-6.215,-5.545
740,-6.220,-5.520
741,-6.200,-5.525
742,-6.200,-5.520
743,-6.205,-5.520
744,-6.190,-5.510
745,-6.200,-5.510
746,-6.205,-5.535
747,-6.195,-5.540
748,-6.190,-5.525
749,-6.200,-5.545
750,-6.210,-5.550
751,-6.205,-5.555
752,-6.200,-5.545
753,-6.195,-5.545
754,-6.190,-5.530
755,-6.185,-5.525
756,-6.175,-5.535
757,-6.170,-5.525
758,-6.170,-5.535
759,-6.180,-5.540
760,-6.185,-5.540
761,-6.195,-5.550
762,-6.205,-5.550
763,-6.205,-5.550
764,-6.195,-5.550
765,-6.200,-5.530
766,-6.195,-5.520
767,-6.195,-5.510
768,-6.180,-5.510
769,-6.180,-5.520
770,-6.170,-5.520
771,-6.175,-5.535
772,-6.180,-5.540
773,-6.190,-5.555
774,-6.195,-5.560
775,-6.185,-5.570
776,-6.190,-5.555
777,-6.190,-5.560
778,-6.175,-5.540
779,-6.170,-5.530
780,-6.170,-5.550
781,-6.165,-5.530
782,-6.175,-5.530
783,-6.175,-5.545
784,-6.180,-5.550
785,-6.180,-5.545
786,-6.185,-5.570
787,-6.190,-5.550
788,-6.190,-5.565
789,-6.195,-5.540
790,-6.185,-5.540
791,-6.170,-5.530
792,-6.160,-5.540
793,-6.160,-5.540
794,-6.165,-5.550
795,-6.170,-5.565
796,-6.175,-5.570
797,-6.190,-5.595
798,-6.180,-5.580
799,-6.200,-5.585
800,-6.200,-5.590
801,-6.190,-5.585
802,-6.185,-5.550
803,-6.175,-5.545
804,-6.155,-5.545
805,-6.160,-5.540
806,-6.165,-5.550
807,-6.155,-5.545
808,-6.170,-5.575
809,-6.175,-5.590
810,-6.180,-5.595
811,-6.175,-5.590
812,-6.185,-5.585
813,-6.170,-5.575
814,-6.185,-5.570
815,-6.175,-5.580
816,-6.155,-5.555
817,-6.165,-5.560
818,-6.165,-5.560
819,-6.155,-5.580
820,-6.160,-5.580
821,-6.160,-5.605
822,-6.165,-5.615
823,-6.165,-5.610
824,-6.160,-5.585
825,-6.165,-5.570
826,-6.145,-5.550
827,-6.130,-5.545
828,-6.125,-5.535
829,-6.140,-5.550
830,-6.135,-5.530
831,-6.145,-5.560
832,-6.150,-5.575
833,-6.170,-5.590
834,-6.175,-5.585
835,-6.185,-5.575
836,-6.165,-5.565
837,-6.140,-5.570
838,-6.155,-5.555
839,-6.145,-5.540
840,-6.135,-5.550
841,-6.150,-5.570
842,-6.125,-5.550
843,-6.140,-5.570
844,-6.145,-5.570
845,-6.150,-5.595
846,-6.150,-5.590
847,-6.160,-5.585
848,-6.155,-5.555
849,-6.155,-5.565
850,-6.135,-5.555
851,-6.150,-5.525
852,-6.120,-5.535
853,-6.115,-5.540
854,-6.115,-5.540
855,-6.125,-5.565
856,-6.130,-5.565
857,-6.155,-5.575
858,-6.160,-5.570
859,-6.165,-5.590
860,-6.155,-5.570
861,-6.150,-5.575
862,-6.130,-5.565
863,-6.135,-5.545
864,-6.120,-5.545
865,-6.120,-5.560
866,-6.125,-5.555
867,-6.130,-5.565
868,-6.140,-5.570
869,-6.140,-5.575
870,-6.155,-5.590
871,-6.170,-5.585
872,-6.165,-5.570
873,-6.170,-5.560
874,-6.165,-5.550
875,-6.150,-5.550
876,-6.130,-5.530
877,-6.120,-5.535
878,-6.130,-5.545
879,-6.130,-5.560
880,-6.135,-5.575
881,-6.145,-5.580
882,-6.165,-5.590
883,-6.165,-5.580
884,-6.160,-5.580
885,-6.140,-5.570
886,-6.135,-5.560
887,-6.135,-5.560
888,-6.130,-5.570
889,-6.130,-5.550
890,-6.120,-5.565
891,-6.115,-5.570
892,-6.130,-5.570
893,-6.135,-5.570
894,-6.140,-5.580
895,-6.145,-5.565
896,-6.140,-5.575
897,-6.135,-5.550
898,-6.130,-5.560
899,-6.105,-5.540
900,-6.100,-5.545
901,-6.105,-5.535
902,-6.110,-5.545
903,-6.115,-5.570
904,-6.135,-5.560
905,-6.135,-5.570
906,-6.140,-5.590
907,-6.130,-5.585
908,-6.135,-5.565
909,-6.110,-5.580
910,-6.105,-5.560
911,-6.090,-5.560
912,-6.070,-5.555
913,-6.050,-5.545
914,-6.050,-5.535
915,-6.035,-5.540
916,-6.025,-5.540
917,-6.015,-5.520
918,-5.995,-5.515
919,-5.980,-5.510
920,-5.985,-5.485
921,-5.950,-5.470
922,-5.925,-5.475
923,-5.900,-5.450
924,-5.860,-5.450
925,-5.820,-5.460
926,-5.785,-5.465
927,-5.750,-5.495
928,-5.745,-5.530
929,-5.775,-5.550
930,-5.795,-5.585
931,-5.825,-5.610
932,-5.820,-5.585
933,-5.805,-5.605
934,-5.810,-5.605
935,-5.825,-5.580
936,-5.840,-5.580
937,-5.890,-5.590
938,-5.940,-5.580
939,-6.005,-5.580
940,-6.075,-5.600
941,-6.115,-5.600
942,-6.140,-5.605
943,-6.135,-5.615
944,-6.140,-5.610
945,-6.140,-5.605
946,-6.135,-5.605
947,-6.105,-5.605
948,-6.100,-5.610
949,-6.120,-5.595
950,-6.115,-5.600
951,-6.140,-5.615
952,-6.155,-5.615
953,-6.150,-5.645
954,-6.155,-5.650
955,-6.150,-5.645
956,-6.150,-5.640
957,-6.155,-5.625
958,-6.130,-5.620
959,-6.120,-5.600
960,-6.110,-5.585
961,-6.115,-5.585
962,-6.115,-5.600
963,-6.135,-5.615
964,-6.145,-5.620
965,-6.180,-5.625
966,-6.210,-5.605
967,-6.200,-5.580
968,-6.165,-5.540
969,-6.085,-5.470
970,-5.920,-5.410
971,-5.695,-5.390
972,-5.390,-5.420
973,-5.035,-5.495
974,-4.665,-5.645
975,-4.340,-5.845
976,-4.090,-6.090
977,-3.975,-6.320
978,-3.980,-6.500
979,-4.130,-6.580
980,-4.435,-6.605
981,-4.880,-6.550
982,-5.420,-6.495
983,-5.875,-6.385
984,-6.160,-6.290
985,-6.235,-6.190
986,-6.155,-6.095
987,-6.040,-6.020
988,-5.935,-5.930
989,-5.890,-5.885
990,-5.910,-5.830
991,-5.990,-5.755
992,-6.035,-5.710
993,-6.100,-5.655
994,-6.120,-5.635
995,-6.125,-5.610
996,-6.125,-5.605
997,-6.125,-5.600
998,-6.135,-5.585
999,-6.140,-5.605
1000,-6.160,-5.610
1001,-6.150,-5.595
1002,-6.160,-5.575
1003,-6.180,-5.565
1004,-6.165,-5.545
1005,-6.175,-5.530
1006,-6.165,-5.535
1007,-6.170,-5.520
1008,-6.165,-5.530
1009,-6.150,-5.535
1010,-6.145,-5.545
1011,-6.165,-5.550
1012,-6.175,-5.565
1013,-6.185,-5.555
1014,-6.190,-5.565
1015,-6.180,-5.560
1016,-6.175,-5.540
1017,-6.175,-5.540
1018,-6.170,-5.535
1019,-6.165,-5.530
1020,-6.145,-5.540
1021,-6.165,-5.530
1022,-6.185,-5.550
1023,-6.185,-5.545
1024,-6.180,-5.555
1025,-6.190,-5.555
1026,-6.200,-5.530
1027,-6.190,-5.545
1028,-6.180,-5.530
1029,-6.180,-5.525
1030,-6.175,-5.520
1031,-6.155,-5.515
1032,-6.145,-5.515
1033,-6.150,-5.505
1034,-6.145,-5.535
1035,-6.160,-5.545
1036,-6.155,-5.545
1037,-6.165,-5.545
1038,-6.160,-5.540
1039,-6.145,-5.550
1040,-6.145,-5.540
1041,-6.125,-5.530
1042,-6.130,-5.530
1043,-6.115,-5.510
1044,-6.110,-5.515
1045,-6.105,-5.505
1046,-6.095,-5.525
1047,-6.105,-5.525
1048,-6.105,-5.520
1049,-6.105,-5.520
1050,-6.110,-5.520
1051,-6.090,-5.520
1052,-6.080,-5.500
1053,-6.070,-5.495
1054,-6.035,-5.485
1055,-6.030,-5.470
1056,-6.030,-5.470
1057,-6.005,-5.470
1058,-6.005,-5.480
1059,-6.005,-5.470
1060,-5.995,-5.475
1061,-5.985,-5.480
1062,-5.980,-5.485
1063,-5.970,-5.490
1064,-5.955,-5.475
1065,-5.915,-5.455
1066,-5.905,-5.435
1067,-5.885,-5.440
1068,-5.865,-5.430
1069,-5.840,-5.425
1070,-5.830,-5.435
1071,-5.815,-5.455
1072,-5.810,-5.440
1073,-5.795,-5.475
1074,-5.780,-5.445
1075,-5.770,-5.455
1076,-5.740,-5.465
1077,-5.740,-5.435
1078,-5.695,-5.445
1079,-5.665,-5.435
1080,-5.665,-5.450
1081,-5.655,-5.450
1082,-5.640,-5.465
1083,-5.635,-5.500
1084,-5.630,-5.500
1085,-5.625,-5.510
1086,-5.615,-5.510
1087,-5.605,-5.510
1088,-5.590,-5.515
1089,-5.580,-5.510
1090,-5.575,-5.505
1091,-5.570,-5.490
1092,-5.580,-5.495
1093,-5.600,-5.520
1094,-5.620,-5.530
1095,-5.645,-5.525
1096,-5.670,-5.560
1097,-5.690,-5.560
1098,-5.715,-5.555
1099,-5.735,-5.540
1100,-5.750,-5.535
1101,-5.770,-5.525
1102,-5.795,-5.530
1103,-5.815,-5.520
1104,-5.820,-5.525
1105,-5.860,-5.545
1106,-5.885,-5.545
1107,-5.900,-5.550
1108,-5.930,-5.565
1109,-5.930,-5.565
1110,-5.955,-5.550
1111,-5.960,-5.545
1112,-5.970,-5.540
1113,-5.970,-5.540
1114,-5.960,-5.530
1115,-5.955,-5.530
1116,-5.960,-5.540
1117,-5.970,-5.535
1118,-5.975,-5.545
1119,-5.995,-5.550
1120,-6.015,-5.580
1121,-6.030,-5.570
1122,-6.035,-5.585
1123,-6.035,-5.585
1124,-6.025,-5.565
1125,-6.010,-5.555
1126,-5.990,-5.555
1127,-6.000,-5.550
1128,-6.000,-5.555
1129,-5.995,-5.555
1130,-6.005,-5.555
1131,-6.010,-5.565
1132,-6.000,-5.565
1133,-6.015,-5.575
1134,-6.020,-5.570
1135,-6.015,-5.565
1136,-6.005,-5.560
1137,-5.990,-5.560
1138,-5.980,-5.570
1139,-5.970,-5.545
1140,-5.960,-5.560
1141,-5.970,-5.565
1142,-5.985,-5.585
1143,-5.970,-5.580
1144,-5.980,-5.610
1145,-5.975,-5.605
1146,-5.980,-5.605
1147,-5.980,-5.600
1148,-5.990,-5.590
1149,-5.970,-5.580
1150,-5.975,-5.580
1151,-5.965,-5.565
1152,-5.960,-5.570
1153,-5.985,-5.560
1154,-5.980,-5.575
1155,-5.975,-5.580
1156,-5.970,-5.595
1157,-5.975,-5.590
1158,-5.995,-5.590
1159,-5.995,-5.595
1160,-5.995,-5.590
1161,-5.980,-5.575
1162,-5.965,-5.550
1163,-5.960,-5.560
1164,-5.955,-5.550
1165,-5.975,-5.570
1166,-5.985,-5.590
1167,-5.995,-5.605
1168,-6.010,-5.600
1169,-6.020,-5.610
1170,-6.010,-5.605
1171,-6.015,-5.610
1172,-6.010,-5.585
1173,-6.020,-5.570
1174,-6.015,-5.560
1175,-6.000,-5.560
1176,-5.980,-5.560
1177,-6.005,-5.555
1178,-6.005,-5.585
1179,-6.020,-5.580
1180,-6.025,-5.595
1181,-6.040,-5.605
1182,-6.045,-5.605
1183,-6.045,-5.595
1184,-6.030,-5.585
1185,-6.045,-5.575
1186,-6.050,-5.565
1187,-6.040,-5.555
1188,-6.050,-5.570
1189,-6.030,-5.580
1190,-6.050,-5.600
1191,-6.040,-5.610
1192,-6.065,-5.595
1193,-6.075,-5.610
1194,-6.065,-5.610
1195,-6.075,-5.605
1196,-6.070,-5.610
1197,-6.070,-5.590
1198,-6.060,-5.580
1199,-6.040,-5.585
1200,-6.035,-5.585
1201,-6.045,-5.575
1202,-6.060,-5.595
1203,-6.065,-5.610
1204,-6.075,-5.625
1205,-6.080,-5.630
1206,-6.070,-5.635
1207,-6.075,-5.630
1208,-6.075,-5.620
1209,-6.065,-5.610
1210,-6.075,-5.605
1211,-6.070,-5.595
1212,-6.060,-5.600
1213,-6.055,-5.630
1214,-6.060,-5.630
1215,-6.070,-5.635
1216,-6.080,-5.650
1217,-6.080,-5.645
1218,-6.085,-5.635
1219,-6.080,-5.630
1220,-6.085,-5.605
1221,-6.065,-5.600
1222,-6.035,-5.600
1223,-6.050,-5.595
1224,-6.055,-5.595
1225,-6.065,-5.605
1226,-6.050,-5.615
1227,-6.075,-5.635
1228,-6.065,-5.625
1229,-6.065,-5.630
1230,-6.075,-5.625
1231,-6.055,-5.640
1232,-6.070,-5.620
1233,-6.065,-5.610
1234,-6.055,-5.625
1235,-6.045,-5.600
1236,-6.040,-5.615
1237,-6.040,-5.605
1238,-6.030,-5.615
1239,-6.035,-5.615
1240,-6.040,-5.620
1241,-6.035,-5.625
1242,-6.025,-5.620
1243,-6.010,-5.590
1244,-5.970,-5.565
1245,-5.950,-5.560
1246,-5.930,-5.550
1247,-5.910,-5.535
1248,-5.890,-5.540
1249,-5.885,-5.510
1250,-5.880,-5.520
1251,-5.855,-5.520
1252,-5.845,-5.525
1253,-5.830,-5.520
1254,-5.790,-5.520
1255,-5.755,-5.530
1256,-5.720,-5.535
1257,-5.705,-5.545
1258,-5.700,-5.565
1259,-5.710,-5.565
1260,-5.715,-5.580
1261,-5.730,-5.610
1262,-5.735,-5.640
1263,-5.735,-5.635
1264,-5.740,-5.655
1265,-5.770,-5.645
1266,-5.805,-5.645
1267,-5.850,-5.655
1268,-5.885,-5.655
1269,-5.935,-5.650
1270,-5.985,-5.640
1271,-6.015,-5.635
1272,-6.040,-5.620
1273,-6.060,-5.625
1274,-6.065,-5.640
1275,-6.080,-5.660
1276,-6.080,-5.670
1277,-6.085,-5.675
1278,-6.090,-5.680
1279,-6.095,-5.680
1280,-6.085,-5.655
1281,-6.080,-5.650
1282,-6.070,-5.635
1283,-6.080,-5.640
1284,-6.080,-5.640
1285,-6.080,-5.640
1286,-6.080,-5.640
1287,-6.085,-5.640
1288,-6.090,-5.655
1289,-6.090,-5.660
1290,-6.100,-5.655
1291,-6.090,-5.660
1292,-6.090,-5.650
1293,-6.090,-5.655
1294,-6.070,-5.645
1295,-6.050,-5.640
1296,-6.065,-5.645
1297,-6.045,-5.645
1298,-6.050,-5.645
1299,-6.065,-5.650
1300,-6.065,-5.660
1301,-6.100,-5.670
1302,-6.140,-5.660
1303,-6.160,-5.620
1304,-6.135,-5.560
1305,-6.080,-5.485
1306,-5.980,-5.460
1307,-5.815,-5.395
1308,-5.600,-5.395
1309,-5.345,-5.440
1310,-5.030,-5.535
1311,-4.725,-5.670
1312,-4.405,-5.840
1313,-4.165,-6.050
1314,-4.005,-6.250
1315,-3.950,-6.465
1316,-3.955,-6.600
1317,-4.025,-6.675
1318,-4.195,-6.685
1319,-4.480,-6.660
1320,-4.890,-6.615
1321,-5.385,-6.565
1322,-5.825,-6.500
1323,-6.130,-6.445
1324,-6.205,-6.365
1325,-6.170,-6.255
1326,-6.020,-6.155
1327,-5.890,-6.080
1328,-5.830,-6.005
1329,-5.820,-5.915
1330,-5.840,-5.840
1331,-5.890,-5.770
1332,-5.965,-5.725
1333,-6.025,-5.680
1334,-6.035,-5.655
1335,-6.045,-5.650
1336,-6.055,-5.640
1337,-6.065,-5.640
1338,-6.065,-5.635
1339,-6.060,-5.640
1340,-6.060,-5.615
1341,-6.055,-5.590
1342,-6.055,-5.590
1343,-6.045,-5.580
1344,-6.055,-5.565
1345,-6.065,-5.585
1346,-6.070,-5.600
1347,-6.075,-5.590
1348,-6.085,-5.595
1349,-6.095,-5.600
1350,-6.120,-5.610
1351,-6.105,-5.600
1352,-6.100,-5.575
1353,-6.105,-5.570
1354,-6.090,-5.565
1355,-6.085,-5.540
1356,-6.085,-5.540
1357,-6.095,-5.545
1358,-6.100,-5.555
1359,-6.090,-5.560
1360,-6.090,-5.580
1361,-6.100,-5.575
1362,-6.110,-5.575
1363,-6.085,-5.565
1364,-6.090,-5.565
1365,-6.080,-5.560
1366,-6.065,-5.555
1367,-6.060,-5.540
1368,-6.060,-5.555
1369,-6.065,-5.545
1370,-6.065,-5.555
1371,-6.070,-5.560
1372,-6.080,-5.585
1373,-6.080,-5.580
1374,-6.080,-5.590
1375,-6.070,-5.575
1376,-6.065,-5.580
1377,-6.065,-5.560
1378,-6.050,-5.555
1379,-6.030,-5.530
1380,-6.030,-5.530
1381,-6.030,-5.525
1382,-6.045,-5.530
1383,-6.030,-5.565
1384,-6.040,-5.575
1385,-6.055,-5.560
1386,-6.040,-5.555
1387,-6.035,-5.550
1388,-6.025,-5.565
1389,-6.000,-5.545
1390,-5.990,-5.525
1391,-5.980,-5.515
1392,-5.970,-5.525
1393,-5.985,-5.530
1394,-5.975,-5.530
1395,-5.955,-5.555
1396,-5.960,-5.565
1397,-5.945,-5.545
1398,-5.930,-5.545
1399,-5.935,-5.540
1400,-5.900,-5.530
1401,-5.905,-5.505
1402,-5.875,-5.505
1403,-5.855,-5.485
1404,-5.830,-5.490
1405,-5.830,-5.495
1406,-5.825,-5.510
1407,-5.795,-5.510
1408,-5.790,-5.530
1409,-5.770,-5.520
1410,-5.765,-5.540
1411,-5.745,-5.505
1412,-5.725,-5.510
1413,-5.710,-5.495
1414,-5.685,-5.490
1415,-5.655,-5.485
1416,-5.630,-5.480
1417,-5.620,-5.510
1418,-5.605,-5.510
1419,-5.605,-5.535
1420,-5.595,-5.530
1421,-5.590,-5.545
1422,-5.595,-5.560
1423,-5.560,-5.550
1424,-5.545,-5.505
1425,-5.520,-5.510
1426,-5.510,-5.500
1427,-5.485,-5.505
1428,-5.485,-5.515
1429,-5.475,-5.520
1430,-5.470,-5.520
1431,-5.470,-5.555
1432,-5.480,-5.560
1433,-5.490,-5.560
1434,-5.510,-5.565
1435,-5.515,-5.565
1436,-5.530,-5.550
1437,-5.545,-5.545
1438,-5.560,-5.535
1439,-5.570,-5.520
1440,-5.610,-5.540
1441,-5.630,-5.530
1442,-5.670,-5.545
1443,-5.715,-5.555
1444,-5.740,-5.565
1445,-5.775,-5.570
1446,-5.800,-5.585
1447,-5.820,-5.570
1448,-5.835,-5.560
1449,-5.865,-5.545
1450,-5.865,-5.530
1451,-5.885,-5.515
1452,-5.895,-5.540
1453,-5.910,-5.545
1454,-5.920,-5.570
1455,-5.950,-5.565
1456,-5.960,-5.580
1457,-5.970,-5.580
1458,-5.990,-5.605
1459,-6.000,-5.605
1460,-6.010,-5.595
1461,-6.015,-5.585
1462,-6.010,-5.575
1463,-5.990,-5.570
1464,-5.995,-5.580
1465,-6.010,-5.590
1466,-6.005,-5.600
1467,-6.005,-5.595
1468,-6.030,-5.600
1469,-6.040,-5.605
1470,-6.035,-5.600
1471,-6.045,-5.585
1472,-6.040,-5.565
1473,-6.030,-5.565
1474,-6.030,-5.535
1475,-6.020,-5.560
1476,-6.020,-5.560
1477,-6.020,-5.570
1478,-6.035,-5.565
1479,-6.040,-5.585
1480,-6.045,-5.590
1481,-6.050,-5.580
1482,-6.045,-5.590
1483,-6.045,-5.605
1484,-6.035,-5.575
1485,-6.020,-5.590
1486,-6.000,-5.585
1487,-6.000,-5.560
1488,-5.985,-5.570
1489,-5.985,-5.585
1490,-6.010,-5.585
1491,-6.010,-5.595
1492,-6.020,-5.605
1493,-6.040,-5.595
1494,-6.020,-5.595
1495,-6.010,-5.600
1496,-6.010,-5.595
1497,-6.010,-5.580
1498,-5.995,-5.580
1499,-6.000,-5.565
1500,-5.995,-5.580
1501,-5.980,-5.580
1502,-5.980,-5.590
1503,-6.000,-5.600
1504,-6.000,-5.605
1505,-6.020,-5.615
1506,-6.015,-5.610
1507,-6.040,-5.625
1508,-6.025,-5.605
1509,-6.010,-5.610
1510,-5.990,-5.600
1511,-6.000,-5.585
1512,-5.995,-5.590
1513,-6.005,-5.575
1514,-6.010,-5.575
1515,-6.025,-5.600
1516,-6.025,-5.605
1517,-6.020,-5.610
1518,-6.035,-5.610
1519,-6.040,-5.620
1520,-6.040,-5.610
1521,-6.025,-5.590
1522,-6.035,-5.585
1523,-6.035,-5.565
1524,-6.010,-5.580
1525,-6.045,-5.590
1526,-6.045,-5.605
1527,-6.050,-5.610
1528,-6.050,-5.610
1529,-6.055,-5.625
1530,-6.065,-5.640
1531,-6.055,-5.615
1532,-6.045,-5.620
1533,-6.050,-5.595
1534,-6.040,-5.605
1535,-6.040,-5.580
1536,-6.030,-5.580
1537,-6.030,-5.590
1538,-6.050,-5.595
1539,-6.065,-5.610
1540,-6.075,-5.620
1541,-6.080,-5.620
1542,-6.085,-5.640
1543,-6.075,-5.620
1544,-6.080,-5.615
1545,-6.065,-5.600
1546,-6.060,-5.605
1547,-6.055,-5.600
1548,-6.060,-5.595
1549,-6.060,-5.605
1550,-6.050,-5.615
1551,-6.065,-5.605
1552,-6.075,-5.640
1553,-6.075,-5.635
1554,-6.085,-5.635
1555,-6.070,-5.635
1556,-6.075,-5.615
1557,-6.070,-5.600
1558,-6.080,-5.590
1559,-6.065,-5.590
1560,-6.070,-5.590
1561,-6.075,-5.590
1562,-6.065,-5.595
1563,-6.075,-5.615
1564,-6.085,-5.615
1565,-6.105,-5.630
1566,-6.110,-5.630
1567,-6.085,-5.620
1568,-6.085,-5.615
1569,-6.080,-5.610
1570,-6.075,-5.575
1571,-6.080,-5.590
1572,-6.060,-5.600
1573,-6.065,-5.595
1574,-6.060,-5.600
1575,-6.060,-5.600
1576,-6.050,-5.605
1577,-6.060,-5.610
1578,-6.040,-5.625
1579,-6.040,-5.580
1580,-6.020,-5.560
1581,-6.005,-5.550
1582,-5.960,-5.530
1583,-5.955,-5.510
1584,-5.935,-5.500
1585,-5.910,-5.515
1586,-5.920,-5.510
1587,-5.905,-5.520
1588,-5.870,-5.525
1589,-5.855,-5.515
1590,-5.810,-5.525
1591,-5.770,-5.540
1592,-5.770,-5.545
1593,-5.760,-5.575
1594,-5.760,-5.595
1595,-5.765,-5.590
1596,-5.760,-5.615
1597,-5.770,-5.620
1598,-5.785,-5.625
1599,-5.780,-5.635
1600,-5.790,-5.650
1601,-5.840,-5.650
1602,-5.855,-5.635
1603,-5.905,-5.650
1604,-5.950,-5.640
1605,-6.005,-5.640
1606,-6.050,-5.625
1607,-6.065,-5.620
1608,-6.080,-5.615
1609,-6.095,-5.620
1610,-6.095,-5.640
1611,-6.120,-5.660
1612,-6.140,-5.665
1613,-6.135,-5.670
1614,-6.135,-5.675
1615,-6.140,-5.675
1616,-6.135,-5.665
1617,-6.130,-5.665
1618,-6.130,-5.645
1619,-6.130,-5.625
1620,-6.130,-5.655
1621,-6.135,-5.640
1622,-6.130,-5.645
1623,-6.135,-5.660
1624,-6.155,-5.660
1625,-6.155,-5.650
1626,-6.150,-5.660
1627,-6.160,-5.660
1628,-6.160,-5.660
1629,-6.160,-5.640
1630,-6.135,-5.640
1631,-6.130,-5.635
1632,-6.125,-5.645
1633,-6.110,-5.630
1634,-6.115,-5.650
1635,-6.120,-5.655
1636,-6.130,-5.665
1637,-6.160,-5.670
1638,-6.165,-5.645
1639,-6.195,-5.660
1640,-6.215,-5.615
1641,-6.195,-5.555
1642,-6.115,-5.495
1643,-5.990,-5.440
1644,-5.800,-5.410
1645,-5.550,-5.435
1646,-5.225,-5.510
1647,-4.865,-5.650
1648,-4.530,-5.820
1649,-4.240,-6.030
1650,-4.065,-6.275
1651,-4.010,-6.455
1652,-4.060,-6.590
1653,-4.210,-6.655
1654,-4.505,-6.635
1655,-4.925,-6.575
1656,-5.415,-6.505
1657,-5.880,-6.445
1658,-6.190,-6.380
1659,-6.305,-6.300
1660,-6.255,-6.205
1661,-6.125,-6.120
1662,-6.000,-6.050
1663,-5.935,-5.970
1664,-5.915,-5.890
1665,-5.960,-5.825
1666,-6.005,-5.755
1667,-6.065,-5.685
1668,-6.110,-5.655
1669,-6.130,-5.635
1670,-6.145,-5.615
1671,-6.140,-5.630
1672,-6.155,-5.635
1673,-6.160,-5.630
1674,-6.175,-5.640
1675,-6.175,-5.615
1676,-6.175,-5.600
1677,-6.170,-5.575
1678,-6.165,-5.570
1679,-6.165,-5.555
1680,-6.160,-5.570
1681,-6.175,-5.565
1682,-6.170,-5.570
1683,-6.175,-5.580
1684,-6.185,-5.595
1685,-6.200,-5.585
1686,-6.190,-5.590
1687,-6.195,-5.590
1688,-6.180,-5.570
1689,-6.200,-5.560
1690,-6.190,-5.545
1691,-6.190,-5.550
1692,-6.185,-5.530
1693,-6.190,-5.545
1694,-6.185,-5.550
1695,-6.180,-5.575
1696,-6.185,-5.565
1697,-6.195,-5.585
1698,-6.210,-5.595
1699,-6.195,-5.575
1700,-6.190,-5.565
1701,-6.195,-5.575
1702,-6.175,-5.565
1703,-6.160,-5.550
1704,-6.155,-5.560
1705,-6.165,-5.565
1706,-6.175,-5.555
1707,-6.175,-5.580
1708,-6.180,-5.585
1709,-6.180,-5.575
1710,-6.200,-5.585
1711,-6.175,-5.575
1712,-6.180,-5.570
1713,-6.155,-5.560
1714,-6.135,-5.545
1715,-6.135,-5.535
1716,-6.120,-5.530
1717,-6.115,-5.535
1718,-6.125,-5.560
1719,-6.130,-5.560
1720,-6.135,-5.580
1721,-6.130,-5.580
1722,-6.125,-5.580
1723,-6.105,-5.580
1724,-6.095,-5.550
1725,-6.080,-5.570
1726,-6.060,-5.560
1727,-6.035,-5.540
1728,-6.030,-5.545
1729,-6.025,-5.560
1730,-6.020,-5.565
1731,-6.015,-5.565
1732,-6.000,-5.565
1733,-6.000,-5.560
1734,-6.010,-5.555
1735,-6.000,-5.555
1736,-5.970,-5.535
1737,-5.935,-5.540
1738,-5.905,-5.525
1739,-5.870,-5.515
1740,-5.855,-5.515
1741,-5.835,-5.555
1742,-5.825,-5.550
1743,-5.825,-5.555
1744,-5.810,-5.570
1745,-5.805,-5.580
1746,-5.790,-5.600
1747,-5.780,-5.600
1748,-5.750,-5.590
1749,-5.755,-5.585
1750,-5.710,-5.590
1751,-5.680,-5.575
1752,-5.675,-5.575
1753,-5.650,-5.565
1754,-5.640,-5.575
1755,-5.640,-5.585
1756,-5.630,-5.590
1757,-5.630,-5.590
1758,-5.630,-5.595
1759,-5.620,-5.595
1760,-5.610,-5.595
1761,-5.600,-5.575
1762,-5.590,-5.570
1763,-5.585,-5.575
1764,-5.580,-5.570
1765,-5.600,-5.575
1766,-5.615,-5.570
1767,-5.650,-5.590
1768,-5.665,-5.595
1769,-5.705,-5.595
1770,-5.725,-5.595
1771,-5.755,-5.595
1772,-5.770,-5.580
1773,-5.790,-5.560
1774,-5.830,-5.555
1775,-5.840,-5.540
1776,-5.865,-5.525
1777,-5.895,-5.545
1778,-5.935,-5.530
1779,-5.960,-5.550
1780,-5.985,-5.550
1781,-6.020,-5.555
1782,-6.040,-5.570
1783,-6.040,-5.560
1784,-6.065,-5.565
1785,-6.065,-5.560
1786,-6.080,-5.555
1787,-6.095,-5.540
1788,-6.095,-5.540
1789,-6.110,-5.545
1790,-6.125,-5.560
1791,-6.125,-5.565
1792,-6.150,-5.575
1793,-6.165,-5.585
1794,-6.185,-5.605
1795,-6.180,-5.600
1796,-6.165,-5.590
1797,-6.155,-5.580
1798,-6.150,-5.570
1799,-6.160,-5.560
1800,-6.150,-5.560
1801,-6.170,-5.565
1802,-6.180,-5.570
1803,-6.180,-5.570
1804,-6.180,-5.575
1805,-6.190,-5.575
1806,-6.190,-5.580
1807,-6.185,-5.575
1808,-6.180,-5.570
1809,-6.165,-5.575
1810,-6.155,-5.570
1811,-6.150,-5.550
1812,-6.135,-5.565
1813,-6.130,-5.560
1814,-6.135,-5.565
1815,-6.160,-5.580
1816,-6.160,-5.595
1817,-6.150,-5.600
1818,-6.155,-5.590
1819,-6.170,-5.595
1820,-6.145,-5.600
1821,-6.130,-5.585
1822,-6.140,-5.555
1823,-6.125,-5.550
1824,-6.115,-5.545
1825,-6.100,-5.565
1826,-6.110,-5.565
1827,-6.125,-5.580
1828,-6.130,-5.580
1829,-6.135,-5.590
1830,-6.125,-5.590
1831,-6.135,-5.590
1832,-6.130,-5.585
1833,-6.115,-5.590
1834,-6.105,-5.570
1835,-6.095,-5.555
1836,-6.095,-5.555
1837,-6.085,-5.565
1838,-6.085,-5.595
1839,-6.115,-5.590
1840,-6.115,-5.595
1841,-6.120,-5.590
1842,-6.125,-5.620
1843,-6.140,-5.610
1844,-6.125,-5.595
1845,-6.125,-5.580
1846,-6.120,-5.565
1847,-6.095,-5.560
1848,-6.105,-5.565
1849,-6.125,-5.555
1850,-6.120,-5.585
1851,-6.140,-5.590
1852,-6.140,-5.595
1853,-6.150,-5.605
1854,-6.130,-5.600
1855,-6.130,-5.585
1856,-6.135,-5.595
1857,-6.130,-5.580
1858,-6.120,-5.575
1859,-6.115,-5.575
1860,-6.130,-5.575
1861,-6.125,-5.585
1862,-6.135,-5.605
1863,-6.150,-5.605
1864,-6.145,-5.605
1865,-6.165,-5.620
1866,-6.180,-5.610
1867,-6.170,-5.620
1868,-6.160,-5.595
1869,-6.160,-5.570
1870,-6.150,-5.565
1871,-6.155,-5.575
1872,-6.135,-5.565
1873,-6.150,-5.585
1874,-6.155,-5.570
1875,-6.160,-5.590
1876,-6.155,-5.600
1877,-6.170,-5.610
1878,-6.180,-5.620
1879,-6.195,-5.615
1880,-6.180,-5.620
1881,-6.170,-5.600
1882,-6.165,-5.595
1883,-6.160,-5.575
1884,-6.150,-5.590
1885,-6.150,-5.590
1886,-6.155,-5.615
1887,-6.165,-5.605
1888,-6.170,-5.605
1889,-6.180,-5.620
1890,-6.185,-5.625
1891,-6.195,-5.595
1892,-6.180,-5.615
1893,-6.170,-5.590
1894,-6.155,-5.570
1895,-6.155,-5.565
1896,-6.135,-5.570
1897,-6.130,-5.570
1898,-6.115,-5.570
1899,-6.115,-5.580
1900,-6.105,-5.590
1901,-6.105,-5.580
1902,-6.090,-5.575
1903,-6.070,-5.570
1904,-6.065,-5.550
1905,-6.045,-5.555
1906,-6.030,-5.535
1907,-6.010,-5.525
1908,-5.985,-5.500
1909,-5.980,-5.520
1910,-5.945,-5.510
1911,-5.930,-5.510
1912,-5.890,-5.510
1913,-5.860,-5.525
1914,-5.840,-5.545
1915,-5.830,-5.555
1916,-5.815,-5.585
1917,-5.820,-5.580
1918,-5.825,-5.595
1919,-5.840,-5.590
1920,-5.815,-5.605
1921,-5.830,-5.595
1922,-5.840,-5.625
1923,-5.875,-5.635
1924,-5.920,-5.645
1925,-5.960,-5.665
1926,-6.020,-5.675
1927,-6.085,-5.675
1928,-6.135,-5.655
1929,-6.165,-5.635
1930,-6.160,-5.635
1931,-6.175,-5.620
1932,-6.180,-5.610
1933,-6.165,-5.610
1934,-6.175,-5.635
1935,-6.170,-5.635
1936,-6.195,-5.635
1937,-6.205,-5.665
1938,-6.200,-5.665
1939,-6.200,-5.660
1940,-6.200,-5.650
1941,-6.190,-5.640
1942,-6.185,-5.625
1943,-6.195,-5.630
1944,-6.190,-5.635
1945,-6.200,-5.625
1946,-6.210,-5.645
1947,-6.205,-5.650
1948,-6.220,-5.645
1949,-6.205,-5.675
1950,-6.220,-5.675
1951,-6.225,-5.665
1952,-6.205,-5.645
1953,-6.195,-5.640
1954,-6.175,-5.635
1955,-6.185,-5.615
1956,-6.170,-5.615
1957,-6.175,-5.610
1958,-6.180,-5.620
1959,-6.205,-5.615
1960,-6.240,-5.595
1961,-6.240,-5.580
1962,-6.210,-5.535
1963,-6.110,-5.470
1964,-5.955,-5.430
1965,-5.695,-5.425
1966,-5.375,-5.475
1967,-4.975,-5.585
1968,-4.585,-5.775
1969,-4.255,-6.015
1970,-4.055,-6.275
1971,-3.955,-6.495
1972,-4.010,-6.645
1973,-4.220,-6.690
1974,-4.595,-6.670
1975,-5.135,-6.610
1976,-5.695,-6.510
1977,-6.120,-6.405
1978,-6.330,-6.300
1979,-6.330,-6.175
1980,-6.205,-6.070
1981,-6.075,-5.980
1982,-5.975,-5.930
1983,-5.950,-5.875
1984,-5.975,-5.805
1985,-6.055,-5.765
1986,-6.110,-5.715
1987,-6.155,-5.680
1988,-6.170,-5.660
1989,-6.205,-5.630
1990,-6.175,-5.630
1991,-6.180,-5.615
1992,-6.145,-5.605
1993,-6.155,-5.605
1994,-6.165,-5.590
1995,-6.170,-5.605
1996,-6.175,-5.585
1997,-6.210,-5.605
1998,-6.210,-5.605
1999,-6.205,-5.600
2000,-6.205,-5.575
2001,-6.200,-5.570
2002,-6.200,-5.565
2003,-6.190,-5.565
2004,-6.175,-5.555
2005,-6.185,-5.550
2006,-6.190,-5.545
2007,-6.180,-5.570
2008,-6.200,-5.585
2009,-6.210,-5.590
2010,-6.210,-5.605
2011,-6.210,-5.595
2012,-6.205,-5.575
2013,-6.190,-5.570
2014,-6.190,-5.570
2015,-6.170,-5.565
2016,-6.165,-5.560
2017,-6.175,-5.555
2018,-6.185,-5.550
2019,-6.185,-5.570
2020,-6.160,-5.585
2021,-6.180,-5.605
2022,-6.175,-5.600
2023,-6.170,-5.600
2024,-6.185,-5.580
2025,-6.160,-5.580
2026,-6.150,-5.575
2027,-6.140,-5.560
2028,-6.145,-5.570
2029,-6.130,-5.560
2030,-6.110,-5.575
2031,-6.115,-5.575
2032,-6.110,-5.580
2033,-6.110,-5.590
2034,-6.105,-5.575
2035,-6.100,-5.575
2036,-6.090,-5.560
2037,-6.075,-5.555
2038,-6.055,-5.535
2039,-6.055,-5.535
2040,-6.030,-5.530
2041,-6.025,-5.530
2042,-6.025,-5.535
2043,-6.010,-5.560
2044,-6.020,-5.535
2045,-6.035,-5.570
2046,-6.025,-5.575
2047,-6.000,-5.555
2048,-5.965,-5.555
2049,-5.940,-5.545
2050,-5.935,-5.530
2051,-5.895,-5.530
2052,-5.885,-5.535
2053,-5.865,-5.535
2054,-5.830,-5.530
2055,-5.845,-5.545
2056,-5.815,-5.535
2057,-5.795,-5.555
2058,-5.760,-5.540
2059,-5.745,-5.550
2060,-5.725,-5.545
2061,-5.690,-5.530
2062,-5.670,-5.520
2063,-5.650,-5.530
2064,-5.630,-5.515
2065,-5.605,-5.530
2066,-5.590,-5.540
2067,-5.590,-5.560
2068,-5.570,-5.560
2069,-5.565,-5.575
2070,-5.540,-5.570
2071,-5.545,-5.570
2072,-5.535,-5.575
2073,-5.530,-5.560
2074,-5.515,-5.565
2075,-5.515,-5.560
2076,-5.490,-5.530
2077,-5.520,-5.550
2078,-5.530,-5.570
2079,-5.570,-5.585
2080,-5.605,-5.570
2081,-5.620,-5.575
2082,-5.650,-5.575
2083,-5.705,-5.570
2084,-5.735,-5.570
2085,-5.740,-5.540
2086,-5.770,-5.545
2087,-5.785,-5.540
2088,-5.825,-5.525
2089,-5.860,-5.540
2090,-5.885,-5.545
2091,-5.920,-5.550
2092,-5.950,-5.560
2093,-5.970,-5.580
2094,-5.980,-5.585
2095,-6.005,-5.590
2096,-6.030,-5.580
2097,-6.025,-5.565
2098,-6.035,-5.570
2099,-6.040,-5.565
2100,-6.050,-5.545
2101,-6.050,-5.560
2102,-6.075,-5.575
2103,-6.080,-5.570
2104,-6.090,-5.565
2105,-6.095,-5.590
2106,-6.105,-5.590
2107,-6.115,-5.605
2108,-6.120,-5.600
2109,-6.100,-5.580
2110,-6.110,-5.585
2111,-6.095,-5.585
2112,-6.080,-5.580
2113,-6.085,-5.600
2114,-6.100,-5.585
2115,-6.105,-5.605
2116,-6.110,-5.600
2117,-6.115,-5.605
2118,-6.100,-5.620
2119,-6.105,-5.610
2120,-6.105,-5.605
2121,-6.085,-5.595
2122,-6.065,-5.580
2123,-6.065,-5.565
2124,-6.045,-5.560
2125,-6.045,-5.565
2126,-6.060,-5.575
2127,-6.070,-5.585
2128,-6.075,-5.590
2129,-6.075,-5.610
2130,-6.055,-5.615
2131,-6.065,-5.610
2132,-6.065,-5.610
2133,-6.050,-5.580
2134,-6.035,-5.595
2135,-6.035,-5.580
2136,-6.030,-5.595
2137,-6.035,-5.595
2138,-6.040,-5.595
2139,-6.050,-5.615
2140,-6.060,-5.625
2141,-6.040,-5.630
2142,-6.045,-5.625
2143,-6.055,-5.625
2144,-6.035,-5.620
2145,-6.025,-5.605
2146,-6.015,-5.595
2147,-6.005,-5.595
2148,-6.010,-5.600
2149,-6.020,-5.575
2150,-6.020,-5.610
2151,-6.025,-5.605
2152,-6.025,-5.605
2153,-6.035,-5.635
2154,-6.050,-5.635
2155,-6.045,-5.620
2156,-6.050,-5.645
2157,-6.035,-5.630
2158,-6.040,-5.610
2159,-6.035,-5.610
2160,-6.040,-5.610
2161,-6.035,-5.605
2162,-6.040,-5.615
2163,-6.045,-5.620
2164,-6.050,-5.625
2165,-6.045,-5.650
2166,-6.065,-5.650
2167,-6.075,-5.630
2168,-6.075,-5.620
2169,-6.075,-5.615
2170,-6.060,-5.605
2171,-6.040,-5.600
2172,-6.040,-5.595
2173,-6.065,-5.615
2174,-6.065,-5.615
2175,-6.055,-5.625
2176,-6.065,-5.635
2177,-6.070,-5.625
2178,-6.085,-5.635
2179,-6.080,-5.635
2180,-6.085,-5.615
2181,-6.065,-5.610
2182,-6.070,-5.615
2183,-6.060,-5.615
2184,-6.045,-5.620
2185,-6.065,-5.610
2186,-6.070,-5.625
2187,-6.090,-5.620
2188,-6.085,-5.635
2189,-6.090,-5.645
2190,-6.090,-5.645
2191,-6.110,-5.635
2192,-6.110,-5.630
2193,-6.080,-5.615
2194,-6.095,-5.615
2195,-6.065,-5.600
2196,-6.070,-5.600
2197,-6.070,-5.600
2198,-6.080,-5.605
2199,-6.075,-5.630
2200,-6.085,-5.640
2201,-6.110,-5.625
2202,-6.095,-5.645
2203,-6.095,-5.640
2204,-6.095,-5.640
2205,-6.080,-5.630
2206,-6.080,-5.625
2207,-6.065,-5.630
2208,-6.060,-5.625
2209,-6.055,-5.630
2210,-6.050,-5.625
2211,-6.065,-5.650
2212,-6.065,-5.655
2213,-6.085,-5.660
2214,-6.070,-5.645
2215,-6.080,-5.650
2216,-6.075,-5.640
2217,-6.040,-5.610
2218,-6.025,-5.610
2219,-6.000,-5.580
2220,-5.980,-5.570
2221,-5.965,-5.575
2222,-5.970,-5.575
2223,-5.955,-5.580
2224,-5.950,-5.570
2225,-5.935,-5.585
2226,-5.940,-5.585
2227,-5.935,-5.580
2228,-5.900,-5.570
2229,-5.865,-5.545
2230,-5.845,-5.530
2231,-5.805,-5.510
2232,-5.750,-5.515
2233,-5.725,-5.515
2234,-5.710,-5.555
2235,-5.710,-5.580
2236,-5.720,-5.610
2237,-5.740,-5.630
2238,-5.755,-5.650
2239,-5.785,-5.660
2240,-5.765,-5.655
2241,-5.760,-5.640
2242,-5.765,-5.625
2243,-5.770,-5.640
2244,-5.830,-5.640
2245,-5.875,-5.655
2246,-5.940,-5.645
2247,-5.995,-5.665
2248,-6.045,-5.650
2249,-6.080,-5.660
2250,-6.115,-5.680
2251,-6.140,-5.675
2252,-6.130,-5.665
2253,-6.110,-5.645
2254,-6.090,-5.640
2255,-6.080,-5.640
2256,-6.090,-5.635
2257,-6.095,-5.635
2258,-6.095,-5.635
2259,-6.110,-5.650
2260,-6.130,-5.650
2261,-6.130,-5.655
2262,-6.135,-5.675
2263,-6.145,-5.655
2264,-6.130,-5.650
2265,-6.125,-5.655
2266,-6.135,-5.645
2267,-6.115,-5.645
2268,-6.110,-5.650
2269,-6.100,-5.645
2270,-6.105,-5.645
2271,-6.110,-5.650
2272,-6.110,-5.650
2273,-6.110,-5.665
2274,-6.110,-5.665
2275,-6.110,-5.685
2276,-6.105,-5.655
2277,-6.115,-5.655
2278,-6.105,-5.655
2279,-6.105,-5.645
2280,-6.110,-5.625
2281,-6.130,-5.610
2282,-6.155,-5.600
2283,-6.170,-5.565
2284,-6.155,-5.520
2285,-6.105,-5.465
2286,-6.000,-5.415
2287,-5.830,-5.385
2288,-5.570,-5.435
2289,-5.265,-5.510
2290,-4.895,-5.625
2291,-4.520,-5.810
2292,-4.200,-6.030
2293,-3.990,-6.280
2294,-3.915,-6.505
2295,-3.920,-6.685
2296,-4.035,-6.790
2297,-4.275,-6.795
2298,-4.670,-6.745
2299,-5.165,-6.670
2300,-5.690,-6.575
2301,-6.055,-6.485
2302,-6.240,-6.365
2303,-6.215,-6.255
2304,-6.115,-6.135
2305,-5.965,-6.050
2306,-5.875,-5.965
2307,-5.865,-5.880
2308,-5.895,-5.840
2309,-5.945,-5.780
2310,-6.030,-5.725
2311,-6.080,-5.695
2312,-6.110,-5.665
2313,-6.110,-5.650
2314,-6.090,-5.625
2315,-6.095,-5.615
2316,-6.070,-5.620
2317,-6.080,-5.610
2318,-6.085,-5.605
2319,-6.075,-5.605
2320,-6.090,-5.605
2321,-6.125,-5.625
2322,-6.125,-5.605
2323,-6.140,-5.615
2324,-6.125,-5.615
2325,-6.120,-5.590
2326,-6.115,-5.580
2327,-6.120,-5.555
2328,-6.110,-5.545
2329,-6.110,-5.550
2330,-6.130,-5.560
2331,-6.115,-5.570
2332,-6.130,-5.565
2333,-6.135,-5.575
2334,-6.135,-5.585
2335,-6.145,-5.575
2336,-6.135,-5.580
2337,-6.120,-5.570
2338,-6.110,-5.560
2339,-6.115,-5.535
2340,-6.110,-5.540
2341,-6.110,-5.535
2342,-6.120,-5.550
2343,-6.115,-5.570
2344,-6.130,-5.570
2345,-6.150,-5.580
2346,-6.150,-5.590
2347,-6.125,-5.575
2348,-6.135,-5.580
2349,-6.115,-5.570
2350,-6.110,-5.555
2351,-6.090,-5.525
2352,-6.075,-5.520
2353,-6.075,-5.515
2354,-6.075,-5.530
2355,-6.075,-5.525
2356,-6.095,-5.540
2357,-6.085,-5.555
2358,-6.090,-5.560
2359,-6.090,-5.560
2360,-6.090,-5.555
2361,-6.055,-5.545
2362,-6.045,-5.520
2363,-6.040,-5.540
2364,-6.045,-5.530
2365,-6.055,-5.525
2366,-6.045,-5.540
2367,-6.035,-5.545
2368,-6.030,-5.555
2369,-6.030,-5.545
2370,-6.025,-5.555
2371,-6.015,-5.550
2372,-6.020,-5.525
2373,-5.995,-5.520
2374,-5.975,-5.500
2375,-5.945,-5.500
2376,-5.930,-5.490
2377,-5.920,-5.490
2378,-5.905,-5.490
2379,-5.895,-5.495
2380,-5.885,-5.510
2381,-5.885,-5.515
2382,-5.885,-5.535
2383,-5.865,-5.515
2384,-5.840,-5.505
2385,-5.815,-5.495
2386,-5.790,-5.485
2387,-5.755,-5.485
2388,-5.720,-5.480
2389,-5.710,-5.485
2390,-5.695,-5.485
2391,-5.680,-5.515
2392,-5.660,-5.510
2393,-5.655,-5.515
2394,-5.635,-5.525
2395,-5.625,-5.525
2396,-5.600,-5.510
2397,-5.580,-5.505
2398,-5.555,-5.505
2399,-5.540,-5.485
2400,-5.520,-5.490
2401,-5.500,-5.490
2402,-5.475,-5.515
2403,-5.490,-5.520
2404,-5.485,-5.545
2405,-5.490,-5.545
2406,-5.495,-5.550
2407,-5.505,-5.545
2408,-5.520,-5.565
2409,-5.540,-5.555
2410,-5.560,-5.540
2411,-5.580,-5.530
2412,-5.590,-5.525
2413,-5.625,-5.530
2414,-5.655,-5.515
2415,-5.695,-5.525
2416,-5.750,-5.535
2417,-5.760,-5.530
2418,-5.810,-5.530
2419,-5.835,-5.535
2420,-5.870,-5.530
2421,-5.875,-5.520
2422,-5.895,-5.530
2423,-5.900,-5.515
2424,-5.910,-5.535
2425,-5.935,-5.535
2426,-5.960,-5.530
2427,-5.970,-5.550
2428,-6.015,-5.550
2429,-6.030,-5.575
2430,-6.045,-5.585
2431,-6.050,-5.585
2432,-6.050,-5.575
2433,-6.060,-5.565
2434,-6.055,-5.570
2435,-6.040,-5.545
2436,-6.035,-5.565
2437,-6.045,-5.555
2438,-6.050,-5.540
2439,-6.055,-5.545
2440,-6.055,-5.570
2441,-6.055,-5.575
2442,-6.070,-5.575
2443,-6.085,-5.570
2444,-6.090,-5.585
2445,-6.085,-5.570
2446,-6.080,-5.550
2447,-6.080,-5.555
2448,-6.050,-5.550
2449,-6.060,-5.560
2450,-6.055,-5.555
2451,-6.055,-5.565
2452,-6.055,-5.575
2453,-6.070,-5.590
2454,-6.065,-5.595
2455,-6.065,-5.595
2456,-6.055,-5.595
2457,-6.060,-5.580
2458,-6.045,-5.575
2459,-6.045,-5.540
2460,-6.035,-5.525
2461,-6.035,-5.535
2462,-6.035,-5.530
2463,-6.030,-5.520
2464,-6.045,-5.530
2465,-6.040,-5.520
2466,-6.065,-5.500
2467,-6.070,-5.475
2468,-6.030,-5.450
2469,-5.985,-5.410
2470,-5.915,-5.325
2471,-5.810,-5.295
2472,-5.675,-5.300
2473,-5.525,-5.380
2474,-5.400,-5.490
2475,-5.255,-5.640
2476,-5.115,-5.810
2477,-4.945,-5.950
2478,-4.760,-6.090
2479,-4.565,-6.230
2480,-4.340,-6.400
2481,-4.120,-6.575
2482,-3.905,-6.745
2483,-3.725,-6.950
2484,-3.550,-7.135
2485,-3.405,-7.290
2486,-3.290,-7.410
2487,-3.220,-7.470
2488,-3.185,-7.500
2489,-3.180,-7.525
2490,-3.175,-7.530
2491,-3.205,-7.515
2492,-3.240,-7.495
2493,-3.305,-7.455
2494,-3.385,-7.425
2495,-3.445,-7.335
2496,-3.490,-7.265
2497,-3.520,-7.145
2498,-3.515,-7.060
2499,-3.510,-6.990
2500,-3.550,-6.905
2501,-3.590,-6.815
2502,-3.680,-6.725
2503,-3.820,-6.635
2504,-3.970,-6.555
2505,-4.135,-6.440
2506,-4.340,-6.345
2507,-4.590,-6.260
2508,-4.940,-6.155
2509,-5.330,-6.080
2510,-5.720,-5.975
2511,-6.000,-5.860
2512,-6.190,-5.770
2513,-6.250,-5.650
2514,-6.265,-5.590
2515,-6.250,-5.540
2516,-6.220,-5.505
2517,-6.240,-5.500
2518,-6.265,-5.475
2519,-6.310,-5.465
2520,-6.345,-5.435
2521,-6.375,-5.425
2522,-6.420,-5.405
2523,-6.445,-5.410
2524,-6.475,-5.410
2525,-6.495,-5.400
2526,-6.515,-5.385
2527,-6.520,-5.375
2528,-6.535,-5.360
2529,-6.545,-5.340
2530,-6.550,-5.320
2531,-6.575,-5.310
2532,-6.575,-5.300
2533,-6.580,-5.290
2534,-6.585,-5.285
2535,-6.595,-5.290
2536,-6.615,-5.285
2537,-6.640,-5.290
2538,-6.655,-5.290
2539,-6.665,-5.285
2540,-6.680,-5.265
2541,-6.680,-5.235
2542,-6.680,-5.215
2543,-6.690,-5.180
2544,-6.685,-5.175
2545,-6.695,-5.150
2546,-6.685,-5.135
2547,-6.695,-5.130
2548,-6.695,-5.125
2549,-6.710,-5.115
2550,-6.710,-5.085
2551,-6.710,-5.070
2552,-6.725,-5.040
2553,-6.740,-5.005
2554,-6.725,-4.970
2555,-6.725,-4.955
2556,-6.705,-4.930
2557,-6.695,-4.910
2558,-6.720,-4.915
2559,-6.690,-4.910
2560,-6.705,-4.940
2561,-6.725,-4.945
2562,-6.755,-4.960
2563,-6.795,-4.965
2564,-6.805,-4.945
2565,-6.830,-4.940
2566,-6.845,-4.905
2567,-6.840,-4.875
2568,-6.865,-4.850
2569,-6.920,-4.835
2570,-6.975,-4.805
2571,-7.030,-4.800
2572,-7.100,-4.785
2573,-7.155,-4.780
2574,-7.220,-4.765
2575,-7.290,-4.730
2576,-7.335,-4.710
2577,-7.365,-4.675
2578,-7.395,-4.645
2579,-7.400,-4.645
2580,-7.435,-4.625
2581,-7.450,-4.610
2582,-7.440,-4.630
2583,-7.455,-4.640
2584,-7.470,-4.640
2585,-7.480,-4.665
2586,-7.485,-4.685
2587,-7.495,-4.690
2588,-7.490,-4.710
2589,-7.470,-4.705
2590,-7.435,-4.720
2591,-7.410,-4.730
2592,-7.380,-4.755
2593,-7.345,-4.780
2594,-7.315,-4.810
2595,-7.285,-4.855
2596,-7.265,-4.885
2597,-7.230,-4.925
2598,-7.160,-4.975
2599,-7.105,-5.010
2600,-7.040,-5.045
2601,-6.980,-5.085
2602,-6.910,-5.110
2603,-6.880,-5.145
2604,-6.790,-5.160
2605,-6.745,-5.230
2606,-6.700,-5.255
2607,-6.660,-5.305
2608,-6.615,-5.330
2609,-6.575,-5.370
2610,-6.535,-5.405
2611,-6.500,-5.425
2612,-6.470,-5.435
2613,-6.450,-5.450
2614,-6.420,-5.440
2615,-6.390,-5.450
2616,-6.390,-5.440
2617,-6.375,-5.470
2618,-6.355,-5.485
2619,-6.350,-5.495
2620,-6.345,-5.520
2621,-6.345,-5.525
2622,-6.340,-5.545
2623,-6.380,-5.550
2624,-6.360,-5.535
2625,-6.335,-5.525
2626,-6.325,-5.525
2627,-6.340,-5.510
2628,-6.325,-5.510
2629,-6.325,-5.525
2630,-6.320,-5.520
2631,-6.330,-5.535
2632,-6.335,-5.560
2633,-6.330,-5.570
2634,-6.335,-5.550
2635,-6.345,-5.555
2636,-6.320,-5.550
2637,-6.325,-5.525
2638,-6.315,-5.530
2639,-6.310,-5.500
2640,-6.290,-5.495
2641,-6.290,-5.505
2642,-6.295,-5.500
2643,-6.290,-5.525
2644,-6.300,-5.530
2645,-6.310,-5.530
2646,-6.305,-5.530
2647,-6.300,-5.540
2648,-6.295,-5.530
2649,-6.295,-5.530
2650,-6.275,-5.515
2651,-6.265,-5.515
2652,-6.250,-5.505
2653,-6.235,-5.515
2654,-6.240,-5.515
2655,-6.255,-5.535
2656,-6.255,-5.545
2657,-6.265,-5.530
2658,-6.260,-5.560
2659,-6.255,-5.565
2660,-6.265,-5.545
2661,-6.250,-5.520
2662,-6.250,-5.535
2663,-6.245,-5.495
2664,-6.235,-5.490
2665,-6.225,-5.510
2666,-6.235,-5.525
2667,-6.215,-5.540
2668,-6.215,-5.545
2669,-6.230,-5.540
2670,-6.235,-5.550
2671,-6.230,-5.560
2672,-6.235,-5.565
2673,-6.220,-5.560
2674,-6.240,-5.550
2675,-6.215,-5.535
2676,-6.200,-5.520
2677,-6.205,-5.525
2678,-6.200,-5.550
2679,-6.200,-5.550
2680,-6.195,-5.570
2681,-6.205,-5.580
2682,-6.220,-5.585
2683,-6.225,-5.590
2684,-6.210,-5.590
2685,-6.220,-5.575
2686,-6.200,-5.575
2687,-6.195,-5.555
2688,-6.180,-5.555
2689,-6.170,-5.565
2690,-6.155,-5.570
2691,-6.165,-5.550
2692,-6.175,-5.570
2693,-6.180,-5.590
2694,-6.190,-5.610
2695,-6.185,-5.595
2696,-6.200,-5.595
2697,-6.200,-5.585
2698,-6.180,-5.585
2699,-6.165,-5.570
2700,-6.155,-5.580
2701,-6.160,-5.570
2702,-6.160,-5.575
2703,-6.160,-5.580
2704,-6.165,-5.590
2705,-6.180,-5.590
2706,-6.170,-5.595
2707,-6.165,-5.605
2708,-6.165,-5.600
2709,-6.170,-5.595
2710,-6.150,-5.600
2711,-6.155,-5.570
2712,-6.135,-5.575
2713,-6.135,-5.570
2714,-6.140,-5.590
2715,-6.145,-5.595
2716,-6.140,-5.610
2717,-6.150,-5.605
2718,-6.150,-5.620
2719,-6.140,-5.635
2720,-6.145,-5.625
2721,-6.155,-5.630
2722,-6.135,-5.610
2723,-6.130,-5.595
2724,-6.125,-5.595
2725,-6.115,-5.590
2726,-6.120,-5.610
2727,-6.130,-5.595
2728,-6.130,-5.600
2729,-6.135,-5.610
2730,-6.145,-5.610
2731,-6.150,-5.620
2732,-6.145,-5.610
2733,-6.135,-5.605
2734,-6.130,-5.595
2735,-6.100,-5.595
2736,-6.095,-5.585
2737,-6.080,-5.585
2738,-6.105,-5.600
2739,-6.105,-5.610
2740,-6.125,-5.620
2741,-6.115,-5.640
2742,-6.130,-5.640
2743,-6.150,-5.640
2744,-6.125,-5.645
2745,-6.130,-5.635
2746,-6.115,-5.615
2747,-6.095,-5.595
2748,-6.085,-5.605
2749,-6.080,-5.595
2750,-6.075,-5.600
2751,-6.090,-5.605
2752,-6.110,-5.615
2753,-6.105,-5.620
2754,-6.125,-5.615
2755,-6.105,-5.640
2756,-6.105,-5.630
2757,-6.090,-5.625
2758,-6.100,-5.610
2759,-6.075,-5.610
2760,-6.070,-5.600
2761,-6.070,-5.615
2762,-6.080,-5.625
2763,-6.075,-5.625
2764,-6.100,-5.635
2765,-6.100,-5.640
2766,-6.105,-5.650
2767,-6.105,-5.660
2768,-6.110,-5.645
2769,-6.090,-5.625
2770,-6.080,-5.620
2771,-6.080,-5.620
2772,-6.065,-5.590
2773,-6.070,-5.600
2774,-6.070,-5.605
2775,-6.070,-5.600
2776,-6.080,-5.630
2777,-6.085,-5.635
2778,-6.110,-5.635
2779,-6.095,-5.640
2780,-6.090,-5.650
2781,-6.080,-5.640
2782,-6.080,-5.635
2783,-6.085,-5.605
2784,-6.050,-5.595
2785,-6.065,-5.615
2786,-6.070,-5.630
2787,-6.075,-5.630
2788,-6.085,-5.635
2789,-6.085,-5.655
2790,-6.095,-5.660
2791,-6.095,-5.645
2792,-6.075,-5.645
2793,-6.075,-5.635
2794,-6.060,-5.630
2795,-6.075,-5.590
2796,-6.070,-5.615
2797,-6.070,-5.600
2798,-6.065,-5.630
2799,-6.070,-5.620
2800,-6.075,-5.635
2801,-6.080,-5.650
2802,-6.085,-5.655
2803,-6.090,-5.655
2804,-6.080,-5.655
2805,-6.080,-5.640
2806,-6.075,-5.640
2807,-6.055,-5.630
2808,-6.065,-5.625
2809,-6.055,-5.635
2810,-6.045,-5.630
2811,-6.050,-5.630
2812,-6.055,-5.630
2813,-6.065,-5.630
2814,-6.070,-5.645
2815,-6.085,-5.650
2816,-6.095,-5.645
2817,-6.070,-5.625
2818,-6.055,-5.625
2819,-6.070,-5.605
2820,-6.045,-5.615
2821,-6.035,-5.605
2822,-6.045,-5.620
2823,-6.045,-5.625
2824,-6.050,-5.620
2825,-6.050,-5.645
2826,-6.055,-5.640
2827,-6.065,-5.670
2828,-6.055,-5.670
2829,-6.055,-5.650
2830,-6.060,-5.640
2831,-6.040,-5.610
2832,-6.025,-5.615
2833,-6.015,-5.625
2834,-6.025,-5.630
2835,-6.025,-5.635
2836,-6.030,-5.635
2837,-6.040,-5.650
2838,-6.055,-5.645
2839,-6.080,-5.660
2840,-6.075,-5.645
2841,-6.045,-5.635
2842,-6.040,-5.640
2843,-6.040,-5.635
2844,-6.035,-5.635
2845,-6.025,-5.630
2846,-6.005,-5.640
2847,-6.020,-5.635
2848,-6.015,-5.650
2849,-6.025,-5.670
2850,-6.040,-5.660
2851,-6.035,-5.685
2852,-6.050,-5.670
2853,-6.040,-5.665
2854,-6.040,-5.645
2855,-6.040,-5.635
2856,-6.035,-5.635
2857,-6.005,-5.635
2858,-6.005,-5.635
2859,-6.005,-5.640
2860,-6.030,-5.635
2861,-6.045,-5.645
2862,-6.055,-5.635
2863,-6.035,-5.640
2864,-6.025,-5.660
2865,-6.025,-5.630
2866,-6.015,-5.635
2867,-6.020,-5.625
2868,-6.000,-5.620
2869,-6.005,-5.625
2870,-6.010,-5.630
2871,-5.990,-5.635
2872,-6.010,-5.650
2873,-6.025,-5.665
2874,-6.030,-5.660
2875,-6.050,-5.685
2876,-6.050,-5.665
2877,-6.045,-5.660
2878,-6.015,-5.655
2879,-6.010,-5.640
2880,-5.990,-5.615
2881,-5.985,-5.630
2882,-5.990,-5.620
2883,-5.995,-5.630
2884,-5.995,-5.640
2885,-6.005,-5.650
2886,-6.010,-5.650
2887,-6.015,-5.665
2888,-6.005,-5.650
2889,-5.995,-5.635
2890,-5.970,-5.620
2891,-5.945,-5.625
2892,-5.930,-5.595
2893,-5.895,-5.595
2894,-5.895,-5.600
2895,-5.885,-5.590
2896,-5.900,-5.580
2897,-5.895,-5.590
2898,-5.865,-5.595
2899,-5.840,-5.585
2900,-5.810,-5.575
2901,-5.775,-5.565
2902,-5.725,-5.545
2903,-5.675,-5.545
2904,-5.640,-5.535
2905,-5.640,-5.555
2906,-5.640,-5.590
2907,-5.665,-5.630
2908,-5.665,-5.645
2909,-5.700,-5.665
2910,-5.695,-5.680
2911,-5.695,-5.680
2912,-5.695,-5.675
2913,-5.705,-5.675
2914,-5.725,-5.680
2915,-5.765,-5.670
2916,-5.805,-5.640
2917,-5.865,-5.655
2918,-5.935,-5.665
2919,-5.960,-5.675
2920,-6.000,-5.670
2921,-6.010,-5.685
2922,-6.030,-5.675
2923,-6.025,-5.690
2924,-6.020,-5.695
2925,-6.015,-5.690
2926,-6.015,-5.685
2927,-6.010,-5.670
2928,-6.000,-5.660
2929,-6.005,-5.660
2930,-6.005,-5.670
2931,-6.010,-5.680
2932,-6.015,-5.680
2933,-6.035,-5.710
2934,-6.030,-5.700
2935,-6.040,-5.700
2936,-6.030,-5.705
2937,-6.025,-5.690
2938,-6.005,-5.670
2939,-6.020,-5.675
2940,-6.025,-5.670
2941,-6.005,-5.675
2942,-6.015,-5.675
2943,-6.055,-5.670
2944,-6.085,-5.670
2945,-6.100,-5.650
2946,-6.070,-5.605
2947,-5.995,-5.540
2948,-5.855,-5.500
2949,-5.645,-5.465
2950,-5.380,-5.490
2951,-5.050,-5.545
2952,-4.685,-5.640
2953,-4.325,-5.800
2954,-4.045,-6.005
2955,-3.845,-6.225
2956,-3.775,-6.420
2957,-3.800,-6.565
2958,-3.930,-6.645
2959,-4.185,-6.660
2960,-4.575,-6.630
2961,-5.075,-6.570
2962,-5.580,-6.500
2963,-5.960,-6.415
2964,-6.120,-6.320
2965,-6.100,-6.235
2966,-5.980,-6.135
2967,-5.865,-6.045
2968,-5.790,-5.985
2969,-5.785,-5.925
2970,-5.815,-5.860
2971,-5.900,-5.800
2972,-5.950,-5.760
2973,-6.005,-5.720
2974,-6.030,-5.685
2975,-6.050,-5.670
2976,-6.025,-5.655
2977,-6.015,-5.650
2978,-6.010,-5.650
2979,-6.020,-5.650
2980,-6.015,-5.650
2981,-6.030,-5.655
2982,-6.045,-5.650
2983,-6.055,-5.650
2984,-6.070,-5.645
2985,-6.065,-5.620
2986,-6.050,-5.620
2987,-6.055,-5.610
2988,-6.045,-5.605
2989,-6.030,-5.585
2990,-6.035,-5.590
2991,-6.055,-5.600
2992,-6.055,-5.620
2993,-6.055,-5.610
2994,-6.080,-5.610
2995,-6.105,-5.620
2996,-6.080,-5.605
2997,-6.075,-5.605
2998,-6.075,-5.585
2999,-6.055,-5.585
3000,-6.055,-5.580
3001,-6.045,-5.575
3002,-6.045,-5.585
3003,-6.050,-5.570
3004,-6.065,-5.590
3005,-6.075,-5.615
3006,-6.100,-5.615
3007,-6.090,-5.610
3008,-6.075,-5.605
3009,-6.070,-5.595
3010,-6.060,-5.590
3011,-6.055,-5.565
3012,-6.045,-5.545
3013,-6.040,-5.560
3014,-6.050,-5.550
3015,-6.040,-5.555
3016,-6.045,-5.560
3017,-6.065,-5.585
3018,-6.055,-5.580
3019,-6.060,-5.600
3020,-6.055,-5.590
3021,-6.035,-5.585
3022,-6.035,-5.560
3023,-6.015,-5.550
3024,-6.005,-5.545
3025,-5.995,-5.555
3026,-5.990,-5.550
3027,-5.995,-5.535
3028,-5.980,-5.560
3029,-5.985,-5.565
3030,-6.000,-5.565
3031,-5.990,-5.570
3032,-5.970,-5.565
3033,-5.970,-5.535
3034,-5.930,-5.535
3035,-5.930,-5.525
3036,-5.900,-5.505
3037,-5.890,-5.510
3038,-5.890,-5.495
3039,-5.880,-5.495
3040,-5.885,-5.515
3041,-5.870,-5.520
3042,-5.885,-5.535
3043,-5.860,-5.545
3044,-5.850,-5.525
3045,-5.815,-5.515
3046,-5.790,-5.505
3047,-5.770,-5.495
3048,-5.740,-5.480
3049,-5.725,-5.490
3050,-5.715,-5.485
3051,-5.695,-5.515
3052,-5.690,-5.520
3053,-5.685,-5.520
3054,-5.675,-5.525
3055,-5.665,-5.525
3056,-5.655,-5.530
3057,-5.635,-5.515
3058,-5.600,-5.510
3059,-5.595,-5.490
3060,-5.585,-5.480
3061,-5.555,-5.500
3062,-5.545,-5.490
3063,-5.530,-5.505
3064,-5.530,-5.525
3065,-5.540,-5.530
3066,-5.520,-5.535
3067,-5.525,-5.560
3068,-5.500,-5.570
3069,-5.480,-5.545
3070,-5.465,-5.550
3071,-5.460,-5.550
3072,-5.455,-5.540
3073,-5.440,-5.540
3074,-5.450,-5.560
3075,-5.450,-5.570
3076,-5.470,-5.585
3077,-5.490,-5.590
3078,-5.510,-5.595
3079,-5.535,-5.605
3080,-5.565,-5.590
3081,-5.570,-5.580
3082,-5.595,-5.555
3083,-5.605,-5.565
3084,-5.630,-5.550
3085,-5.640,-5.570
3086,-5.665,-5.580
3087,-5.700,-5.590
3088,-5.725,-5.600
3089,-5.750,-5.615
3090,-5.770,-5.630
3091,-5.805,-5.625
3092,-5.830,-5.625
3093,-5.845,-5.610
3094,-5.845,-5.620
3095,-5.850,-5.605
3096,-5.850,-5.580
3097,-5.855,-5.600
3098,-5.875,-5.600
3099,-5.895,-5.605
3100,-5.900,-5.625
3101,-5.915,-5.630
3102,-5.930,-5.635
3103,-5.925,-5.625
3104,-5.920,-5.625
3105,-5.915,-5.605
3106,-5.925,-5.595
3107,-5.920,-5.580
3108,-5.910,-5.575
3109,-5.900,-5.580
3110,-5.915,-5.585
3111,-5.910,-5.575
3112,-5.910,-5.595
3113,-5.920,-5.600
3114,-5.920,-5.620
3115,-5.940,-5.630
3116,-5.935,-5.610
3117,-5.915,-5.605
3118,-5.910,-5.605
3119,-5.900,-5.595
3120,-5.890,-5.600
3121,-5.895,-5.600
3122,-5.895,-5.595
3123,-5.890,-5.605
3124,-5.900,-5.620
3125,-5.910,-5.620
3126,-5.905,-5.620
3127,-5.905,-5.620
3128,-5.910,-5.615
3129,-5.900,-5.610
3130,-5.885,-5.615
3131,-5.890,-5.585
3132,-5.875,-5.590
3133,-5.880,-5.585
3134,-5.895,-5.595
3135,-5.890,-5.605
3136,-5.895,-5.620
3137,-5.905,-5.640
3138,-5.910,-5.650
3139,-5.915,-5.655
3140,-5.925,-5.640
3141,-5.920,-5.635
3142,-5.910,-5.610
3143,-5.900,-5.605
3144,-5.895,-5.580
3145,-5.900,-5.610
3146,-5.905,-5.615
3147,-5.905,-5.615
3148,-5.920,-5.630
3149,-5.930,-5.635
3150,-5.945,-5.615
3151,-5.945,-5.625
3152,-5.960,-5.615
3153,-5.945,-5.615
3154,-5.930,-5.615
3155,-5.920,-5.610
3156,-5.910,-5.605
3157,-5.915,-5.595
3158,-5.920,-5.615
3159,-5.950,-5.605
3160,-5.960,-5.630
3161,-5.970,-5.630
3162,-5.965,-5.640
3163,-5.970,-5.645
3164,-5.965,-5.645
3165,-5.960,-5.645
3166,-5.960,-5.615
3167,-5.945,-5.625
3168,-5.940,-5.615
3169,-5.945,-5.620
3170,-5.950,-5.605
3171,-5.965,-5.615
3172,-6.000,-5.620
3173,-6.000,-5.615
3174,-6.000,-5.635
3175,-6.010,-5.625
3176,-6.010,-5.630
3177,-6.015,-5.615
3178,-6.020,-5.600
3179,-6.010,-5.610
3180,-5.990,-5.595
3181,-6.005,-5.595
3182,-5.990,-5.610
3183,-5.990,-5.605
3184,-6.010,-5.625
3185,-6.015,-5.645
3186,-6.025,-5.650
3187,-6.020,-5.655
3188,-6.030,-5.640
3189,-6.020,-5.660
3190,-6.030,-5.635
3191,-6.010,-5.625
3192,-6.000,-5.600
3193,-5.990,-5.620
3194,-6.000,-5.610
3195,-5.995,-5.620
3196,-6.010,-5.625
3197,-6.005,-5.630
3198,-6.035,-5.630
3199,-6.025,-5.640
3200,-6.045,-5.625
3201,-6.025,-5.625
3202,-6.000,-5.620
3203,-6.000,-5.610
3204,-6.005,-5.605
3205,-5.995,-5.600
3206,-6.000,-5.610
3207,-6.000,-5.610
3208,-6.010,-5.640
3209,-6.020,-5.635
3210,-6.030,-5.650
3211,-6.040,-5.655
3212,-6.040,-5.640
3213,-6.015,-5.630
3214,-6.010,-5.635
3215,-6.005,-5.630
3216,-5.995,-5.620
3217,-6.010,-5.605
3218,-6.010,-5.615
3219,-6.005,-5.625
3220,-6.000,-5.620
3221,-6.015,-5.635
3222,-6.005,-5.635
3223,-6.005,-5.610
3224,-6.015,-5.625
3225,-5.970,-5.615
3226,-5.950,-5.605
3227,-5.925,-5.595
3228,-5.900,-5.580
3229,-5.880,-5.555
3230,-5.870,-5.545
3231,-5.865,-5.550
3232,-5.845,-5.550
3233,-5.840,-5.565
3234,-5.840,-5.550
3235,-5.820,-5.555
3236,-5.810,-5.565
3237,-5.775,-5.520
3238,-5.710,-5.520
3239,-5.680,-5.525
3240,-5.640,-5.510
3241,-5.615,-5.530
3242,-5.635,-5.555
3243,-5.655,-5.575
3244,-5.685,-5.600
3245,-5.690,-5.630
3246,-5.685,-5.645
3247,-5.705,-5.655
3248,-5.695,-5.660
3249,-5.710,-5.650
3250,-5.715,-5.645
3251,-5.725,-5.640
3252,-5.770,-5.640
3253,-5.825,-5.650
3254,-5.875,-5.655
3255,-5.925,-5.645
3256,-5.980,-5.650
3257,-6.015,-5.680
3258,-6.010,-5.670
3259,-6.035,-5.690
3260,-6.020,-5.675
3261,-6.035,-5.695
3262,-6.010,-5.690
3263,-6.025,-5.685
3264,-6.010,-5.660
3265,-6.010,-5.660
3266,-6.030,-5.655
3267,-6.050,-5.680
3268,-6.065,-5.700
3269,-6.060,-5.710
3270,-6.065,-5.715
3271,-6.060,-5.715
3272,-6.065,-5.715
3273,-6.045,-5.705
3274,-6.045,-5.685
3275,-6.035,-5.685
3276,-6.030,-5.675
3277,-6.025,-5.660
3278,-6.030,-5.655
3279,-6.030,-5.675
3280,-6.020,-5.670
3281,-6.050,-5.710
3282,-6.050,-5.685
3283,-6.060,-5.675
3284,-6.090,-5.690
3285,-6.095,-5.645
3286,-6.095,-5.600
3287,-6.050,-5.530
3288,-5.970,-5.475
3289,-5.820,-5.440
3290,-5.620,-5.435
3291,-5.305,-5.485
3292,-4.965,-5.615
3293,-4.585,-5.790
3294,-4.240,-6.005
3295,-3.990,-6.245
3296,-3.840,-6.470
3297,-3.830,-6.650
3298,-3.890,-6.745
3299,-4.085,-6.760
3300,-4.410,-6.715
3301,-4.870,-6.665
3302,-5.405,-6.605
3303,-5.835,-6.530
3304,-6.110,-6.455
3305,-6.190,-6.360
3306,-6.095,-6.265
3307,-5.975,-6.170
3308,-5.840,-6.085
3309,-5.785,-5.980
3310,-5.790,-5.900
3311,-5.830,-5.820
3312,-5.890,-5.765
3313,-5.945,-5.725
3314,-5.990,-5.700
3315,-6.010,-5.670
3316,-6.025,-5.675
3317,-6.035,-5.690
3318,-6.040,-5.675
3319,-6.020,-5.675
3320,-6.035,-5.655
3321,-6.040,-5.655
3322,-6.030,-5.645
3323,-6.015,-5.625
3324,-6.015,-5.610
3325,-6.020,-5.625
3326,-6.035,-5.630
3327,-6.040,-5.600
3328,-6.055,-5.625
3329,-6.060,-5.630
3330,-6.055,-5.625
3331,-6.060,-5.630
3332,-6.070,-5.625
3333,-6.070,-5.605
3334,-6.050,-5.610
3335,-6.050,-5.600
3336,-6.025,-5.595
3337,-6.020,-5.580
3338,-6.025,-5.595
3339,-6.045,-5.600
3340,-6.040,-5.610
3341,-6.050,-5.620
3342,-6.065,-5.610
3343,-6.060,-5.625
3344,-6.060,-5.630
3345,-6.055,-5.625
3346,-6.035,-5.600
3347,-6.030,-5.595
3348,-6.030,-5.595
3349,-6.010,-5.595
3350,-6.015,-5.595
3351,-6.020,-5.605
3352,-6.040,-5.595
3353,-6.035,-5.610
3354,-6.045,-5.615
3355,-6.040,-5.615
3356,-6.050,-5.605
3357,-6.060,-5.615
3358,-6.020,-5.585
3359,-6.000,-5.585
3360,-5.985,-5.575
3361,-5.980,-5.585
3362,-5.975,-5.570
3363,-5.975,-5.585
3364,-5.975,-5.605
3365,-5.970,-5.600
3366,-5.980,-5.630
3367,-5.965,-5.615
3368,-5.985,-5.620
3369,-5.960,-5.610
3370,-5.935,-5.610
3371,-5.940,-5.580
3372,-5.920,-5.600
3373,-5.895,-5.575
3374,-5.895,-5.590
3375,-5.875,-5.575
3376,-5.885,-5.590
3377,-5.855,-5.595
3378,-5.860,-5.590
3379,-5.850,-5.595
3380,-5.830,-5.595
3381,-5.825,-5.585
3382,-5.790,-5.570
3383,-5.785,-5.565
3384,-5.740,-5.550
3385,-5.715,-5.555
3386,-5.685,-5.560
3387,-5.680,-5.580
3388,-5.660,-5.575
3389,-5.655,-5.585
3390,-5.655,-5.605
3391,-5.635,-5.610
3392,-5.620,-5.585
3393,-5.595,-5.575
3394,-5.565,-5.565
3395,-5.530,-5.550
3396,-5.500,-5.535
3397,-5.480,-5.545
3398,-5.470,-5.530
3399,-5.450,-5.535
3400,-5.465,-5.550
3401,-5.455,-5.570
3402,-5.440,-5.580
3403,-5.450,-5.590
3404,-5.440,-5.595
3405,-5.445,-5.590
3406,-5.415,-5.600
3407,-5.430,-5.580
3408,-5.420,-5.570
3409,-5.430,-5.590
3410,-5.445,-5.585
3411,-5.465,-5.600
3412,-5.510,-5.615
3413,-5.525,-5.625
3414,-5.555,-5.615
3415,-5.575,-5.625
3416,-5.620,-5.610
3417,-5.635,-5.620
3418,-5.655,-5.595
3419,-5.685,-5.585
3420,-5.715,-5.585
3421,-5.730,-5.570
3422,-5.755,-5.580
3423,-5.790,-5.580
3424,-5.825,-5.610
3425,-5.845,-5.610
3426,-5.870,-5.620
3427,-5.895,-5.630
3428,-5.905,-5.635
3429,-5.915,-5.635
3430,-5.920,-5.605
3431,-5.930,-5.605
3432,-5.920,-5.595
3433,-5.940,-5.615
3434,-5.965,-5.625
3435,-5.960,-5.635
3436,-5.980,-5.635
3437,-6.005,-5.655
3438,-5.990,-5.650
3439,-5.985,-5.655
3440,-6.005,-5.645
3441,-6.000,-5.635
3442,-5.995,-5.625
3443,-5.975,-5.615
3444,-5.980,-5.600
3445,-5.970,-5.610
3446,-5.990,-5.615
3447,-5.980,-5.615
3448,-5.975,-5.635
3449,-5.985,-5.655
3450,-5.985,-5.635
3451,-6.030,-5.640
3452,-6.025,-5.650
3453,-6.015,-5.630
3454,-6.005,-5.630
3455,-5.970,-5.620
3456,-5.975,-5.625
3457,-5.960,-5.635
3458,-5.965,-5.615
3459,-5.950,-5.645
3460,-5.980,-5.630
3461,-5.980,-5.640
3462,-5.995,-5.655
3463,-5.990,-5.640
3464,-6.010,-5.675
3465,-5.995,-5.650
3466,-5.970,-5.630
3467,-5.970,-5.610
3468,-5.955,-5.610
3469,-5.950,-5.630
3470,-5.955,-5.620
3471,-5.960,-5.620
3472,-5.955,-5.645
3473,-5.965,-5.655
3474,-5.980,-5.665
3475,-5.980,-5.670
3476,-6.005,-5.670
3477,-5.985,-5.655
3478,-5.970,-5.650
3479,-5.965,-5.640
3480,-5.965,-5.650
3481,-5.950,-5.650
3482,-5.950,-5.635
3483,-5.960,-5.635
3484,-5.965,-5.665
3485,-5.975,-5.655
3486,-5.985,-5.670
3487,-5.985,-5.670
3488,-5.995,-5.660
3489,-5.990,-5.650
3490,-5.980,-5.660
3491,-5.960,-5.650
3492,-5.960,-5.635
3493,-5.960,-5.635
3494,-5.960,-5.645
3495,-5.980,-5.660
3496,-6.000,-5.655
3497,-6.015,-5.670
3498,-6.015,-5.685
3499,-6.010,-5.690
3500,-6.015,-5.695
3501,-6.020,-5.690
3502,-6.010,-5.675
3503,-5.995,-5.660
3504,-5.985,-5.670
3505,-5.985,-5.650
3506,-5.990,-5.660
3507,-6.015,-5.655
3508,-6.010,-5.675
3509,-6.025,-5.690
3510,-6.025,-5.690
3511,-6.030,-5.670
3512,-6.035,-5.670
3513,-6.025,-5.675
3514,-6.010,-5.665
3515,-6.005,-5.660
3516,-5.995,-5.635
3517,-5.995,-5.630
3518,-5.995,-5.650
3519,-6.025,-5.670
3520,-6.005,-5.675
3521,-6.015,-5.685
3522,-6.030,-5.685
3523,-6.025,-5.690
3524,-6.030,-5.700
3525,-6.030,-5.700
3526,-6.000,-5.675
3527,-5.995,-5.665
3528,-6.000,-5.665
3529,-6.010,-5.640
3530,-6.010,-5.655
3531,-6.030,-5.655
3532,-6.030,-5.665
3533,-6.040,-5.670
3534,-6.025,-5.685
3535,-6.040,-5.680
3536,-6.035,-5.700
3537,-6.035,-5.675
3538,-6.025,-5.670
3539,-6.010,-5.660
3540,-5.995,-5.655
3541,-5.975,-5.645
3542,-5.965,-5.645
3543,-5.955,-5.645
3544,-5.945,-5.640
3545,-5.940,-5.635
3546,-5.935,-5.630
3547,-5.920,-5.640
3548,-5.915,-5.625
3549,-5.890,-5.595
3550,-5.875,-5.585
3551,-5.845,-5.560
3552,-5.835,-5.550
3553,-5.785,-5.530
3554,-5.750,-5.530
3555,-5.705,-5.545
3556,-5.705,-5.565
3557,-5.680,-5.590
3558,-5.690,-5.615
3559,-5.705,-5.650
3560,-5.710,-5.665
3561,-5.710,-5.680
3562,-5.700,-5.670
3563,-5.685,-5.685
3564,-5.695,-5.685
3565,-5.710,-5.670
3566,-5.750,-5.705
3567,-5.815,-5.720
3568,-5.875,-5.710
3569,-5.935,-5.720
3570,-5.995,-5.705
3571,-6.025,-5.705
3572,-6.060,-5.710
3573,-6.070,-5.715
3574,-6.055,-5.695
3575,-6.040,-5.675
3576,-6.050,-5.680
3577,-6.030,-5.685
3578,-6.040,-5.700
3579,-6.050,-5.705
3580,-6.050,-5.715
3581,-6.080,-5.725
3582,-6.075,-5.740
3583,-6.095,-5.750
3584,-6.100,-5.735
3585,-6.080,-5.725
3586,-6.070,-5.715
3587,-6.065,-5.700
3588,-6.065,-5.710
3589,-6.055,-5.705
3590,-6.055,-5.720
3591,-6.060,-5.725
3592,-6.080,-5.705
3593,-6.090,-5.740
3594,-6.080,-5.735
3595,-6.090,-5.720
3596,-6.090,-5.745
3597,-6.105,-5.730
3598,-6.095,-5.700
3599,-6.090,-5.715
3600,-6.100,-5.695
3601,-6.125,-5.690
3602,-6.130,-5.650
3603,-6.120,-5.610
3604,-6.055,-5.585
3605,-5.960,-5.515
3606,-5.805,-5.505
3607,-5.595,-5.520
3608,-5.290,-5.575
3609,-4.925,-5.695
3610,-4.545,-5.850
3611,-4.225,-6.050
3612,-3.985,-6.265
3613,-3.855,-6.465
3614,-3.835,-6.610
3615,-3.920,-6.685
3616,-4.135,-6.700
3617,-4.450,-6.650
3618,-4.885,-6.650
3619,-5.430,-6.590
3620,-5.880,-6.510
3621,-6.180,-6.415
3622,-6.260,-6.325
3623,-6.175,-6.240
3624,-6.035,-6.140
3625,-5.895,-6.045
3626,-5.820,-5.990
3627,-5.825,-5.920
3628,-5.890,-5.880
3629,-5.955,-5.830
3630,-6.025,-5.800
3631,-6.060,-5.770
3632,-6.105,-5.740
3633,-6.105,-5.725
3634,-6.085,-5.710
3635,-6.070,-5.715
3636,-6.070,-5.675
3637,-6.060,-5.675
3638,-6.075,-5.670
3639,-6.085,-5.655
3640,-6.090,-5.655
3641,-6.095,-5.655
3642,-6.110,-5.660
3643,-6.130,-5.675
3644,-6.125,-5.665
3645,-6.135,-5.670
3646,-6.110,-5.660
3647,-6.100,-5.645
3648,-6.095,-5.640
3649,-6.080,-5.630
3650,-6.095,-5.625
3651,-6.100,-5.645
3652,-6.100,-5.635
3653,-6.115,-5.660
3654,-6.125,-5.670
3655,-6.130,-5.670
3656,-6.135,-5.655
3657,-6.150,-5.660
3658,-6.125,-5.660
3659,-6.115,-5.640
3660,-6.100,-5.620
3661,-6.095,-5.600
3662,-6.110,-5.615
3663,-6.110,-5.600
3664,-6.110,-5.615
3665,-6.110,-5.630
3666,-6.120,-5.645
3667,-6.115,-5.635
3668,-6.120,-5.630
3669,-6.130,-5.620
3670,-6.115,-5.630
3671,-6.105,-5.615
3672,-6.085,-5.605
3673,-6.090,-5.605
3674,-6.105,-5.595
3675,-6.095,-5.605
3676,-6.090,-5.625
3677,-6.095,-5.625
3678,-6.095,-5.635
3679,-6.090,-5.630
3680,-6.090,-5.630
3681,-6.090,-5.625
3682,-6.080,-5.605
3683,-6.040,-5.605
3684,-6.015,-5.595
3685,-6.000,-5.595
3686,-5.990,-5.595
3687,-5.985,-5.590
3688,-5.985,-5.600
3689,-6.000,-5.610
3690,-6.000,-5.615
3691,-5.985,-5.625
3692,-5.985,-5.620
3693,-5.980,-5.600
3694,-5.950,-5.600
3695,-5.930,-5.575
3696,-5.915,-5.590
3697,-5.875,-5.580
3698,-5.880,-5.575
3699,-5.870,-5.595
3700,-5.860,-5.625
3701,-5.835,-5.620
3702,-5.825,-5.620
3703,-5.800,-5.625
3704,-5.780,-5.625
3705,-5.755,-5.615
3706,-5.730,-5.615
3707,-5.685,-5.590
3708,-5.670,-5.570
3709,-5.650,-5.585
3710,-5.645,-5.590
3711,-5.630,-5.605
3712,-5.605,-5.615
3713,-5.595,-5.635
3714,-5.595,-5.645
3715,-5.580,-5.650
3716,-5.575,-5.645
3717,-5.550,-5.650
3718,-5.530,-5.640
3719,-5.515,-5.640
3720,-5.510,-5.645
3721,-5.480,-5.620
3722,-5.490,-5.640
3723,-5.495,-5.650
3724,-5.500,-5.645
3725,-5.530,-5.650
3726,-5.545,-5.660
3727,-5.580,-5.650
3728,-5.590,-5.655
3729,-5.610,-5.645
3730,-5.615,-5.620
3731,-5.655,-5.615
3732,-5.675,-5.590
3733,-5.690,-5.595
3734,-5.720,-5.605
3735,-5.755,-5.585
3736,-5.800,-5.605
3737,-5.830,-5.605
3738,-5.865,-5.615
3739,-5.900,-5.625
3740,-5.915,-5.610
3741,-5.940,-5.625
3742,-5.955,-5.615
3743,-5.960,-5.605
3744,-5.965,-5.595
3745,-5.990,-5.590
3746,-5.990,-5.605
3747,-6.025,-5.600
3748,-6.040,-5.600
3749,-6.065,-5.620
3750,-6.070,-5.640
3751,-6.075,-5.625
3752,-6.080,-5.615
3753,-6.095,-5.620
3754,-6.090,-5.630
3755,-6.080,-5.610
3756,-6.070,-5.585
3757,-6.075,-5.590
3758,-6.075,-5.595
3759,-6.075,-5.605
3760,-6.085,-5.615
3761,-6.090,-5.625
3762,-6.115,-5.640
3763,-6.125,-5.645
3764,-6.120,-5.640
3765,-6.105,-5.630
3766,-6.120,-5.615
3767,-6.100,-5.615
3768,-6.085,-5.610
3769,-6.075,-5.590
3770,-6.090,-5.595
3771,-6.090,-5.590
3772,-6.080,-5.605
3773,-6.100,-5.615
3774,-6.095,-5.625
3775,-6.100,-5.635
3776,-6.100,-5.620
3777,-6.105,-5.625
3778,-6.085,-5.610
3779,-6.060,-5.610
3780,-6.050,-5.595
3781,-6.035,-5.595
3782,-6.050,-5.605
3783,-6.035,-5.605
3784,-6.050,-5.625
3785,-6.060,-5.630
3786,-6.070,-5.655
3787,-6.065,-5.645
3788,-6.060,-5.640
3789,-6.065,-5.640
3790,-6.060,-5.630
3791,-6.055,-5.615
3792,-6.055,-5.600
3793,-6.030,-5.575
3794,-6.045,-5.595
3795,-6.040,-5.585
3796,-6.055,-5.595
3797,-6.050,-5.610
3798,-6.065,-5.620
3799,-6.060,-5.640
3800,-6.080,-5.630
3801,-6.070,-5.635
3802,-6.070,-5.625
3803,-6.050,-5.600
3804,-6.060,-5.600
3805,-6.055,-5.595
3806,-6.040,-5.605
3807,-6.055,-5.610
3808,-6.065,-5.625
3809,-6.075,-5.635
3810,-6.070,-5.640
3811,-6.085,-5.640
3812,-6.085,-5.640
3813,-6.090,-5.625
3814,-6.080,-5.610
3815,-6.095,-5.620
3816,-6.085,-5.575
3817,-6.080,-5.580
3818,-6.070,-5.600
3819,-6.080,-5.595
3820,-6.090,-5.615
3821,-6.095,-5.625
3822,-6.110,-5.635
3823,-6.115,-5.640
3824,-6.110,-5.635
3825,-6.110,-5.620
3826,-6.100,-5.625
3827,-6.095,-5.610
3828,-6.095,-5.605
3829,-6.075,-5.610
3830,-6.095,-5.610
3831,-6.100,-5.610
3832,-6.105,-5.620
3833,-6.115,-5.630
3834,-6.110,-5.640
3835,-6.105,-5.650
3836,-6.120,-5.630
3837,-6.115,-5.625
3838,-6.110,-5.610
3839,-6.110,-5.595
3840,-6.110,-5.595
3841,-6.110,-5.595
3842,-6.105,-5.600
3843,-6.105,-5.600
3844,-6.115,-5.620
3845,-6.130,-5.635
3846,-6.130,-5.635
3847,-6.125,-5.635
3848,-6.110,-5.635
3849,-6.110,-5.635
3850,-6.090,-5.615
3851,-6.055,-5.590
3852,-6.030,-5.580
3853,-6.005,-5.560
3854,-5.980,-5.535
3855,-5.970,-5.565
3856,-5.970,-5.550
3857,-5.960,-5.555
3858,-5.950,-5.555
3859,-5.930,-5.560
3860,-5.920,-5.550
3861,-5.870,-5.545
3862,-5.830,-5.535
3863,-5.790,-5.530
3864,-5.770,-5.535
3865,-5.760,-5.545
3866,-5.760,-5.580
3867,-5.785,-5.615
3868,-5.800,-5.635
3869,-5.810,-5.655
3870,-5.805,-5.660
3871,-5.830,-5.670
3872,-5.850,-5.675
3873,-5.895,-5.660
3874,-5.935,-5.645
3875,-5.985,-5.640
3876,-6.025,-5.640
3877,-6.055,-5.610
3878,-6.085,-5.600
3879,-6.115,-5.600
3880,-6.125,-5.625
3881,-6.145,-5.640
3882,-6.155,-5.655
3883,-6.165,-5.665
3884,-6.160,-5.665
3885,-6.145,-5.665
3886,-6.155,-5.660
3887,-6.155,-5.650
3888,-6.155,-5.625
3889,-6.140,-5.630
3890,-6.140,-5.630
3891,-6.155,-5.645
3892,-6.170,-5.670
3893,-6.170,-5.685
3894,-6.175,-5.700
3895,-6.195,-5.700
3896,-6.185,-5.700
3897,-6.180,-5.685
3898,-6.180,-5.665
3899,-6.185,-5.655
3900,-6.155,-5.645
3901,-6.165,-5.630
3902,-6.145,-5.635
3903,-6.160,-5.620
3904,-6.165,-5.640
3905,-6.175,-5.650
3906,-6.175,-5.665
3907,-6.175,-5.680
3908,-6.175,-5.660
3909,-6.180,-5.670
3910,-6.190,-5.650
3911,-6.195,-5.630
3912,-6.205,-5.595
3913,-6.180,-5.565
3914,-6.145,-5.505
3915,-6.060,-5.460
3916,-5.900,-5.430
3917,-5.695,-5.450
3918,-5.410,-5.520
3919,-5.070,-5.650
3920,-4.710,-5.790
3921,-4.380,-5.975
3922,-4.125,-6.170
3923,-3.975,-6.375
3924,-3.930,-6.515
3925,-3.990,-6.625
3926,-4.165,-6.655
3927,-4.490,-6.635
3928,-4.930,-6.605
3929,-5.460,-6.540
3930,-5.925,-6.490
3931,-6.230,-6.420
3932,-6.320,-6.320
3933,-6.245,-6.225
3934,-6.105,-6.120
3935,-5.950,-6.045
3936,-5.875,-5.965
3937,-5.870,-5.895
3938,-5.925,-5.850
3939,-6.000,-5.805
3940,-6.050,-5.755
3941,-6.105,-5.725
3942,-6.130,-5.715
3943,-6.150,-5.695
3944,-6.140,-5.695
3945,-6.140,-5.675
3946,-6.130,-5.640
3947,-6.125,-5.620
3948,-6.115,-5.595
3949,-6.120,-5.595
3950,-6.120,-5.585
3951,-6.135,-5.590
3952,-6.145,-5.605
3953,-6.160,-5.605
3954,-6.155,-5.620
3955,-6.160,-5.605
3956,-6.150,-5.610
3957,-6.160,-5.600
3958,-6.140,-5.590
3959,-6.140,-5.580
3960,-6.140,-5.570
3961,-6.135,-5.565
3962,-6.130,-5.575
3963,-6.145,-5.580
3964,-6.135,-5.580
3965,-6.155,-5.610
3966,-6.165,-5.610
3967,-6.160,-5.605
3968,-6.175,-5.600
3969,-6.165,-5.600
3970,-6.145,-5.580
3971,-6.145,-5.580
3972,-6.125,-5.565
3973,-6.115,-5.545
3974,-6.105,-5.560
3975,-6.110,-5.560
3976,-6.120,-5.570
3977,-6.130,-5.570
3978,-6.145,-5.590
3979,-6.150,-5.610
3980,-6.150,-5.610
3981,-6.145,-5.590
3982,-6.130,-5.580
3983,-6.100,-5.575
3984,-6.100,-5.560
3985,-6.105,-5.550
3986,-6.090,-5.555
3987,-6.105,-5.565
3988,-6.095,-5.575
3989,-6.100,-5.590
3990,-6.100,-5.595
3991,-6.090,-5.585
3992,-6.090,-5.590
3993,-6.085,-5.570
3994,-6.090,-5.555
3995,-6.065,-5.555
3996,-6.045,-5.545
3997,-6.040,-5.540
3998,-6.035,-5.550
3999,-6.030,-5.540
4000,-6.025,-5.560
4001,-6.040,-5.555
4002,-6.025,-5.560
4003,-6.015,-5.575
4004,-6.000,-5.570
4005,-5.985,-5.565
4006,-5.965,-5.555
4007,-5.950,-5.555
4008,-5.930,-5.540
4009,-5.895,-5.540
4010,-5.885,-5.535
4011,-5.875,-5.530
4012,-5.875,-5.545
4013,-5.865,-5.540
4014,-5.850,-5.575
4015,-5.825,-5.565
4016,-5.820,-5.555
4017,-5.785,-5.530
4018,-5.770,-5.535
4019,-5.740,-5.530
4020,-5.715,-5.525
4021,-5.675,-5.500
4022,-5.655,-5.515
4023,-5.630,-5.530
4024,-5.640,-5.550
4025,-5.605,-5.545
4026,-5.615,-5.560
4027,-5.605,-5.570
4028,-5.585,-5.575
4029,-5.560,-5.555
4030,-5.545,-5.565
4031,-5.520,-5.560
4032,-5.495,-5.550
4033,-5.480,-5.555
4034,-5.460,-5.565
4035,-5.450,-5.565
4036,-5.465,-5.570
4037,-5.465,-5.600
4038,-5.470,-5.605
4039,-5.480,-5.590
4040,-5.480,-5.600
4041,-5.490,-5.590
4042,-5.505,-5.575
4043,-5.520,-5.570
4044,-5.515,-5.565
4045,-5.530,-5.545
4046,-5.570,-5.560
4047,-5.595,-5.560
4048,-5.630,-5.560
4049,-5.655,-5.595
4050,-5.705,-5.580
4051,-5.735,-5.590
4052,-5.765,-5.585
4053,-5.790,-5.575
4054,-5.815,-5.560
4055,-5.835,-5.585
4056,-5.850,-5.570
4057,-5.865,-5.565
4058,-5.890,-5.570
4059,-5.900,-5.580
4060,-5.910,-5.575
4061,-5.945,-5.590
4062,-5.975,-5.610
4063,-6.000,-5.615
4064,-6.015,-5.620
4065,-6.025,-5.590
4066,-6.005,-5.595
4067,-6.005,-5.585
4068,-6.010,-5.590
4069,-6.015,-5.590
4070,-6.025,-5.605
4071,-6.020,-5.590
4072,-6.040,-5.610
4073,-6.045,-5.610
4074,-6.055,-5.630
4075,-6.060,-5.620
4076,-6.055,-5.630
4077,-6.055,-5.630
4078,-6.060,-5.605
4079,-6.070,-5.625
4080,-6.070,-5.620
4081,-6.045,-5.600
4082,-6.050,-5.610
4083,-6.050,-5.620
4084,-6.050,-5.620
4085,-6.055,-5.615
4086,-6.070,-5.620
4087,-6.070,-5.620
4088,-6.060,-5.615
4089,-6.055,-5.620
4090,-6.035,-5.610
4091,-6.030,-5.615
4092,-6.025,-5.590
4093,-6.010,-5.595
4094,-6.005,-5.595
4095,-6.010,-5.605
4096,-6.005,-5.610
4097,-6.020,-5.625
4098,-6.015,-5.630
4099,-6.020,-5.615
4100,-6.025,-5.630
4101,-6.005,-5.625
4102,-6.010,-5.620
4103,-6.000,-5.615
4104,-5.985,-5.610
4105,-5.985,-5.600
4106,-5.985,-5.615
4107,-5.975,-5.615
4108,-5.980,-5.625
4109,-5.985,-5.615
4110,-6.000,-5.620
4111,-6.010,-5.620
4112,-6.005,-5.625
4113,-6.005,-5.625
4114,-6.010,-5.600
4115,-5.980,-5.610
4116,-5.985,-5.600
4117,-5.960,-5.605
4118,-5.960,-5.605
4119,-5.970,-5.615
4120,-5.965,-5.630
4121,-5.980,-5.630
4122,-5.985,-5.650
4123,-6.000,-5.650
4124,-6.005,-5.655
4125,-5.995,-5.640
4126,-6.000,-5.650
4127,-5.995,-5.635
4128,-6.000,-5.630
4129,-5.990,-5.610
4130,-5.980,-5.640
4131,-6.010,-5.630
4132,-6.010,-5.625
4133,-6.015,-5.650
4134,-6.015,-5.640
4135,-6.010,-5.645
4136,-6.025,-5.630
4137,-6.025,-5.645
4138,-6.010,-5.635
4139,-6.010,-5.620
4140,-6.020,-5.620
4141,-6.000,-5.615
4142,-6.010,-5.620
4143,-6.015,-5.620
4144,-6.015,-5.630
4145,-6.015,-5.645
4146,-6.010,-5.640
4147,-6.025,-5.660
4148,-6.040,-5.660
4149,-6.045,-5.660
4150,-6.035,-5.655
4151,-6.020,-5.640
4152,-6.015,-5.625
4153,-6.005,-5.615
4154,-6.005,-5.625
4155,-6.020,-5.625
4156,-6.020,-5.620
4157,-6.040,-5.630
4158,-6.020,-5.645
4159,-6.035,-5.655
4160,-6.060,-5.650
4161,-6.035,-5.655
4162,-6.040,-5.645
4163,-6.025,-5.650
4164,-6.020,-5.625
4165,-6.005,-5.635
4166,-6.010,-5.615
4167,-6.020,-5.645
4168,-6.030,-5.650
4169,-6.020,-5.660
4170,-6.040,-5.660
4171,-6.045,-5.665
4172,-6.045,-5.685
4173,-6.035,-5.670
4174,-6.045,-5.665
4175,-6.025,-5.645
4176,-6.015,-5.615
4177,-6.010,-5.630
4178,-6.005,-5.625
4179,-6.005,-5.625
4180,-6.015,-5.620
4181,-6.015,-5.640
4182,-6.035,-5.625
4183,-6.020,-5.640
4184,-6.010,-5.655
4185,-5.995,-5.630
4186,-5.955,-5.605
4187,-5.930,-5.595
4188,-5.910,-5.580
4189,-5.895,-5.555
4190,-5.885,-5.565
4191,-5.880,-5.555
4192,-5.865,-5.575
4193,-5.855,-5.570
4194,-5.850,-5.585
4195,-5.830,-5.575
4196,-5.800,-5.570
4197,-5.755,-5.550
4198,-5.715,-5.530
4199,-5.685,-5.545
4200,-5.660,-5.565
4201,-5.670,-5.570
4202,-5.665,-5.595
4203,-5.695,-5.630
4204,-5.705,-5.655
4205,-5.715,-5.660
4206,-5.710,-5.675
4207,-5.735,-5.675
4208,-5.755,-5.700
4209,-5.775,-5.680
4210,-5.820,-5.685
4211,-5.870,-5.675
4212,-5.915,-5.675
4213,-5.960,-5.655
4214,-6.010,-5.650
4215,-6.030,-5.680
4216,-6.070,-5.690
4217,-6.075,-5.685
4218,-6.070,-5.715
4219,-6.080,-5.700
4220,-6.085,-5.715
4221,-6.075,-5.690
4222,-6.065,-5.705
4223,-6.065,-5.685
4224,-6.070,-5.660
4225,-6.060,-5.670
4226,-6.055,-5.675
4227,-6.060,-5.690
4228,-6.075,-5.680
4229,-6.090,-5.705
4230,-6.095,-5.705
4231,-6.095,-5.700
4232,-6.095,-5.720
4233,-6.090,-5.725
4234,-6.080,-5.695
4235,-6.080,-5.700
4236,-6.080,-5.680
4237,-6.080,-5.680
4238,-6.060,-5.685
4239,-6.065,-5.700
4240,-6.050,-5.695
4241,-6.085,-5.695
4242,-6.080,-5.705
4243,-6.075,-5.705
4244,-6.090,-5.690
4245,-6.115,-5.670
4246,-6.135,-5.645
4247,-6.110,-5.615
4248,-6.075,-5.550
4249,-5.990,-5.465
4250,-5.845,-5.445
4251,-5.615,-5.470
4252,-5.335,-5.520
4253,-4.975,-5.660
4254,-4.595,-5.820
4255,-4.280,-6.055
4256,-4.025,-6.305
4257,-3.915,-6.515
4258,-3.885,-6.670
4259,-3.975,-6.770
4260,-4.175,-6.790
4261,-4.475,-6.735
4262,-4.970,-6.685
4263,-5.485,-6.605
4264,-5.915,-6.520
4265,-6.160,-6.420
4266,-6.190,-6.305
4267,-6.100,-6.205
4268,-5.970,-6.125
4269,-5.880,-6.025
4270,-5.815,-5.935
4271,-5.835,-5.870
4272,-5.890,-5.790
4273,-5.950,-5.750
4274,-5.995,-5.705
4275,-6.045,-5.680
4276,-6.060,-5.695
4277,-6.060,-5.690
4278,-6.070,-5.685
4279,-6.075,-5.675
4280,-6.075,-5.680
4281,-6.075,-5.650
4282,-6.085,-5.635
4283,-6.075,-5.635
4284,-6.075,-5.605
4285,-6.085,-5.610
4286,-6.090,-5.585
4287,-6.105,-5.590
4288,-6.100,-5.590
4289,-6.110,-5.595
4290,-6.095,-5.610
4291,-6.100,-5.625
4292,-6.100,-5.620
4293,-6.105,-5.625
4294,-6.095,-5.600
4295,-6.105,-5.590
4296,-6.080,-5.585
4297,-6.065,-5.565
4298,-6.070,-5.570
4299,-6.095,-5.580
4300,-6.100,-5.585
4301,-6.095,-5.600
4302,-6.100,-5.610
4303,-6.105,-5.615
4304,-6.115,-5.605
4305,-6.095,-5.610
4306,-6.110,-5.595
4307,-6.085,-5.585
4308,-6.080,-5.570
4309,-6.065,-5.555
4310,-6.065,-5.550
4311,-6.080,-5.550
4312,-6.070,-5.555
4313,-6.075,-5.565
4314,-6.080,-5.565
4315,-6.085,-5.580
4316,-6.090,-5.590
4317,-6.070,-5.565
4318,-6.075,-5.575
4319,-6.055,-5.550
4320,-6.050,-5.545
4321,-6.030,-5.550
4322,-6.015,-5.540
4323,-6.025,-5.565
4324,-6.045,-5.555
4325,-6.030,-5.565
4326,-6.040,-5.585
4327,-6.030,-5.565
4328,-6.020,-5.575
4329,-6.030,-5.575
4330,-5.995,-5.570
4331,-5.975,-5.530
4332,-5.950,-5.515
4333,-5.930,-5.505
4334,-5.910,-5.525
4335,-5.900,-5.515
4336,-5.895,-5.540
4337,-5.915,-5.540
4338,-5.910,-5.550
4339,-5.880,-5.550
4340,-5.860,-5.570
4341,-5.855,-5.555
4342,-5.840,-5.545
4343,-5.810,-5.540
4344,-5.785,-5.520
4345,-5.735,-5.510
4346,-5.725,-5.510
4347,-5.725,-5.535
4348,-5.700,-5.535
4349,-5.690,-5.550
4350,-5.665,-5.550
4351,-5.660,-5.565
4352,-5.630,-5.565
4353,-5.625,-5.560
4354,-5.590,-5.540
4355,-5.545,-5.530
4356,-5.525,-5.540
4357,-5.485,-5.525
4358,-5.485,-5.550
4359,-5.475,-5.535
4360,-5.465,-5.565
4361,-5.470,-5.555
4362,-5.460,-5.595
4363,-5.445,-5.585
4364,-5.460,-5.590
4365,-5.455,-5.600
4366,-5.435,-5.595
4367,-5.415,-5.600
4368,-5.425,-5.585
4369,-5.430,-5.580
4370,-5.450,-5.570
4371,-5.475,-5.580
4372,-5.510,-5.580
4373,-5.545,-5.585
4374,-5.585,-5.585
4375,-5.600,-5.590
4376,-5.635,-5.590
4377,-5.680,-5.575
4378,-5.710,-5.565
4379,-5.740,-5.540
4380,-5.755,-5.530
4381,-5.765,-5.535
4382,-5.800,-5.535
4383,-5.825,-5.545
4384,-5.845,-5.580
4385,-5.870,-5.555
4386,-5.910,-5.585
4387,-5.930,-5.575
4388,-5.945,-5.585
4389,-5.960,-5.590
4390,-5.965,-5.590
4391,-5.965,-5.585
4392,-5.960,-5.580
4393,-5.975,-5.570
4394,-5.980,-5.575
4395,-6.000,-5.585
4396,-6.020,-5.585
4397,-6.020,-5.595
4398,-6.030,-5.590
4399,-6.045,-5.595
4400,-6.050,-5.615
4401,-6.060,-5.605
4402,-6.045,-5.590
4403,-6.045,-5.585
4404,-6.025,-5.580
4405,-6.015,-5.555
4406,-6.015,-5.570
4407,-6.025,-5.575
4408,-6.020,-5.575
4409,-6.030,-5.595
4410,-6.045,-5.590
4411,-6.050,-5.605
4412,-6.050,-5.620
4413,-6.050,-5.605
4414,-6.035,-5.610
4415,-6.020,-5.580
4416,-6.010,-5.585
4417,-6.035,-5.580
4418,-6.025,-5.585
4419,-5.995,-5.570
4420,-5.990,-5.585
4421,-5.995,-5.575
4422,-6.005,-5.570
4423,-6.010,-5.575
4424,-6.035,-5.570
4425,-6.025,-5.555
4426,-6.025,-5.535
4427,-6.010,-5.510
4428,-6.000,-5.485
4429,-5.960,-5.450
4430,-5.905,-5.415
4431,-5.820,-5.380
4432,-5.720,-5.360
4433,-5.580,-5.395
4434,-5.430,-5.470
4435,-5.275,-5.615
4436,-5.110,-5.775
4437,-4.915,-5.955
4438,-4.740,-6.095
4439,-4.530,-6.245
4440,-4.300,-6.395
4441,-4.080,-6.565
4442,-3.860,-6.770
4443,-3.645,-6.975
4444,-3.485,-7.150
4445,-3.360,-7.305
4446,-3.255,-7.400
4447,-3.210,-7.450
4448,-3.175,-7.450
4449,-3.165,-7.445
4450,-3.175,-7.425
4451,-3.175,-7.410
4452,-3.215,-7.370
4453,-3.275,-7.330
4454,-3.360,-7.315
4455,-3.445,-7.240
4456,-3.495,-7.160
4457,-3.530,-7.070
4458,-3.520,-6.985
4459,-3.530,-6.900
4460,-3.570,-6.800
4461,-3.645,-6.710
4462,-3.740,-6.615
4463,-3.885,-6.510
4464,-4.045,-6.420
4465,-4.240,-6.335
4466,-4.460,-6.260
4467,-4.770,-6.185
4468,-5.150,-6.105
4469,-5.525,-6.025
4470,-5.855,-5.925
4471,-6.085,-5.815
4472,-6.200,-5.705
4473,-6.215,-5.605
4474,-6.235,-5.555
4475,-6.195,-5.510
4476,-6.185,-5.490
4477,-6.200,-5.475
4478,-6.215,-5.470
4479,-6.275,-5.480
4480,-6.330,-5.455
4481,-6.370,-5.445
4482,-6.415,-5.455
4483,-6.435,-5.430
4484,-6.450,-5.425
4485,-6.455,-5.410
4486,-6.460,-5.390
4487,-6.465,-5.370
4488,-6.495,-5.350
4489,-6.500,-5.335
4490,-6.495,-5.320
4491,-6.500,-5.315
4492,-6.510,-5.325
4493,-6.530,-5.320
4494,-6.555,-5.320
4495,-6.570,-5.340
4496,-6.585,-5.310
4497,-6.575,-5.300
4498,-6.570,-5.285
4499,-6.560,-5.250
4500,-6.555,-5.235
4501,-6.540,-5.200
4502,-6.535,-5.190
4503,-6.530,-5.190
4504,-6.545,-5.175
4505,-6.540,-5.170
4506,-6.555,-5.175
4507,-6.570,-5.165
4508,-6.555,-5.155
4509,-6.540,-5.135
4510,-6.545,-5.100
4511,-6.525,-5.085
4512,-6.505,-5.085
4513,-6.500,-5.100
4514,-6.510,-5.105
4515,-6.535,-5.125
4516,-6.565,-5.140
4517,-6.595,-5.115
4518,-6.630,-5.125
4519,-6.640,-5.115
4520,-6.660,-5.085
4521,-6.695,-5.070
4522,-6.745,-5.050
4523,-6.795,-5.010
4524,-6.850,-4.990
4525,-6.915,-4.970
4526,-6.985,-4.940
4527,-7.050,-4.920
4528,-7.115,-4.925
4529,-7.190,-4.905
4530,-7.240,-4.870
4531,-7.255,-4.855
4532,-7.275,-4.850
4533,-7.295,-4.830
4534,-7.300,-4.785
4535,-7.325,-4.745
4536,-7.350,-4.730
4537,-7.355,-4.725
4538,-7.360,-4.700
4539,-7.385,-4.695
4540,-7.415,-4.690
4541,-7.445,-4.685
4542,-7.465,-4.710
4543,-7.485,-4.720
4544,-7.475,-4.725
4545,-7.485,-4.725
4546,-7.470,-4.725
4547,-7.470,-4.730
4548,-7.465,-4.725
4549,-7.450,-4.735
4550,-7.430,-4.750
4551,-7.425,-4.785
4552,-7.405,-4.795
4553,-7.375,-4.835
4554,-7.345,-4.855
4555,-7.320,-4.905
4556,-7.295,-4.940
4557,-7.250,-4.945
4558,-7.200,-4.960
4559,-7.150,-5.005
4560,-7.105,-5.015
4561,-7.060,-5.045
4562,-7.000,-5.075
4563,-6.955,-5.105
4564,-6.895,-5.160
4565,-6.845,-5.180
4566,-6.790,-5.240
4567,-6.750,-5.270
4568,-6.720,-5.320
4569,-6.640,-5.345
4570,-6.585,-5.375
4571,-6.545,-5.390
4572,-6.495,-5.410
4573,-6.470,-5.410
4574,-6.430,-5.430
4575,-6.410,-5.440
4576,-6.370,-5.455
4577,-6.370,-5.470
4578,-6.365,-5.480
4579,-6.360,-5.505
4580,-6.345,-5.515
4581,-6.345,-5.530
4582,-6.330,-5.510
4583,-6.315,-5.505
4584,-6.310,-5.505
4585,-6.305,-5.500
4586,-6.300,-5.510
4587,-6.315,-5.505
4588,-6.310,-5.530
4589,-6.325,-5.520
4590,-6.320,-5.545
4591,-6.330,-5.545
4592,-6.340,-5.545
4593,-6.325,-5.550
4594,-6.325,-5.545
4595,-6.330,-5.520
4596,-6.330,-5.510
4597,-6.295,-5.490
4598,-6.295,-5.485
4599,-6.295,-5.500
4600,-6.310,-5.500
4601,-6.320,-5.515
4602,-6.325,-5.520
4603,-6.335,-5.535
4604,-6.330,-5.540
4605,-6.300,-5.530
4606,-6.305,-5.520
4607,-6.290,-5.525
4608,-6.280,-5.505
4609,-6.260,-5.510
4610,-6.255,-5.515
4611,-6.260,-5.510
4612,-6.280,-5.520
4613,-6.280,-5.540
4614,-6.280,-5.535
4615,-6.280,-5.560
4616,-6.285,-5.560
4617,-6.260,-5.555
4618,-6.255,-5.535
4619,-6.255,-5.530
4620,-6.235,-5.520
4621,-6.240,-5.505
4622,-6.220,-5.535
4623,-6.210,-5.530
4624,-6.225,-5.535
4625,-6.225,-5.555
4626,-6.230,-5.560
4627,-6.235,-5.560
4628,-6.240,-5.570
4629,-6.240,-5.560
4630,-6.235,-5.555
4631,-6.205,-5.555
4632,-6.210,-5.545
4633,-6.195,-5.555
4634,-6.205,-5.550
4635,-6.200,-5.550
4636,-6.210,-5.565
4637,-6.205,-5.575
4638,-6.220,-5.590
4639,-6.220,-5.575
4640,-6.230,-5.575
4641,-6.220,-5.585
4642,-6.200,-5.560
4643,-6.190,-5.555
4644,-6.180,-5.540
4645,-6.180,-5.535
4646,-6.185,-5.525
4647,-6.185,-5.555
4648,-6.190,-5.555
4649,-6.205,-5.570
4650,-6.215,-5.575
4651,-6.210,-5.585
4652,-6.205,-5.585
4653,-6.200,-5.590
4654,-6.195,-5.585
4655,-6.175,-5.570
4656,-6.180,-5.545
4657,-6.170,-5.560
4658,-6.165,-5.570
4659,-6.165,-5.570
4660,-6.180,-5.570
4661,-6.175,-5.595
4662,-6.185,-5.600
4663,-6.195,-5.610
4664,-6.195,-5.600
4665,-6.175,-5.615
4666,-6.165,-5.595
4667,-6.165,-5.595
4668,-6.170,-5.580
4669,-6.160,-5.570
4670,-6.155,-5.585
4671,-6.140,-5.570
4672,-6.150,-5.580
4673,-6.150,-5.610
4674,-6.160,-5.610
4675,-6.170,-5.615
4676,-6.165,-5.620
4677,-6.165,-5.610
4678,-6.150,-5.620
4679,-6.145,-5.605
4680,-6.150,-5.595
4681,-6.140,-5.580
4682,-6.120,-5.560
4683,-6.140,-5.565
4684,-6.145,-5.595
4685,-6.155,-5.590
4686,-6.155,-5.605
4687,-6.170,-5.615
4688,-6.160,-5.615
4689,-6.160,-5.620
4690,-6.160,-5.615
4691,-6.135,-5.600
4692,-6.130,-5.600
4693,-6.115,-5.595
4694,-6.100,-5.585
4695,-6.115,-5.600
4696,-6.125,-5.610
4697,-6.130,-5.625
4698,-6.150,-5.640
4699,-6.155,-5.630
4700,-6.150,-5.635
4701,-6.150,-5.630
4702,-6.140,-5.615
4703,-6.145,-5.615
4704,-6.115,-5.585
4705,-6.115,-5.585
4706,-6.110,-5.595
4707,-6.100,-5.580
4708,-6.100,-5.595
4709,-6.120,-5.620
4710,-6.135,-5.615
4711,-6.145,-5.620
4712,-6.160,-5.645
4713,-6.145,-5.620
4714,-6.130,-5.620
4715,-6.125,-5.600
4716,-6.120,-5.605
4717,-6.085,-5.600
4718,-6.090,-5.605
4719,-6.085,-5.605
4720,-6.105,-5.615
4721,-6.120,-5.620
4722,-6.120,-5.620
4723,-6.105,-5.645
4724,-6.110,-5.640
4725,-6.110,-5.630
4726,-6.100,-5.610
4727,-6.085,-5.620
4728,-6.080,-5.590
4729,-6.080,-5.600
4730,-6.070,-5.615
4731,-6.085,-5.590
4732,-6.080,-5.595
4733,-6.080,-5.620
4734,-6.090,-5.615
4735,-6.100,-5.625
4736,-6.100,-5.620
4737,-6.095,-5.645
4738,-6.100,-5.630
4739,-6.095,-5.630
4740,-6.070,-5.610
4741,-6.070,-5.610
4742,-6.060,-5.600
4743,-6.065,-5.590
4744,-6.075,-5.610
4745,-6.075,-5.605
4746,-6.085,-5.605
4747,-6.090,-5.605
4748,-6.085,-5.630
4749,-6.090,-5.625
4750,-6.070,-5.600
4751,-6.045,-5.605
4752,-6.060,-5.605
4753,-6.055,-5.595
4754,-6.050,-5.590
4755,-6.055,-5.580
4756,-6.065,-5.605
4757,-6.080,-5.620
4758,-6.065,-5.630
4759,-6.080,-5.645
4760,-6.090,-5.640
4761,-6.085,-5.630
4762,-6.070,-5.630
4763,-6.060,-5.620
4764,-6.055,-5.585
4765,-6.035,-5.605
4766,-6.030,-5.590
4767,-6.045,-5.600
4768,-6.045,-5.595
4769,-6.040,-5.610
4770,-6.040,-5.610
4771,-6.060,-5.620
4772,-6.055,-5.620
4773,-6.060,-5.615
4774,-6.045,-5.605
4775,-6.040,-5.605
4776,-6.055,-5.615
4777,-6.040,-5.595
4778,-6.020,-5.605
4779,-6.025,-5.615
4780,-6.030,-5.605
4781,-6.035,-5.630
4782,-6.040,-5.625
4783,-6.045,-5.650
4784,-6.040,-5.645
4785,-6.040,-5.635
4786,-6.050,-5.625
4787,-6.035,-5.610
4788,-6.025,-5.605
4789,-6.020,-5.595
4790,-6.010,-5.595
4791,-6.025,-5.580
4792,-6.000,-5.595
4793,-6.000,-5.610
4794,-6.020,-5.615
4795,-6.025,-5.645
4796,-6.030,-5.635
4797,-6.040,-5.640
4798,-6.030,-5.645
4799,-6.020,-5.620
4800,-6.010,-5.615
4801,-6.010,-5.605
4802,-6.010,-5.620
4803,-5.990,-5.615
4804,-6.015,-5.610
4805,-6.020,-5.625
4806,-6.015,-5.645
4807,-6.025,-5.650
4808,-6.030,-5.645
4809,-6.025,-5.635
4810,-6.030,-5.630
4811,-6.020,-5.600
4812,-6.015,-5.605
4813,-6.010,-5.585
4814,-5.980,-5.585
4815,-5.995,-5.585
4816,-5.995,-5.595
4817,-6.010,-5.605
4818,-6.025,-5.625
4819,-6.010,-5.640
4820,-6.020,-5.615
4821,-6.020,-5.635
4822,-6.015,-5.615
4823,-6.000,-5.605
4824,-6.010,-5.610
4825,-5.990,-5.605
4826,-5.990,-5.585
4827,-5.995,-5.605
4828,-5.995,-5.610
4829,-6.005,-5.620
4830,-6.015,-5.620
4831,-6.015,-5.620
4832,-5.995,-5.635
4833,-6.005,-5.615
4834,-6.005,-5.600
4835,-5.975,-5.585
4836,-5.960,-5.565
4837,-5.960,-5.570
4838,-5.940,-5.565
4839,-5.930,-5.560
4840,-5.925,-5.575
4841,-5.905,-5.570
4842,-5.890,-5.570
4843,-5.875,-5.580
4844,-5.855,-5.560
4845,-5.855,-5.545
4846,-5.850,-5.550
4847,-5.825,-5.525
4848,-5.800,-5.520
4849,-5.760,-5.510
4850,-5.700,-5.505
4851,-5.665,-5.505
4852,-5.630,-5.505
4853,-5.625,-5.540
4854,-5.655,-5.570
4855,-5.675,-5.590
4856,-5.695,-5.610
4857,-5.685,-5.630
4858,-5.675,-5.625
4859,-5.665,-5.610
4860,-5.655,-5.610
4861,-5.650,-5.620
4862,-5.665,-5.610
4863,-5.715,-5.610
4864,-5.780,-5.640
4865,-5.840,-5.640
4866,-5.900,-5.640
4867,-5.940,-5.635
4868,-5.985,-5.650
4869,-6.015,-5.650
4870,-6.005,-5.650
4871,-6.000,-5.650
4872,-5.995,-5.645
4873,-5.975,-5.640
4874,-5.980,-5.650
4875,-5.970,-5.655
4876,-5.985,-5.650
4877,-6.000,-5.660
4878,-6.020,-5.655
4879,-6.015,-5.660
4880,-6.030,-5.670
4881,-6.040,-5.670
4882,-6.010,-5.650
4883,-6.010,-5.660
4884,-6.005,-5.650
4885,-5.990,-5.630
4886,-5.985,-5.640
4887,-6.000,-5.640
4888,-6.010,-5.635
4889,-6.020,-5.660
4890,-6.025,-5.655
4891,-6.020,-5.685
4892,-6.040,-5.665
4893,-6.055,-5.655
4894,-6.080,-5.630
4895,-6.055,-5.595
4896,-5.995,-5.530
4897,-5.905,-5.480
4898,-5.745,-5.435
4899,-5.530,-5.445
4900,-5.245,-5.485
4901,-4.920,-5.580
4902,-4.560,-5.720
4903,-4.240,-5.890
4904,-3.955,-6.110
4905,-3.805,-6.315
4906,-3.750,-6.495
4907,-3.790,-6.610
4908,-3.910,-6.645
4909,-4.160,-6.635
4910,-4.515,-6.585
4911,-4.995,-6.555
4912,-5.505,-6.505
4913,-5.905,-6.445
4914,-6.100,-6.365
4915,-6.135,-6.275
4916,-6.010,-6.195
4917,-5.885,-6.100
4918,-5.770,-6.020
4919,-5.725,-5.940
4920,-5.765,-5.870
4921,-5.815,-5.805
4922,-5.860,-5.735
4923,-5.945,-5.695
4924,-5.975,-5.665
4925,-6.015,-5.655
4926,-6.025,-5.655
4927,-6.015,-5.665
4928,-6.010,-5.655
4929,-6.015,-5.640
4930,-6.040,-5.635
4931,-6.025,-5.620
4932,-6.015,-5.595
4933,-6.010,-5.590
4934,-6.020,-5.590
4935,-6.020,-5.580
4936,-6.030,-5.580
4937,-6.035,-5.590
4938,-6.040,-5.600
4939,-6.045,-5.605
4940,-6.065,-5.605
4941,-6.060,-5.600
4942,-6.080,-5.590
4943,-6.075,-5.570
4944,-6.055,-5.580
4945,-6.055,-5.565
4946,-6.045,-5.565
4947,-6.045,-5.570
4948,-6.035,-5.565
4949,-6.045,-5.570
4950,-6.065,-5.580
4951,-6.065,-5.600
4952,-6.065,-5.590
4953,-6.060,-5.580
4954,-6.055,-5.570
4955,-6.045,-5.570
4956,-6.040,-5.550
4957,-6.030,-5.540
4958,-6.040,-5.550
4959,-6.025,-5.540
4960,-6.025,-5.540
4961,-6.035,-5.560
4962,-6.055,-5.565
4963,-6.065,-5.580
4964,-6.050,-5.585
4965,-6.060,-5.565
4966,-6.050,-5.545
4967,-6.030,-5.540
4968,-6.020,-5.525
4969,-6.015,-5.520
4970,-5.985,-5.515
4971,-5.990,-5.510
4972,-6.000,-5.500
4973,-5.995,-5.510
4974,-6.010,-5.530
4975,-6.005,-5.530
4976,-6.010,-5.555
4977,-6.000,-5.525
4978,-6.005,-5.515
4979,-5.990,-5.510
4980,-5.965,-5.510
4981,-5.950,-5.490
4982,-5.950,-5.495
4983,-5.955,-5.510
4984,-5.965,-5.510
4985,-5.965,-5.520
4986,-5.940,-5.510
4987,-5.930,-5.530
4988,-5.940,-5.515
4989,-5.945,-5.525
4990,-5.920,-5.495
4991,-5.875,-5.490
4992,-5.860,-5.470
4993,-5.830,-5.455
4994,-5.810,-5.455
4995,-5.800,-5.465
4996,-5.785,-5.460
4997,-5.760,-5.460
4998,-5.770,-5.475
4999,-5.755,-5.490
5000,-5.735,-5.485
5001,-5.735,-5.465
5002,-5.710,-5.465
5003,-5.680,-5.465
5004,-5.655,-5.470
5005,-5.640,-5.460
5006,-5.615,-5.460
5007,-5.605,-5.465
5008,-5.575,-5.475
5009,-5.565,-5.500
5010,-5.565,-5.505
5011,-5.555,-5.515
5012,-5.535,-5.515
5013,-5.530,-5.510
5014,-5.510,-5.495
5015,-5.480,-5.485
5016,-5.465,-5.500
5017,-5.455,-5.490
5018,-5.420,-5.490
5019,-5.415,-5.505
5020,-5.400,-5.495
5021,-5.415,-5.520
5022,-5.420,-5.535
5023,-5.420,-5.535
5024,-5.425,-5.560
5025,-5.445,-5.565
5026,-5.445,-5.550
5027,-5.470,-5.540
5028,-5.470,-5.535
5029,-5.500,-5.535
5030,-5.510,-5.535
5031,-5.530,-5.530
5032,-5.575,-5.545
5033,-5.605,-5.545
5034,-5.630,-5.550
5035,-5.660,-5.555
5036,-5.690,-5.565
5037,-5.725,-5.570
5038,-5.735,-5.545
5039,-5.760,-5.550
5040,-5.760,-5.550
5041,-5.795,-5.540
5042,-5.780,-5.535
5043,-5.800,-5.545
5044,-5.835,-5.550
5045,-5.840,-5.560
5046,-5.865,-5.570
5047,-5.875,-5.600
5048,-5.885,-5.605
5049,-5.905,-5.605
5050,-5.895,-5.605
5051,-5.905,-5.585
5052,-5.915,-5.565
5053,-5.905,-5.565
5054,-5.900,-5.555
5055,-5.905,-5.560
5056,-5.910,-5.575
5057,-5.910,-5.575
5058,-5.910,-5.580
5059,-5.900,-5.575
5060,-5.915,-5.585
5061,-5.925,-5.595
5062,-5.915,-5.570
5063,-5.910,-5.580
5064,-5.905,-5.575
5065,-5.890,-5.570
5066,-5.885,-5.565
5067,-5.895,-5.560
5068,-5.890,-5.560
5069,-5.900,-5.585
5070,-5.905,-5.600
5071,-5.900,-5.605
5072,-5.905,-5.625
5073,-5.900,-5.620
5074,-5.905,-5.615
5075,-5.895,-5.590
5076,-5.875,-5.585
5077,-5.860,-5.580
5078,-5.865,-5.570
5079,-5.860,-5.565
5080,-5.870,-5.560
5081,-5.870,-5.590
5082,-5.880,-5.590
5083,-5.890,-5.600
5084,-5.905,-5.615
5085,-5.895,-5.610
5086,-5.895,-5.600
5087,-5.865,-5.605
5088,-5.860,-5.570
5089,-5.850,-5.575
5090,-5.845,-5.575
5091,-5.840,-5.580
5092,-5.840,-5.595
5093,-5.860,-5.590
5094,-5.895,-5.610
5095,-5.890,-5.615
5096,-5.885,-5.625
5097,-5.900,-5.605
5098,-5.910,-5.625
5099,-5.895,-5.610
5100,-5.885,-5.600
5101,-5.880,-5.585
5102,-5.875,-5.575
5103,-5.880,-5.590
5104,-5.895,-5.610
5105,-5.895,-5.600
5106,-5.920,-5.620
5107,-5.920,-5.615
5108,-5.905,-5.610
5109,-5.930,-5.605
5110,-5.925,-5.610
5111,-5.920,-5.595
5112,-5.920,-5.590
5113,-5.910,-5.575
5114,-5.905,-5.585
5115,-5.905,-5.585
5116,-5.915,-5.590
5117,-5.930,-5.605
5118,-5.940,-5.600
5119,-5.945,-5.605
5120,-5.955,-5.620
5121,-5.970,-5.615
5122,-5.980,-5.620
5123,-5.955,-5.595
5124,-5.945,-5.590
5125,-5.930,-5.570
5126,-5.930,-5.560
5127,-5.925,-5.570
5128,-5.950,-5.575
5129,-5.960,-5.590
5130,-5.965,-5.605
5131,-5.965,-5.620
5132,-5.975,-5.625
5133,-5.985,-5.620
5134,-5.975,-5.620
5135,-5.965,-5.600
5136,-5.960,-5.605
5137,-5.955,-5.600
5138,-5.945,-5.595
5139,-5.950,-5.595
5140,-5.950,-5.600
5141,-5.955,-5.620
5142,-5.960,-5.640
5143,-5.960,-5.625
5144,-5.970,-5.635
5145,-5.970,-5.630
5146,-5.980,-5.615
5147,-5.960,-5.600
5148,-5.970,-5.615
5149,-5.950,-5.575
5150,-5.945,-5.590
5151,-5.960,-5.600
5152,-5.955,-5.595
5153,-5.970,-5.615
5154,-5.975,-5.630
5155,-5.985,-5.630
5156,-5.985,-5.635
5157,-5.980,-5.630
5158,-5.980,-5.630
5159,-5.965,-5.620
5160,-5.955,-5.620
5161,-5.960,-5.610
5162,-5.960,-5.610
5163,-5.955,-5.610
5164,-5.955,-5.620
5165,-5.960,-5.625
5166,-5.970,-5.625
5167,-5.965,-5.635
5168,-5.960,-5.625
5169,-5.950,-5.610
5170,-5.910,-5.595
5171,-5.895,-5.560
5172,-5.865,-5.555
5173,-5.845,-5.535
5174,-5.830,-5.525
5175,-5.810,-5.530
5176,-5.800,-5.520
5177,-5.795,-5.525
5178,-5.790,-5.530
5179,-5.755,-5.535
5180,-5.705,-5.540
5181,-5.675,-5.535
5182,-5.640,-5.565
5183,-5.620,-5.565
5184,-5.610,-5.570
5185,-5.630,-5.585
5186,-5.630,-5.600
5187,-5.635,-5.615
5188,-5.640,-5.620
5189,-5.650,-5.625
5190,-5.680,-5.640
5191,-5.710,-5.660
5192,-5.755,-5.670
5193,-5.805,-5.670
5194,-5.855,-5.675
5195,-5.900,-5.660
5196,-5.945,-5.635
5197,-5.970,-5.615
5198,-5.965,-5.640
5199,-5.980,-5.630
5200,-6.005,-5.645
5201,-6.020,-5.660
5202,-6.035,-5.685
5203,-6.025,-5.695
5204,-6.010,-5.700
5205,-6.025,-5.700
5206,-6.015,-5.690
5207,-6.020,-5.680
5208,-6.020,-5.675
5209,-6.015,-5.655
5210,-6.020,-5.645
5211,-6.025,-5.650
5212,-6.025,-5.640
5213,-6.035,-5.655
5214,-6.040,-5.665
5215,-6.040,-5.685
5216,-6.055,-5.685
5217,-6.055,-5.685
5218,-6.045,-5.675
5219,-6.040,-5.650
5220,-6.020,-5.650
5221,-6.010,-5.650
5222,-6.005,-5.645
5223,-5.995,-5.665
5224,-5.995,-5.650
5225,-6.000,-5.670
5226,-6.030,-5.665
5227,-6.050,-5.680
5228,-6.090,-5.660
5229,-6.110,-5.610
5230,-6.070,-5.580
5231,-5.980,-5.495
5232,-5.815,-5.440
5233,-5.585,-5.430
5234,-5.280,-5.470
5235,-4.915,-5.575
5236,-4.530,-5.730
5237,-4.175,-5.950
5238,-3.945,-6.195
5239,-3.810,-6.425
5240,-3.805,-6.590
5241,-3.925,-6.680
5242,-4.155,-6.710
5243,-4.535,-6.645
5244,-5.045,-6.570
5245,-5.555,-6.495
5246,-5.945,-6.420
5247,-6.145,-6.330
5248,-6.160,-6.235
5249,-6.040,-6.150
5250,-5.910,-6.070
5251,-5.820,-6.020
5252,-5.780,-5.960
5253,-5.800,-5.905
5254,-5.860,-5.830
5255,-5.930,-5.750
5256,-5.970,-5.705
5257,-6.010,-5.655
5258,-6.010,-5.630
5259,-6.015,-5.630
5260,-6.005,-5.625
5261,-6.010,-5.635
5262,-6.020,-5.625
5263,-6.025,-5.640
5264,-6.040,-5.630
5265,-6.070,-5.620
5266,-6.045,-5.610
5267,-6.035,-5.590
5268,-6.025,-5.590
5269,-6.035,-5.570
5270,-6.035,-5.580
5271,-6.025,-5.580
5272,-6.020,-5.580
5273,-6.045,-5.585
5274,-6.055,-5.570
5275,-6.055,-5.600
5276,-6.055,-5.585
5277,-6.060,-5.590
5278,-6.065,-5.565
5279,-6.040,-5.565
5280,-6.035,-5.555
5281,-6.040,-5.545
5282,-6.050,-5.535
5283,-6.040,-5.545
5284,-6.060,-5.540
5285,-6.055,-5.555
5286,-6.070,-5.565
5287,-6.080,-5.580
5288,-6.090,-5.585
5289,-6.075,-5.570
5290,-6.070,-5.575
5291,-6.055,-5.565
5292,-6.055,-5.560
5293,-6.045,-5.540
5294,-6.020,-5.540
5295,-6.025,-5.540
5296,-6.015,-5.535
5297,-6.040,-5.560
5298,-6.045,-5.550
5299,-6.050,-5.555
5300,-6.050,-5.545
5301,-6.050,-5.550
5302,-6.035,-5.545
5303,-6.030,-5.535
5304,-6.020,-5.530
5305,-6.010,-5.525
5306,-5.980,-5.525
5307,-5.975,-5.525
5308,-5.975,-5.520
5309,-5.965,-5.540
5310,-5.975,-5.545
5311,-5.980,-5.545
5312,-5.960,-5.560
5313,-5.975,-5.550
5314,-5.950,-5.550
5315,-5.935,-5.540
5316,-5.905,-5.535
5317,-5.900,-5.525
5318,-5.875,-5.515
5319,-5.870,-5.515
5320,-5.865,-5.515
5321,-5.830,-5.520
5322,-5.835,-5.525
5323,-5.820,-5.540
5324,-5.805,-5.555
5325,-5.775,-5.545
5326,-5.775,-5.545
5327,-5.755,-5.540
5328,-5.725,-5.520
5329,-5.695,-5.530
5330,-5.655,-5.510
5331,-5.615,-5.520
5332,-5.615,-5.535
5333,-5.605,-5.550
5334,-5.585,-5.560
5335,-5.570,-5.575
5336,-5.570,-5.575
5337,-5.570,-5.575
5338,-5.555,-5.585
5339,-5.515,-5.570
5340,-5.495,-5.560
5341,-5.465,-5.545
5342,-5.470,-5.545
5343,-5.470,-5.555
5344,-5.455,-5.555
5345,-5.465,-5.570
5346,-5.450,-5.575
5347,-5.445,-5.605
5348,-5.450,-5.615
5349,-5.455,-5.610
5350,-5.475,-5.605
5351,-5.465,-5.600
5352,-5.470,-5.580
5353,-5.480,-5.575
5354,-5.500,-5.575
5355,-5.515,-5.560
5356,-5.545,-5.565
5357,-5.575,-5.580
5358,-5.615,-5.590
5359,-5.670,-5.600
5360,-5.705,-5.575
5361,-5.740,-5.575
5362,-5.765,-5.565
5363,-5.785,-5.545
5364,-5.830,-5.545
5365,-5.830,-5.535
5366,-5.835,-5.535
5367,-5.850,-5.525
5368,-5.890,-5.530
5369,-5.910,-5.560
5370,-5.935,-5.560
5371,-5.965,-5.575
5372,-5.985,-5.560
5373,-6.005,-5.575
5374,-6.005,-5.575
5375,-6.015,-5.580
5376,-6.010,-5.560
5377,-6.010,-5.565
5378,-6.000,-5.555
5379,-6.015,-5.550
5380,-6.025,-5.565
5381,-6.025,-5.565
5382,-6.035,-5.590
5383,-6.040,-5.590
5384,-6.050,-5.590
5385,-6.055,-5.585
5386,-6.065,-5.585
5387,-6.060,-5.570
5388,-6.045,-5.560
5389,-6.045,-5.565
5390,-6.020,-5.555
5391,-6.045,-5.550
5392,-6.050,-5.555
5393,-6.030,-5.560
5394,-6.030,-5.575
5395,-6.035,-5.580
5396,-6.040,-5.595
5397,-6.035,-5.585
5398,-6.035,-5.590
5399,-6.055,-5.590
5400,-6.020,-5.585
5401,-6.015,-5.565
5402,-6.005,-5.560
5403,-6.005,-5.565
5404,-6.000,-5.565
5405,-6.025,-5.560
5406,-6.025,-5.570
5407,-6.015,-5.575
5408,-6.025,-5.575
5409,-6.025,-5.570
5410,-6.005,-5.575
5411,-5.985,-5.570
5412,-5.985,-5.560
5413,-5.980,-5.550
5414,-5.955,-5.550
5415,-5.965,-5.545
5416,-5.960,-5.565
5417,-5.975,-5.565
5418,-5.995,-5.575
5419,-6.015,-5.580
5420,-6.000,-5.595
5421,-6.015,-5.595
5422,-6.025,-5.585
5423,-6.005,-5.575
5424,-5.990,-5.575
5425,-5.990,-5.565
5426,-6.000,-5.550
5427,-5.980,-5.560
5428,-5.995,-5.560
5429,-6.000,-5.580
5430,-5.990,-5.575
5431,-6.005,-5.575
5432,-6.010,-5.585
5433,-6.010,-5.590
5434,-6.025,-5.575
5435,-6.005,-5.570
5436,-5.995,-5.570
5437,-6.015,-5.575
5438,-5.995,-5.555
5439,-5.990,-5.565
5440,-5.995,-5.565
5441,-6.005,-5.570
5442,-6.025,-5.580
5443,-6.040,-5.595
5444,-6.060,-5.595
5445,-6.045,-5.600
5446,-6.040,-5.590
5447,-6.040,-5.580
5448,-6.025,-5.580
5449,-6.020,-5.560
5450,-6.000,-5.550
5451,-6.005,-5.555
5452,-6.015,-5.560
5453,-6.020,-5.570
5454,-6.025,-5.565
5455,-6.035,-5.580
5456,-6.045,-5.605
5457,-6.050,-5.615
5458,-6.050,-5.595
5459,-6.055,-5.600
5460,-6.045,-5.575
5461,-6.035,-5.590
5462,-6.025,-5.570
5463,-6.020,-5.565
5464,-6.015,-5.585
5465,-6.035,-5.595
5466,-6.045,-5.595
5467,-6.040,-5.625
5468,-6.055,-5.615
5469,-6.070,-5.615
5470,-6.075,-5.605
5471,-6.055,-5.585
5472,-6.040,-5.575
5473,-6.030,-5.565
5474,-6.015,-5.560
5475,-6.010,-5.555
5476,-6.010,-5.550
5477,-6.005,-5.565
5478,-6.000,-5.575
5479,-5.990,-5.580
5480,-5.985,-5.595
5481,-5.980,-5.580
5482,-5.950,-5.550
5483,-5.945,-5.535
5484,-5.925,-5.540
5485,-5.900,-5.505
5486,-5.880,-5.505
5487,-5.880,-5.505
5488,-5.860,-5.530
5489,-5.850,-5.515
5490,-5.825,-5.525
5491,-5.810,-5.515
5492,-5.765,-5.525
5493,-5.740,-5.515
5494,-5.705,-5.515
5495,-5.700,-5.520
5496,-5.695,-5.515
5497,-5.700,-5.540
5498,-5.705,-5.545
5499,-5.700,-5.565
5500,-5.720,-5.585
5501,-5.705,-5.615
5502,-5.725,-5.620
5503,-5.740,-5.630
5504,-5.775,-5.645
5505,-5.825,-5.655
5506,-5.860,-5.640
5507,-5.910,-5.635
5508,-5.950,-5.635
5509,-6.000,-5.610
5510,-6.020,-5.595
5511,-6.035,-5.600
5512,-6.055,-5.615
5513,-6.055,-5.615
5514,-6.060,-5.635
5515,-6.080,-5.645
5516,-6.080,-5.635
5517,-6.075,-5.650
5518,-6.080,-5.645
5519,-6.075,-5.635
5520,-6.075,-5.625
5521,-6.090,-5.615
5522,-6.070,-5.615
5523,-6.085,-5.615
5524,-6.085,-5.620
5525,-6.090,-5.635
5526,-6.100,-5.625
5527,-6.090,-5.640
5528,-6.095,-5.655
5529,-6.085,-5.670
5530,-6.090,-5.655
5531,-6.075,-5.650
5532,-6.055,-5.640
5533,-6.040,-5.625
5534,-6.035,-5.625
5535,-6.055,-5.635
5536,-6.065,-5.630
5537,-6.070,-5.625
5538,-6.105,-5.620
5539,-6.120,-5.635
5540,-6.150,-5.625
5541,-6.135,-5.590
5542,-6.120,-5.555
5543,-6.050,-5.505
5544,-5.925,-5.445
5545,-5.750,-5.410
5546,-5.505,-5.435
5547,-5.200,-5.495
5548,-4.850,-5.600
5549,-4.485,-5.750
5550,-4.185,-5.960
5551,-3.965,-6.180
5552,-3.885,-6.375
5553,-3.890,-6.530
5554,-4.010,-6.600
5555,-4.270,-6.600
5556,-4.680,-6.575
5557,-5.210,-6.515
5558,-5.705,-6.420
5559,-6.050,-6.345
5560,-6.220,-6.255
5561,-6.190,-6.175
5562,-6.070,-6.110
5563,-5.940,-6.040
5564,-5.865,-5.985
5565,-5.855,-5.905
5566,-5.895,-5.840
5567,-5.950,-5.790
5568,-5.990,-5.730
5569,-6.035,-5.675
5570,-6.045,-5.635
5571,-6.050,-5.630
5572,-6.065,-5.640
5573,-6.065,-5.640
5574,-6.075,-5.645
5575,-6.080,-5.645
5576,-6.080,-5.650
5577,-6.085,-5.645
5578,-6.090,-5.635
5579,-6.085,-5.615
5580,-6.065,-5.600
5581,-6.060,-5.575
5582,-6.055,-5.575
5583,-6.055,-5.565
5584,-6.070,-5.575
5585,-6.075,-5.575
5586,-6.085,-5.590
5587,-6.085,-5.585
5588,-6.100,-5.600
5589,-6.120,-5.590
5590,-6.110,-5.605
5591,-6.105,-5.600
5592,-6.085,-5.575
5593,-6.100,-5.575
5594,-6.095,-5.555
5595,-6.105,-5.555
5596,-6.075,-5.555
5597,-6.075,-5.575
5598,-6.080,-5.580
5599,-6.080,-5.585
5600,-6.095,-5.590
5601,-6.080,-5.595
5602,-6.080,-5.585
5603,-6.090,-5.565
5604,-6.055,-5.540
5605,-6.065,-5.530
5606,-6.045,-5.515
5607,-6.040,-5.530
5608,-6.045,-5.535
5609,-6.035,-5.550
5610,-6.040,-5.565
5611,-6.050,-5.550
5612,-6.060,-5.570
5613,-6.075,-5.565
5614,-6.055,-5.560
5615,-6.065,-5.550
5616,-6.025,-5.530
5617,-6.010,-5.530
5618,-5.985,-5.525
5619,-5.975,-5.535
5620,-6.005,-5.535
5621,-6.005,-5.535
5622,-6.015,-5.545
5623,-5.985,-5.550
5624,-5.990,-5.560
5625,-5.980,-5.565
5626,-5.970,-5.550
5627,-5.950,-5.535
5628,-5.940,-5.520
5629,-5.910,-5.500
5630,-5.900,-5.500
5631,-5.885,-5.510
5632,-5.880,-5.515
5633,-5.875,-5.535
5634,-5.865,-5.520
5635,-5.875,-5.530
5636,-5.865,-5.530
5637,-5.845,-5.540
5638,-5.835,-5.525
5639,-5.810,-5.530
5640,-5.775,-5.520
5641,-5.760,-5.515
5642,-5.740,-5.515
5643,-5.705,-5.525
5644,-5.695,-5.535
5645,-5.685,-5.515
5646,-5.660,-5.545
5647,-5.655,-5.555
5648,-5.630,-5.550
5649,-5.625,-5.550
5650,-5.610,-5.550
5651,-5.590,-5.545
5652,-5.545,-5.525
5653,-5.540,-5.515
5654,-5.515,-5.510
5655,-5.500,-5.525
5656,-5.495,-5.540
5657,-5.490,-5.540
5658,-5.500,-5.555
5659,-5.480,-5.545
5660,-5.475,-5.570
5661,-5.465,-5.575
5662,-5.465,-5.580
5663,-5.450,-5.575
5664,-5.435,-5.570
5665,-5.435,-5.560
5666,-5.435,-5.555
5667,-5.445,-5.555
5668,-5.475,-5.565
5669,-5.520,-5.560
5670,-5.545,-5.585
5671,-5.595,-5.565
5672,-5.600,-5.560
5673,-5.640,-5.570
5674,-5.670,-5.555
5675,-5.700,-5.540
5676,-5.730,-5.520
5677,-5.745,-5.525
5678,-5.775,-5.495
5679,-5.795,-5.510
5680,-5.815,-5.530
5681,-5.865,-5.525
5682,-5.885,-5.550
5683,-5.905,-5.570
5684,-5.920,-5.565
5685,-5.945,-5.565
5686,-5.955,-5.565
5687,-5.960,-5.570
5688,-5.980,-5.560
5689,-5.980,-5.550
5690,-5.960,-5.540
5691,-5.965,-5.540
5692,-5.975,-5.570
5693,-6.000,-5.555
5694,-6.010,-5.580
5695,-6.020,-5.585
5696,-6.025,-5.575
5697,-6.015,-5.605
5698,-6.030,-5.565
5699,-6.045,-5.590
5700,-6.025,-5.570
5701,-6.025,-5.565
5702,-6.015,-5.555
5703,-6.015,-5.550
5704,-6.020,-5.560
5705,-6.025,-5.565
5706,-6.025,-5.570
5707,-6.055,-5.590
5708,-6.070,-5.585
5709,-6.060,-5.590
5710,-6.055,-5.595
5711,-6.060,-5.585
5712,-6.040,-5.585
5713,-6.015,-5.570
5714,-6.015,-5.560
5715,-6.005,-5.545
5716,-6.000,-5.555
5717,-6.005,-5.560
5718,-6.015,-5.570
5719,-6.020,-5.585
5720,-6.020,-5.590
5721,-6.010,-5.585
5722,-6.015,-5.595
5723,-6.015,-5.590
5724,-6.000,-5.565
5725,-5.995,-5.565
5726,-5.985,-5.555
5727,-5.970,-5.570
5728,-5.965,-5.575
5729,-5.960,-5.580
5730,-5.975,-5.605
5731,-5.985,-5.605
5732,-5.980,-5.615
5733,-5.975,-5.615
5734,-5.975,-5.610
5735,-5.975,-5.600
5736,-5.960,-5.595
5737,-5.955,-5.575
5738,-5.940,-5.575
5739,-5.945,-5.575
5740,-5.950,-5.570
5741,-5.950,-5.590
5742,-5.965,-5.605
5743,-5.965,-5.605
5744,-5.985,-5.610
5745,-5.980,-5.610
5746,-5.975,-5.595
5747,-5.985,-5.600
5748,-5.965,-5.595
5749,-5.965,-5.595
5750,-5.960,-5.575
5751,-5.965,-5.580
5752,-5.970,-5.595
5753,-5.985,-5.600
5754,-5.995,-5.625
5755,-6.000,-5.630
5756,-6.010,-5.650
5757,-6.030,-5.645
5758,-6.020,-5.655
5759,-6.000,-5.635
5760,-6.000,-5.620
5761,-6.010,-5.605
5762,-6.000,-5.590
5763,-5.980,-5.600
5764,-5.990,-5.590
5765,-6.000,-5.595
5766,-6.005,-5.605
5767,-6.020,-5.605
5768,-6.025,-5.625
5769,-6.035,-5.620
5770,-6.035,-5.610
5771,-6.040,-5.605
5772,-6.025,-5.605
5773,-6.010,-5.595
5774,-6.020,-5.585
5775,-6.020,-5.605
5776,-6.015,-5.595
5777,-6.025,-5.625
5778,-6.020,-5.615
5779,-6.035,-5.630
5780,-6.045,-5.635
5781,-6.055,-5.650
5782,-6.040,-5.640
5783,-6.035,-5.630
5784,-6.030,-5.610
5785,-6.030,-5.600
5786,-6.015,-5.590
5787,-6.015,-5.605
5788,-6.020,-5.590
5789,-6.025,-5.605
5790,-6.025,-5.615
5791,-6.050,-5.630
5792,-6.070,-5.635
5793,-6.080,-5.635
5794,-6.065,-5.630
5795,-6.045,-5.630
5796,-6.040,-5.615
5797,-6.035,-5.615
5798,-6.020,-5.610
5799,-6.015,-5.600
5800,-6.020,-5.610
5801,-6.020,-5.610
5802,-6.035,-5.635
5803,-6.050,-5.635
5804,-6.050,-5.635
5805,-6.020,-5.640
5806,-6.035,-5.620
5807,-6.020,-5.595
5808,-5.985,-5.580
5809,-5.935,-5.555
5810,-5.905,-5.545
5811,-5.900,-5.545
5812,-5.875,-5.545
5813,-5.865,-5.545
5814,-5.865,-5.530
5815,-5.860,-5.550
5816,-5.850,-5.545
5817,-5.835,-5.535
5818,-5.805,-5.530
5819,-5.775,-5.525
5820,-5.720,-5.520
5821,-5.675,-5.515
5822,-5.645,-5.535
5823,-5.655,-5.570
5824,-5.675,-5.600
5825,-5.695,-5.625
5826,-5.705,-5.645
5827,-5.720,-5.655
5828,-5.725,-5.660
5829,-5.725,-5.640
5830,-5.740,-5.655
5831,-5.740,-5.650
5832,-5.765,-5.650
5833,-5.800,-5.640
5834,-5.845,-5.635
5835,-5.915,-5.650
5836,-5.975,-5.640
5837,-6.035,-5.650
5838,-6.030,-5.645
5839,-6.040,-5.660
5840,-6.055,-5.655
5841,-6.075,-5.675
5842,-6.070,-5.675
5843,-6.070,-5.665
5844,-6.055,-5.655
5845,-6.070,-5.660
5846,-6.065,-5.640
5847,-6.060,-5.655
5848,-6.065,-5.660
5849,-6.075,-5.675
5850,-6.090,-5.675
5851,-6.095,-5.685
5852,-6.090,-5.675
5853,-6.105,-5.670
5854,-6.095,-5.680
5855,-6.100,-5.660
5856,-6.085,-5.660
5857,-6.075,-5.655
5858,-6.085,-5.655
5859,-6.090,-5.645
5860,-6.090,-5.645
5861,-6.085,-5.670
5862,-6.090,-5.670
5863,-6.095,-5.675
5864,-6.085,-5.665
5865,-6.080,-5.680
5866,-6.090,-5.670
5867,-6.085,-5.680
5868,-6.070,-5.670
5869,-6.105,-5.650
5870,-6.120,-5.625
5871,-6.125,-5.590
5872,-6.115,-5.560
5873,-6.050,-5.500
5874,-5.915,-5.455
5875,-5.735,-5.445
5876,-5.490,-5.465
5877,-5.150,-5.565
5878,-4.780,-5.695
5879,-4.395,-5.875
5880,-4.070,-6.090
5881,-3.855,-6.330
5882,-3.770,-6.515
5883,-3.780,-6.670
5884,-3.930,-6.740
5885,-4.200,-6.760
5886,-4.640,-6.735
5887,-5.150,-6.680
5888,-5.675,-6.605
5889,-6.050,-6.510
5890,-6.205,-6.405
5891,-6.180,-6.280
5892,-6.045,-6.160
5893,-5.895,-6.055
5894,-5.825,-5.980
5895,-5.800,-5.895
5896,-5.830,-5.830
5897,-5.895,-5.785
5898,-5.975,-5.735
5899,-6.040,-5.700
5900,-6.070,-5.685
5901,-6.080,-5.670
5902,-6.090,-5.670
5903,-6.085,-5.655
5904,-6.070,-5.630
5905,-6.065,-5.625
5906,-6.050,-5.605
5907,-6.065,-5.605
5908,-6.070,-5.615
5909,-6.070,-5.620
5910,-6.075,-5.605
5911,-6.085,-5.620
5912,-6.105,-5.620
5913,-6.105,-5.630
5914,-6.105,-5.630
5915,-6.095,-5.605
5916,-6.085,-5.610
5917,-6.075,-5.595
5918,-6.075,-5.585
5919,-6.060,-5.585
5920,-6.065,-5.585
5921,-6.070,-5.590
5922,-6.090,-5.600
5923,-6.085,-5.610
5924,-6.095,-5.615
5925,-6.110,-5.605
5926,-6.105,-5.595
5927,-6.085,-5.590
5928,-6.085,-5.580
5929,-6.080,-5.575
5930,-6.075,-5.555
5931,-6.060,-5.570
5932,-6.060,-5.580
5933,-6.070,-5.565
5934,-6.075,-5.580
5935,-6.075,-5.580
5936,-6.080,-5.605
5937,-6.080,-5.600
5938,-6.070,-5.615
5939,-6.075,-5.580
5940,-6.065,-5.595
5941,-6.060,-5.565
5942,-6.050,-5.540
5943,-6.055,-5.555
5944,-6.050,-5.560
5945,-6.045,-5.550
5946,-6.040,-5.555
5947,-6.040,-5.560
5948,-6.045,-5.585
5949,-6.035,-5.580
5950,-6.020,-5.575
5951,-6.010,-5.575
5952,-6.005,-5.560
5953,-5.975,-5.550
5954,-5.960,-5.545
5955,-5.965,-5.540
5956,-5.945,-5.535
5957,-5.935,-5.555
5958,-5.960,-5.555
5959,-5.955,-5.570
5960,-5.955,-5.565
5961,-5.950,-5.575
5962,-5.905,-5.555
5963,-5.895,-5.545
5964,-5.870,-5.540
5965,-5.850,-5.515
5966,-5.830,-5.490
5967,-5.800,-5.500
5968,-5.780,-5.495
5969,-5.755,-5.520
5970,-5.745,-5.520
5971,-5.740,-5.530
5972,-5.735,-5.545
5973,-5.710,-5.535
5974,-5.680,-5.535
5975,-5.670,-5.520
5976,-5.625,-5.500
5977,-5.615,-5.515
5978,-5.585,-5.500
5979,-5.540,-5.515
5980,-5.530,-5.525
5981,-5.515,-5.535
5982,-5.505,-5.550
5983,-5.495,-5.545
5984,-5.480,-5.555
5985,-5.480,-5.560
5986,-5.455,-5.560
5987,-5.440,-5.525
5988,-5.415,-5.530
5989,-5.400,-5.530
5990,-5.390,-5.520
5991,-5.390,-5.520
5992,-5.395,-5.550
5993,-5.380,-5.565
5994,-5.400,-5.570
5995,-5.430,-5.595
5996,-5.450,-5.605
5997,-5.470,-5.615
5998,-5.490,-5.595
5999,-5.500,-5.580
6000,-5.530,-5.565
6001,-5.555,-5.560
6002,-5.590,-5.540
6003,-5.605,-5.535
6004,-5.645,-5.540
6005,-5.670,-5.560
6006,-5.710,-5.565
6007,-5.745,-5.560
6008,-5.775,-5.570
6009,-5.815,-5.585
6010,-5.840,-5.570
6011,-5.850,-5.570
6012,-5.865,-5.550
6013,-5.875,-5.555
6014,-5.895,-5.535
6015,-5.895,-5.570
6016,-5.915,-5.580
6017,-5.925,-5.580
6018,-5.940,-5.600
6019,-5.955,-5.605
6020,-5.975,-5.610
6021,-5.990,-5.615
6022,-6.000,-5.605
6023,-5.995,-5.610
6024,-5.985,-5.605
6025,-5.980,-5.590
6026,-5.985,-5.585
6027,-5.980,-5.605
6028,-5.985,-5.595
6029,-5.995,-5.600
6030,-5.995,-5.610
6031,-6.010,-5.625
6032,-6.015,-5.605
6033,-6.010,-5.600
6034,-6.015,-5.610
6035,-6.030,-5.605
6036,-6.000,-5.585
6037,-6.000,-5.595
6038,-5.975,-5.595
6039,-5.980,-5.580
6040,-5.975,-5.585
6041,-5.975,-5.595
6042,-5.990,-5.615
6043,-6.000,-5.620
6044,-6.015,-5.630
6045,-6.010,-5.635
6046,-6.000,-5.645
6047,-5.995,-5.620
6048,-5.985,-5.605
6049,-5.965,-5.620
6050,-5.955,-5.600
6051,-5.950,-5.585
6052,-5.955,-5.595
6053,-5.955,-5.590
6054,-5.955,-5.590
6055,-5.955,-5.610
6056,-5.975,-5.620
6057,-6.000,-5.625
6058,-5.995,-5.620
6059,-5.980,-5.620
6060,-5.970,-5.615
6061,-5.955,-5.615
6062,-5.955,-5.610
6063,-5.940,-5.605
6064,-5.945,-5.610
6065,-5.945,-5.615
6066,-5.960,-5.625
6067,-5.965,-5.635
6068,-5.960,-5.650
6069,-5.975,-5.655
6070,-5.995,-5.645
6071,-6.000,-5.640
6072,-5.985,-5.625
6073,-5.990,-5.625
6074,-5.965,-5.620
6075,-5.960,-5.605
6076,-5.980,-5.600
6077,-5.960,-5.605
6078,-5.975,-5.630
6079,-5.985,-5.640
6080,-5.985,-5.655
6081,-5.995,-5.650
6082,-6.005,-5.640
6083,-5.995,-5.635
6084,-5.990,-5.630
6085,-6.010,-5.620
6086,-5.960,-5.610
6087,-5.975,-5.610
6088,-5.990,-5.620
6089,-5.975,-5.625
6090,-5.990,-5.630
6091,-6.000,-5.645
6092,-6.005,-5.670
6093,-6.005,-5.665
6094,-6.005,-5.660
6095,-6.000,-5.655
6096,-5.995,-5.640
6097,-5.995,-5.620
6098,-5.995,-5.620
6099,-5.990,-5.625
6100,-6.000,-5.615
6101,-6.020,-5.630
6102,-6.015,-5.635
6103,-6.010,-5.650
6104,-6.030,-5.655
6105,-6.025,-5.675
6106,-6.035,-5.645
6107,-6.020,-5.640
6108,-6.015,-5.630
6109,-6.010,-5.645
6110,-5.990,-5.635
6111,-5.995,-5.635
6112,-5.995,-5.640
6113,-6.010,-5.645
6114,-6.005,-5.670
6115,-6.020,-5.675
6116,-6.025,-5.685
6117,-6.040,-5.680
6118,-6.045,-5.665
6119,-6.045,-5.670
6120,-6.020,-5.675
6121,-6.005,-5.640
6122,-6.015,-5.630
6123,-5.995,-5.630
6124,-6.000,-5.645
6125,-6.000,-5.640
6126,-6.005,-5.655
6127,-6.015,-5.665
6128,-6.025,-5.670
6129,-6.025,-5.670
6130,-6.020,-5.670
6131,-6.015,-5.650
6132,-6.000,-5.645
6133,-5.970,-5.645
6134,-5.980,-5.645
6135,-5.965,-5.635
6136,-5.970,-5.640
6137,-5.945,-5.625
6138,-5.940,-5.625
6139,-5.935,-5.615
6140,-5.930,-5.625
6141,-5.900,-5.615
6142,-5.905,-5.585
6143,-5.880,-5.575
6144,-5.855,-5.555
6145,-5.830,-5.530
6146,-5.810,-5.515
6147,-5.780,-5.525
6148,-5.755,-5.525
6149,-5.715,-5.535
6150,-5.695,-5.560
6151,-5.695,-5.585
6152,-5.665,-5.615
6153,-5.680,-5.640
6154,-5.690,-5.655
6155,-5.700,-5.655
6156,-5.695,-5.680
6157,-5.680,-5.690
6158,-5.680,-5.665
6159,-5.685,-5.665
6160,-5.720,-5.680
6161,-5.760,-5.675
6162,-5.810,-5.690
6163,-5.885,-5.705
6164,-5.955,-5.695
6165,-5.995,-5.705
6166,-6.030,-5.680
6167,-6.045,-5.675
6168,-6.045,-5.660
6169,-6.030,-5.675
6170,-6.025,-5.655
6171,-6.015,-5.675
6172,-6.035,-5.695
6173,-6.045,-5.690
6174,-6.050,-5.715
6175,-6.050,-5.715
6176,-6.070,-5.735
6177,-6.070,-5.735
6178,-6.080,-5.730
6179,-6.075,-5.715
6180,-6.070,-5.710
6181,-6.065,-5.700
6182,-6.065,-5.685
6183,-6.045,-5.675
6184,-6.045,-5.670
6185,-6.070,-5.675
6186,-6.075,-5.685
6187,-6.080,-5.710
6188,-6.085,-5.710
6189,-6.090,-5.705
6190,-6.095,-5.690
6191,-6.090,-5.695
6192,-6.060,-5.695
6193,-6.050,-5.685
6194,-6.035,-5.665
6195,-6.045,-5.675
6196,-6.050,-5.665
6197,-6.085,-5.670
6198,-6.110,-5.655
6199,-6.140,-5.635
6200,-6.140,-5.605
6201,-6.060,-5.550
6202,-5.955,-5.505
6203,-5.765,-5.475
6204,-5.500,-5.505
6205,-5.165,-5.560
6206,-4.790,-5.680
6207,-4.430,-5.875
6208,-4.135,-6.090
6209,-3.930,-6.330
6210,-3.850,-6.545
6211,-3.895,-6.685
6212,-4.050,-6.755
6213,-4.330,-6.735
6214,-4.785,-6.675
6215,-5.310,-6.595
6216,-5.820,-6.515
6217,-6.150,-6.420
6218,-6.250,-6.320
6219,-6.205,-6.215
6220,-6.060,-6.150
6221,-5.920,-6.075
6222,-5.845,-6.035
6223,-5.830,-5.980
6224,-5.875,-5.905
6225,-5.965,-5.850
6226,-6.010,-5.795
6227,-6.045,-5.755
6228,-6.070,-5.710
6229,-6.065,-5.675
6230,-6.050,-5.660
6231,-6.045,-5.645
6232,-6.045,-5.640
6233,-6.070,-5.655
6234,-6.060,-5.635
6235,-6.090,-5.645
6236,-6.100,-5.650
6237,-6.110,-5.645
6238,-6.110,-5.630
6239,-6.115,-5.640
6240,-6.095,-5.625
6241,-6.090,-5.610
6242,-6.085,-5.600
6243,-6.075,-5.600
6244,-6.100,-5.600
6245,-6.110,-5.615
6246,-6.110,-5.630
6247,-6.130,-5.630
6248,-6.130,-5.640
6249,-6.125,-5.640
6250,-6.120,-5.630
6251,-6.110,-5.605
6252,-6.105,-5.605
6253,-6.105,-5.575
6254,-6.095,-5.575
6255,-6.070,-5.580
6256,-6.090,-5.580
6257,-6.090,-5.590
6258,-6.100,-5.605
6259,-6.110,-5.610
6260,-6.140,-5.645
6261,-6.120,-5.625
6262,-6.115,-5.635
6263,-6.105,-5.630
6264,-6.105,-5.620
6265,-6.080,-5.625
6266,-6.070,-5.610
6267,-6.055,-5.585
6268,-6.060,-5.595
6269,-6.070,-5.600
6270,-6.060,-5.610
6271,-6.085,-5.600
6272,-6.085,-5.605
6273,-6.080,-5.610
6274,-6.070,-5.590
6275,-6.065,-5.605
6276,-6.035,-5.590
6277,-6.035,-5.570
6278,-6.000,-5.565
6279,-5.985,-5.560
6280,-5.980,-5.570
6281,-5.965,-5.580
6282,-5.985,-5.590
6283,-5.995,-5.590
6284,-5.995,-5.595
6285,-5.975,-5.615
6286,-5.965,-5.610
6287,-5.950,-5.600
6288,-5.940,-5.580
6289,-5.910,-5.580
6290,-5.905,-5.570
6291,-5.870,-5.575
6292,-5.850,-5.555
6293,-5.835,-5.575
6294,-5.830,-5.580
6295,-5.800,-5.575
6296,-5.800,-5.595
6297,-5.780,-5.605
6298,-5.775,-5.595
6299,-5.730,-5.595
6300,-5.695,-5.570
6301,-5.675,-5.590
6302,-5.630,-5.585
6303,-5.610,-5.585
6304,-5.590,-5.605
6305,-5.585,-5.600
6306,-5.585,-5.615
6307,-5.565,-5.615
6308,-5.560,-5.630
6309,-5.535,-5.655
6310,-5.525,-5.645
6311,-5.525,-5.645
6312,-5.495,-5.650
6313,-5.475,-5.635
6314,-5.455,-5.620
6315,-5.435,-5.610
6316,-5.430,-5.615
6317,-5.440,-5.615
6318,-5.445,-5.630
6319,-5.450,-5.640
6320,-5.475,-5.640
6321,-5.475,-5.655
6322,-5.505,-5.635
6323,-5.525,-5.650
6324,-5.540,-5.625
6325,-5.555,-5.600
6326,-5.590,-5.615
6327,-5.610,-5.595
6328,-5.655,-5.585
6329,-5.690,-5.595
6330,-5.740,-5.605
6331,-5.765,-5.590
6332,-5.795,-5.610
6333,-5.845,-5.610
6334,-5.870,-5.605
6335,-5.895,-5.600
6336,-5.895,-5.580
6337,-5.930,-5.575
6338,-5.940,-5.555
6339,-5.950,-5.545
6340,-5.970,-5.555
6341,-5.985,-5.550
6342,-6.000,-5.570
6343,-6.020,-5.590
6344,-6.030,-5.605
6345,-6.050,-5.620
6346,-6.045,-5.610
6347,-6.045,-5.600
6348,-6.050,-5.600
6349,-6.040,-5.590
6350,-6.030,-5.580
6351,-6.030,-5.585
6352,-6.045,-5.600
6353,-6.055,-5.590
6354,-6.060,-5.600
6355,-6.075,-5.625
6356,-6.075,-5.635
6357,-6.090,-5.640
6358,-6.095,-5.635
6359,-6.090,-5.610
6360,-6.075,-5.590
6361,-6.065,-5.570
6362,-6.065,-5.575
6363,-6.060,-5.575
6364,-6.055,-5.590
6365,-6.055,-5.590
6366,-6.065,-5.590
6367,-6.095,-5.615
6368,-6.095,-5.630
6369,-6.085,-5.625
6370,-6.080,-5.625
