'sample interval','MLII','V1'
'0.00277778 sec','mV','mV'
0,-5.955,-5.635
1,-5.955,-5.635
2,-5.955,-5.635
3,-5.955,-5.635
4,-5.955,-5.635
5,-5.955,-5.635
6,-5.955,-5.635
7,-5.935,-5.635
8,-5.935,-5.605
9,-5.950,-5.620
10,-5.960,-5.635
11,-5.970,-5.670
12,-5.995,-5.710
13,-6.005,-5.755
14,-6.040,-5.770
15,-6.090,-5.785
16,-6.130,-5.760
17,-6.160,-5.745
18,-6.185,-5.735
19,-6.215,-5.735
20,-6.205,-5.735
21,-6.185,-5.770
22,-6.190,-5.795
23,-6.180,-5.800
24,-6.170,-5.810
25,-6.180,-5.825
26,-6.180,-5.805
27,-6.185,-5.805
28,-6.185,-5.795
29,-6.185,-5.760
30,-6.200,-5.760
31,-6.200,-5.765
32,-6.235,-5.750
33,-6.235,-5.750
34,-6.215,-5.760
35,-6.190,-5.760
36,-6.175,-5.785
37,-6.175,-5.795
38,-6.195,-5.810
39,-6.220,-5.800
40,-6.220,-5.810
41,-6.235,-5.800
42,-6.230,-5.805
43,-6.230,-5.815
44,-6.225,-5.820
45,-6.225,-5.825
46,-6.230,-5.815
47,-6.220,-5.800
48,-6.225,-5.805
49,-6.210,-5.770
50,-6.210,-5.775
51,-6.200,-5.780
52,-6.185,-5.820
53,-6.200,-5.840
54,-6.170,-5.885
55,-6.155,-5.965
56,-6.115,-6.050
57,-6.020,-6.155
58,-5.875,-6.295
59,-5.690,-6.450
60,-5.515,-6.605
61,-5.395,-6.730
62,-5.355,-6.790
63,-5.360,-6.730
64,-5.350,-6.620
65,-5.320,-6.445
66,-5.250,-6.295
67,-5.135,-6.160
68,-5.010,-6.030
69,-4.895,-5.875
70,-4.875,-5.630
71,-4.965,-5.315
72,-5.260,-5.010
73,-5.695,-4.780
74,-6.200,-4.715
75,-6.620,-4.820
76,-6.910,-5.050
77,-7.040,-5.330
78,-7.100,-5.565
79,-7.130,-5.730
80,-7.170,-5.815
81,-7.240,-5.860
82,-7.290,-5.895
83,-7.290,-5.920
84,-7.260,-5.975
85,-7.195,-6.045
86,-7.180,-6.105
87,-7.165,-6.125
88,-7.145,-6.130
89,-7.105,-6.090
90,-7.070,-6.070
91,-7.020,-6.085
92,-6.920,-6.070
93,-6.805,-6.080
94,-6.690,-6.050
95,-6.565,-6.040
96,-6.455,-5.995
97,-6.350,-5.960
98,-6.295,-5.880
99,-6.260,-5.820
100,-6.270,-5.765
101,-6.290,-5.720
102,-6.290,-5.685
103,-6.260,-5.685
104,-6.215,-5.705
105,-6.180,-5.725
106,-6.220,-5.740
107,-6.300,-5.730
108,-6.350,-5.715
109,-6.330,-5.705
110,-6.215,-5.720
111,-6.105,-5.755
112,-6.080,-5.790
113,-6.115,-5.830
114,-6.155,-5.825
115,-6.190,-5.840
116,-6.200,-5.825
117,-6.160,-5.840
118,-6.135,-5.875
119,-6.115,-5.895
120,-6.130,-5.905
121,-6.165,-5.920
122,-6.205,-5.905
123,-6.235,-5.890
124,-6.225,-5.895
125,-6.225,-5.905
126,-6.245,-5.950
127,-6.260,-6.005
128,-6.295,-6.055
129,-6.305,-6.090
130,-6.295,-6.115
131,-6.305,-6.110
132,-6.325,-6.110
133,-6.320,-6.095
134,-6.325,-6.085
135,-6.320,-6.080
136,-6.285,-6.080
137,-6.250,-6.090
138,-6.255,-6.105
139,-6.270,-6.120
140,-6.330,-6.170
141,-6.345,-6.160
142,-6.325,-6.180
143,-6.335,-6.175
144,-6.350,-6.165
145,-6.385,-6.185
146,-6.380,-6.175
147,-6.330,-6.170
148,-6.270,-6.175
149,-6.270,-6.200
150,-6.295,-6.245
151,-6.325,-6.265
152,-6.370,-6.285
153,-6.440,-6.280
154,-6.515,-6.270
155,-6.590,-6.260
156,-6.615,-6.270
157,-6.605,-6.280
158,-6.550,-6.240
159,-6.495,-6.215
160,-6.455,-6.195
161,-6.395,-6.150
162,-6.330,-6.105
163,-6.275,-6.095
164,-6.280,-6.085
165,-6.335,-6.080
166,-6.390,-6.095
167,-6.420,-6.095
168,-6.410,-6.100
169,-6.380,-6.100
170,-6.335,-6.095
171,-6.290,-6.085
172,-6.255,-6.075
173,-6.210,-6.055
174,-6.185,-6.050
175,-6.160,-6.045
176,-6.155,-6.050
177,-6.145,-6.045
178,-6.175,-6.020
179,-6.190,-6.005
180,-6.190,-5.980
181,-6.160,-5.965
182,-6.110,-5.945
183,-6.080,-5.930
184,-6.040,-5.940
185,-6.005,-5.950
186,-5.995,-5.950
187,-6.010,-5.950
188,-6.010,-5.950
189,-6.035,-5.940
190,-6.085,-5.910
191,-6.125,-5.885
192,-6.155,-5.845
193,-6.160,-5.840
194,-6.095,-5.820
195,-6.025,-5.810
196,-6.005,-5.810
197,-5.970,-5.820
198,-5.975,-5.820
199,-6.025,-5.825
200,-6.040,-5.825
201,-6.075,-5.815
202,-6.100,-5.800
203,-6.075,-5.790
204,-6.060,-5.790
205,-6.055,-5.780
206,-6.070,-5.775
207,-6.080,-5.755
208,-6.040,-5.755
209,-6.035,-5.745
210,-6.020,-5.785
211,-6.050,-5.795
212,-6.065,-5.795
213,-6.065,-5.780
214,-6.045,-5.785
215,-6.035,-5.770
216,-6.090,-5.785
217,-6.155,-5.815
218,-6.180,-5.805
219,-6.170,-5.800
220,-6.125,-5.815
221,-6.060,-5.820
222,-6.045,-5.805
223,-6.040,-5.800
224,-6.045,-5.790
225,-6.050,-5.790
226,-6.045,-5.780
227,-6.050,-5.790
228,-6.055,-5.795
229,-6.045,-5.805
230,-6.060,-5.795
231,-6.105,-5.760
232,-6.160,-5.735
233,-6.195,-5.735
234,-6.160,-5.730
235,-6.095,-5.765
236,-6.055,-5.800
237,-6.025,-5.865
238,-6.020,-5.870
239,-6.080,-5.885
240,-6.140,-5.865
241,-6.190,-5.830
242,-6.180,-5.800
243,-6.140,-5.795
244,-6.075,-5.780
245,-6.010,-5.810
246,-5.970,-5.830
247,-5.990,-5.850
248,-6.035,-5.850
249,-6.095,-5.850
250,-6.160,-5.825
251,-6.165,-5.805
252,-6.145,-5.800
253,-6.095,-5.790
254,-6.055,-5.825
255,-6.025,-5.840
256,-6.045,-5.840
257,-6.060,-5.850
258,-6.070,-5.825
259,-6.075,-5.825
260,-6.100,-5.810
261,-6.095,-5.815
262,-6.095,-5.840
263,-6.105,-5.860
264,-6.110,-5.860
265,-6.085,-5.875
266,-6.070,-5.880
267,-6.050,-5.850
268,-6.010,-5.840
269,-5.985,-5.825
270,-6.000,-5.850
271,-5.995,-5.870
272,-6.045,-5.865
273,-6.080,-5.855
274,-6.090,-5.845
275,-6.100,-5.850
276,-6.060,-5.855
277,-6.020,-5.865
278,-6.030,-5.865
279,-6.040,-5.870
280,-6.065,-5.865
281,-6.035,-5.855
282,-5.980,-5.855
283,-5.940,-5.855
284,-5.955,-5.855
285,-5.990,-5.875
286,-5.995,-5.880
287,-5.975,-5.870
288,-5.940,-5.870
289,-5.880,-5.905
290,-5.850,-5.945
291,-5.820,-5.985
292,-5.810,-5.985
293,-5.820,-5.985
294,-5.865,-5.920
295,-5.900,-5.860
296,-5.950,-5.815
297,-5.950,-5.810
298,-5.955,-5.805
299,-5.940,-5.835
300,-5.935,-5.890
301,-5.960,-5.930
302,-5.970,-5.940
303,-5.995,-5.880
304,-5.920,-5.815
305,-5.845,-5.745
306,-5.795,-5.710
307,-5.770,-5.710
308,-5.790,-5.725
309,-5.860,-5.725
310,-5.935,-5.750
311,-6.020,-5.765
312,-6.050,-5.800
313,-6.030,-5.830
314,-6.000,-5.865
315,-5.960,-5.895
316,-5.975,-5.925
317,-5.990,-5.935
318,-6.020,-5.895
319,-6.070,-5.885
320,-6.130,-5.870
321,-6.170,-5.870
322,-6.195,-5.885
323,-6.205,-5.905
324,-6.215,-5.920
325,-6.190,-5.915
326,-6.165,-5.895
327,-6.120,-5.885
328,-6.070,-5.865
329,-6.050,-5.870
330,-6.050,-5.885
331,-6.075,-5.885
332,-6.100,-5.885
333,-6.130,-5.875
334,-6.140,-5.865
335,-6.115,-5.855
336,-6.130,-5.845
337,-6.120,-5.840
338,-6.125,-5.830
339,-6.130,-5.820
340,-6.105,-5.825
341,-6.085,-5.805
342,-6.075,-5.810
343,-6.030,-5.835
344,-6.000,-5.865
345,-5.985,-5.895
346,-6.015,-5.885
347,-6.090,-5.885
348,-6.170,-5.830
349,-6.180,-5.805
350,-6.115,-5.805
351,-6.030,-5.850
352,-5.970,-5.920
353,-5.970,-5.980
354,-6.025,-6.020
355,-6.070,-6.075
356,-6.130,-6.120
357,-6.115,-6.190
358,-6.030,-6.290
359,-5.905,-6.455
360,-5.765,-6.620
361,-5.610,-6.795
362,-5.530,-6.925
363,-5.490,-6.935
364,-5.490,-6.870
365,-5.490,-6.700
366,-5.445,-6.490
367,-5.305,-6.245
368,-5.085,-6.040
369,-4.840,-5.790
370,-4.695,-5.530
371,-4.710,-5.235
372,-4.910,-4.915
373,-5.290,-4.680
374,-5.755,-4.535
375,-6.175,-4.530
376,-6.455,-4.700
377,-6.635,-4.940
378,-6.740,-5.165
379,-6.820,-5.350
380,-6.940,-5.485
381,-7.070,-5.515
382,-7.150,-5.580
383,-7.230,-5.640
384,-7.265,-5.685
385,-7.270,-5.750
386,-7.255,-5.795
387,-7.220,-5.800
388,-7.215,-5.795
389,-7.215,-5.770
390,-7.200,-5.745
391,-7.180,-5.765
392,-7.130,-5.815
393,-7.055,-5.855
394,-6.995,-5.890
395,-6.965,-5.925
396,-6.925,-5.940
397,-6.825,-5.920
398,-6.705,-5.865
399,-6.565,-5.780
400,-6.425,-5.740
401,-6.325,-5.720
402,-6.265,-5.725
403,-6.235,-5.740
404,-6.225,-5.745
405,-6.235,-5.725
406,-6.260,-5.740
407,-6.290,-5.725
408,-6.280,-5.720
409,-6.225,-5.690
410,-6.150,-5.670
411,-6.090,-5.670
412,-6.090,-5.675
413,-6.115,-5.685
414,-6.160,-5.665
415,-6.200,-5.680
416,-6.220,-5.695
417,-6.210,-5.725
418,-6.190,-5.745
419,-6.170,-5.780
420,-6.145,-5.795
421,-6.125,-5.795
422,-6.110,-5.800
423,-6.130,-5.785
424,-6.140,-5.775
425,-6.180,-5.775
426,-6.185,-5.775
427,-6.190,-5.775
428,-6.185,-5.800
429,-6.165,-5.825
430,-6.170,-5.855
431,-6.195,-5.885
432,-6.225,-5.895
433,-6.250,-5.895
434,-6.270,-5.895
435,-6.290,-5.880
436,-6.305,-5.900
437,-6.325,-5.920
438,-6.305,-5.910
439,-6.290,-5.940
440,-6.275,-5.965
441,-6.275,-5.990
442,-6.280,-6.020
443,-6.280,-6.020
444,-6.290,-6.020
445,-6.310,-6.005
446,-6.365,-6.005
447,-6.415,-6.015
448,-6.430,-6.005
449,-6.410,-6.025
450,-6.360,-6.030
451,-6.305,-6.055
452,-6.280,-6.100
453,-6.285,-6.130
454,-6.360,-6.135
455,-6.440,-6.115
456,-6.495,-6.100
457,-6.475,-6.080
458,-6.385,-6.095
459,-6.320,-6.110
460,-6.285,-6.160
461,-6.295,-6.180
462,-6.340,-6.170
463,-6.385,-6.125
464,-6.400,-6.110
465,-6.410,-6.110
466,-6.380,-6.120
467,-6.325,-6.160
468,-6.335,-6.180
469,-6.325,-6.185
470,-6.325,-6.140
471,-6.305,-6.070
472,-6.305,-6.025
473,-6.285,-5.990
474,-6.245,-5.980
475,-6.195,-6.000
476,-6.130,-6.045
477,-6.090,-6.055
478,-6.100,-6.065
479,-6.120,-6.060
480,-6.160,-6.025
481,-6.165,-5.995
482,-6.130,-5.965
483,-6.095,-5.940
484,-6.090,-5.930
485,-6.065,-5.890
486,-6.070,-5.865
487,-6.065,-5.835
488,-6.030,-5.825
489,-6.010,-5.805
490,-6.005,-5.815
491,-6.040,-5.840
492,-6.055,-5.855
493,-6.020,-5.855
494,-5.980,-5.850
495,-5.950,-5.840
496,-5.950,-5.810
497,-5.975,-5.805
498,-6.020,-5.765
499,-6.055,-5.765
500,-6.060,-5.760
501,-6.065,-5.770
502,-6.055,-5.770
503,-6.035,-5.770
504,-5.990,-5.775
505,-5.950,-5.770
506,-5.935,-5.790
507,-5.945,-5.785
508,-5.970,-5.775
509,-5.985,-5.770
510,-5.990,-5.760
511,-5.990,-5.755
512,-5.975,-5.740
513,-5.960,-5.735
514,-5.975,-5.725
515,-6.025,-5.720
516,-6.080,-5.715
517,-6.095,-5.705
518,-6.070,-5.735
519,-6.020,-5.730
520,-5.985,-5.750
521,-5.995,-5.745
522,-6.040,-5.780
523,-6.050,-5.775
524,-6.070,-5.780
525,-6.055,-5.770
526,-6.070,-5.800
527,-6.110,-5.810
528,-6.120,-5.800
529,-6.105,-5.810
530,-6.075,-5.805
531,-6.040,-5.800
532,-6.020,-5.790
533,-5.995,-5.785
534,-5.985,-5.765
535,-6.000,-5.770
536,-6.015,-5.765
537,-6.015,-5.785
538,-6.020,-5.795
539,-6.050,-5.785
540,-6.070,-5.790
541,-6.100,-5.775
542,-6.065,-5.755
543,-6.015,-5.740
544,-5.990,-5.715
545,-5.990,-5.715
546,-6.035,-5.750
547,-6.065,-5.755
548,-6.075,-5.780
549,-6.060,-5.775
550,-6.025,-5.780
551,-6.025,-5.765
552,-6.055,-5.760
553,-6.080,-5.765
554,-6.075,-5.780
555,-6.060,-5.785
556,-6.005,-5.795
557,-5.995,-5.790
558,-5.960,-5.760
559,-5.965,-5.740
560,-5.970,-5.725
561,-6.000,-5.695
562,-6.040,-5.680
563,-6.045,-5.660
564,-6.015,-5.685
565,-5.975,-5.710
566,-5.955,-5.735
567,-5.975,-5.730
568,-5.980,-5.730
569,-5.980,-5.730
570,-5.975,-5.710
571,-5.985,-5.715
572,-6.020,-5.715
573,-6.025,-5.710
574,-6.020,-5.715
575,-5.990,-5.750
576,-5.970,-5.790
577,-5.950,-5.845
578,-5.970,-5.850
579,-6.015,-5.850
580,-6.040,-5.805
581,-6.065,-5.765
582,-6.050,-5.735
583,-6.030,-5.725
584,-5.995,-5.725
585,-5.985,-5.745
586,-5.990,-5.740
587,-5.975,-5.730
588,-5.975,-5.745
589,-5.980,-5.755
590,-5.975,-5.745
591,-5.955,-5.720
592,-5.940,-5.710
593,-5.910,-5.710
594,-5.895,-5.720
595,-5.875,-5.750
596,-5.875,-5.785
597,-5.855,-5.820
598,-5.840,-5.815
599,-5.840,-5.830
600,-5.830,-5.805
601,-5.830,-5.755
602,-5.820,-5.705
603,-5.825,-5.655
604,-5.840,-5.645
605,-5.870,-5.655
606,-5.890,-5.645
607,-5.925,-5.690
608,-5.935,-5.695
609,-5.905,-5.730
610,-5.835,-5.710
611,-5.790,-5.705
612,-5.750,-5.685
613,-5.775,-5.665
614,-5.805,-5.605
615,-5.840,-5.565
616,-5.835,-5.530
617,-5.820,-5.505
618,-5.865,-5.520
619,-5.940,-5.555
620,-6.015,-5.590
621,-6.045,-5.610
622,-6.030,-5.630
623,-6.005,-5.665
624,-5.985,-5.685
625,-5.955,-5.710
626,-5.965,-5.725
627,-6.000,-5.730
628,-6.015,-5.735
629,-6.025,-5.730
630,-6.045,-5.725
631,-6.055,-5.715
632,-6.085,-5.700
633,-6.095,-5.695
634,-6.100,-5.710
635,-6.105,-5.725
636,-6.110,-5.760
637,-6.085,-5.785
638,-6.055,-5.765
639,-6.025,-5.775
640,-6.015,-5.755
641,-6.045,-5.740
642,-6.080,-5.740
643,-6.110,-5.740
644,-6.150,-5.730
645,-6.145,-5.740
646,-6.120,-5.760
647,-6.095,-5.775
648,-6.095,-5.785
649,-6.115,-5.795
650,-6.120,-5.775
651,-6.095,-5.740
652,-6.055,-5.715
653,-6.060,-5.695
654,-6.045,-5.705
655,-6.075,-5.735
656,-6.110,-5.745
657,-6.130,-5.755
658,-6.135,-5.770
659,-6.125,-5.795
660,-6.145,-5.840
661,-6.155,-5.920
662,-6.135,-6.020
663,-6.035,-6.145
664,-5.885,-6.305
665,-5.730,-6.490
666,-5.575,-6.670
667,-5.470,-6.825
668,-5.445,-6.890
669,-5.475,-6.840
670,-5.520,-6.690
671,-5.490,-6.490
672,-5.350,-6.275
673,-5.125,-6.090
674,-4.875,-5.875
675,-4.700,-5.625
676,-4.685,-5.320
677,-4.860,-5.030
678,-5.220,-4.795
679,-5.655,-4.685
680,-6.095,-4.700
681,-6.455,-4.835
682,-6.725,-5.070
683,-6.890,-5.285
684,-6.985,-5.450
685,-7.020,-5.530
686,-7.050,-5.610
687,-7.065,-5.645
688,-7.105,-5.710
689,-7.165,-5.775
690,-7.205,-5.845
691,-7.240,-5.885
692,-7.230,-5.920
693,-7.205,-5.915
694,-7.210,-5.895
695,-7.205,-5.880
696,-7.185,-5.890
697,-7.140,-5.885
698,-7.090,-5.905
699,-7.025,-5.900
700,-6.950,-5.885
701,-6.875,-5.885
702,-6.780,-5.840
703,-6.650,-5.790
704,-6.520,-5.750
705,-6.405,-5.715
706,-6.305,-5.695
707,-6.240,-5.680
708,-6.230,-5.705
709,-6.235,-5.705
710,-6.250,-5.715
711,-6.270,-5.655
712,-6.245,-5.625
713,-6.225,-5.585
714,-6.180,-5.550
715,-6.135,-5.540
716,-6.130,-5.565
717,-6.110,-5.605
718,-6.090,-5.650
719,-6.100,-5.645
720,-6.160,-5.660
721,-6.245,-5.660
722,-6.300,-5.650
723,-6.320,-5.620
724,-6.265,-5.605
725,-6.205,-5.610
726,-6.145,-5.625
727,-6.115,-5.650
728,-6.075,-5.700
729,-6.075,-5.720
730,-6.095,-5.760
731,-6.125,-5.770
732,-6.200,-5.775
733,-6.270,-5.765
734,-6.305,-5.765
735,-6.295,-5.785
736,-6.280,-5.790
737,-6.265,-5.805
738,-6.275,-5.840
739,-6.275,-5.860
740,-6.280,-5.875
741,-6.280,-5.895
742,-6.325,-5.915
743,-6.360,-5.930
744,-6.405,-5.935
745,-6.425,-5.945
746,-6.425,-5.945
747,-6.415,-5.925
748,-6.390,-5.935
749,-6.360,-5.935
750,-6.340,-5.960
751,-6.320,-5.980
752,-6.315,-6.005
753,-6.345,-5.995
754,-6.385,-6.005
755,-6.405,-5.990
756,-6.440,-5.980
757,-6.460,-6.000
758,-6.480,-6.015
759,-6.480,-6.030
760,-6.475,-6.045
761,-6.425,-6.060
762,-6.360,-6.060
763,-6.330,-6.085
764,-6.330,-6.060
765,-6.320,-6.090
766,-6.350,-6.095
767,-6.385,-6.100
768,-6.410,-6.105
769,-6.435,-6.110
770,-6.455,-6.105
771,-6.440,-6.085
772,-6.430,-6.065
773,-6.395,-6.030
774,-6.365,-6.000
775,-6.320,-5.995
776,-6.290,-5.990
777,-6.285,-5.980
778,-6.245,-5.985
779,-6.245,-5.985
780,-6.215,-5.990
781,-6.185,-5.970
782,-6.175,-5.935
783,-6.155,-5.890
784,-6.140,-5.885
785,-6.135,-5.850
786,-6.185,-5.815
787,-6.250,-5.820
788,-6.280,-5.800
789,-6.190,-5.805
790,-6.095,-5.800
791,-6.005,-5.840
792,-5.960,-5.850
793,-5.965,-5.865
794,-5.985,-5.840
795,-6.040,-5.795
796,-6.065,-5.740
797,-6.070,-5.710
798,-6.055,-5.685
799,-6.055,-5.690
800,-6.075,-5.715
801,-6.090,-5.720
802,-6.085,-5.725
803,-6.070,-5.745
804,-6.050,-5.735
805,-6.055,-5.730
806,-6.060,-5.705
807,-6.085,-5.685
808,-6.065,-5.660
809,-6.085,-5.655
810,-6.090,-5.650
811,-6.095,-5.640
812,-6.080,-5.630
813,-6.110,-5.630
814,-6.150,-5.615
815,-6.200,-5.615
816,-6.150,-5.605
817,-6.070,-5.625
818,-5.985,-5.630
819,-5.935,-5.670
820,-5.935,-5.695
821,-5.955,-5.700
822,-6.020,-5.670
823,-6.080,-5.645
824,-6.135,-5.630
825,-6.160,-5.605
826,-6.175,-5.615
827,-6.140,-5.655
828,-6.125,-5.665
829,-6.115,-5.685
830,-6.125,-5.675
831,-6.140,-5.635
832,-6.165,-5.620
833,-6.155,-5.625
834,-6.130,-5.625
835,-6.070,-5.645
836,-6.045,-5.660
837,-6.035,-5.675
838,-6.045,-5.660
839,-6.070,-5.645
840,-6.090,-5.635
841,-6.135,-5.605
842,-6.145,-5.605
843,-6.115,-5.610
844,-6.070,-5.635
845,-6.025,-5.630
846,-6.015,-5.635
847,-6.045,-5.640
848,-6.060,-5.655
849,-6.075,-5.645
850,-6.090,-5.635
851,-6.095,-5.630
852,-6.110,-5.635
853,-6.125,-5.635
854,-6.145,-5.620
855,-6.165,-5.615
856,-6.145,-5.610
857,-6.110,-5.625
858,-6.080,-5.625
859,-6.065,-5.630
860,-6.035,-5.635
861,-6.035,-5.640
862,-6.025,-5.615
863,-6.030,-5.585
864,-6.035,-5.590
865,-6.060,-5.590
866,-6.055,-5.575
867,-6.055,-5.565
868,-6.090,-5.565
869,-6.105,-5.595
870,-6.105,-5.595
871,-6.070,-5.620
872,-6.020,-5.625
873,-5.955,-5.635
874,-5.900,-5.625
875,-5.895,-5.640
876,-5.915,-5.625
877,-5.970,-5.630
878,-6.030,-5.605
879,-6.075,-5.570
880,-6.085,-5.580
881,-6.065,-5.555
882,-6.055,-5.560
883,-6.030,-5.565
884,-6.035,-5.585
885,-6.045,-5.590
886,-6.070,-5.590
887,-6.075,-5.575
888,-6.065,-5.570
889,-6.055,-5.575
890,-6.020,-5.575
891,-6.020,-5.575
892,-5.975,-5.575
893,-5.955,-5.575
894,-5.970,-5.575
895,-5.990,-5.590
896,-5.985,-5.575
897,-5.970,-5.590
898,-5.920,-5.615
899,-5.915,-5.645
900,-5.910,-5.650
901,-5.885,-5.655
902,-5.865,-5.670
903,-5.865,-5.655
904,-5.865,-5.620
905,-5.880,-5.605
906,-5.880,-5.595
907,-5.850,-5.560
908,-5.835,-5.565
909,-5.835,-5.540
910,-5.860,-5.535
911,-5.880,-5.530
912,-5.925,-5.545
913,-5.960,-5.560
914,-5.995,-5.570
915,-5.975,-5.560
916,-5.940,-5.560
917,-5.870,-5.540
918,-5.820,-5.515
919,-5.780,-5.495
920,-5.745,-5.470
921,-5.760,-5.450
922,-5.815,-5.445
923,-5.895,-5.425
924,-6.030,-5.415
925,-6.080,-5.445
926,-6.080,-5.460
927,-6.050,-5.520
928,-6.015,-5.560
929,-5.975,-5.575
930,-5.980,-5.575
931,-5.990,-5.570
932,-6.015,-5.545
933,-6.010,-5.530
934,-6.035,-5.535
935,-6.085,-5.520
936,-6.150,-5.540
937,-6.205,-5.545
938,-6.190,-5.560
939,-6.170,-5.555
940,-6.150,-5.560
941,-6.125,-5.575
942,-6.100,-5.555
943,-6.085,-5.550
944,-6.075,-5.545
945,-6.070,-5.540
946,-6.060,-5.570
947,-6.040,-5.570
948,-5.990,-5.595
949,-5.965,-5.600
950,-5.980,-5.590
951,-5.990,-5.565
952,-6.015,-5.555
953,-6.020,-5.540
954,-6.025,-5.550
955,-6.020,-5.565
956,-6.060,-5.620
957,-6.055,-5.645
958,-6.045,-5.670
959,-6.055,-5.685
960,-6.055,-5.685
961,-6.095,-5.660
962,-6.135,-5.650
963,-6.150,-5.640
964,-6.170,-5.685
965,-6.170,-5.720
966,-6.135,-5.805
967,-6.060,-5.900
968,-5.960,-6.005
969,-5.845,-6.120
970,-5.715,-6.240
971,-5.580,-6.335
972,-5.440,-6.440
973,-5.340,-6.480
974,-5.305,-6.460
975,-5.310,-6.370
976,-5.335,-6.250
977,-5.310,-6.110
978,-5.260,-5.955
979,-5.110,-5.825
980,-4.945,-5.645
981,-4.830,-5.400
982,-4.825,-5.080
983,-4.985,-4.750
984,-5.295,-4.495
985,-5.725,-4.380
986,-6.155,-4.410
987,-6.535,-4.600
988,-6.790,-4.865
989,-6.965,-5.150
990,-7.060,-5.355
991,-7.105,-5.495
992,-7.135,-5.555
993,-7.140,-5.600
994,-7.130,-5.640
995,-7.140,-5.675
996,-7.170,-5.710
997,-7.210,-5.750
998,-7.235,-5.760
999,-7.255,-5.755
1000,-7.265,-5.735
1001,-7.270,-5.705
1002,-7.250,-5.700
1003,-7.215,-5.700
1004,-7.110,-5.720
1005,-6.995,-5.770
1006,-6.880,-5.780
1007,-6.740,-5.785
1008,-6.585,-5.765
1009,-6.475,-5.700
1010,-6.355,-5.615
1011,-6.295,-5.550
1012,-6.255,-5.485
1013,-6.260,-5.450
1014,-6.245,-5.455
1015,-6.235,-5.470
1016,-6.210,-5.515
1017,-6.175,-5.555
1018,-6.160,-5.565
1019,-6.145,-5.540
1020,-6.190,-5.490
1021,-6.245,-5.420
1022,-6.280,-5.385
1023,-6.240,-5.380
1024,-6.190,-5.405
1025,-6.150,-5.460
1026,-6.150,-5.515
1027,-6.145,-5.555
1028,-6.170,-5.570
1029,-6.195,-5.580
1030,-6.215,-5.580
1031,-6.230,-5.590
1032,-6.245,-5.580
1033,-6.235,-5.600
1034,-6.240,-5.590
1035,-6.235,-5.605
1036,-6.245,-5.585
1037,-6.260,-5.620
1038,-6.260,-5.645
1039,-6.260,-5.675
1040,-6.270,-5.715
1041,-6.285,-5.725
1042,-6.305,-5.765
1043,-6.310,-5.755
1044,-6.330,-5.755
1045,-6.330,-5.750
1046,-6.345,-5.725
1047,-6.340,-5.730
1048,-6.350,-5.750
1049,-6.365,-5.765
1050,-6.370,-5.790
1051,-6.385,-5.825
1052,-6.405,-5.875
1053,-6.415,-5.885
1054,-6.420,-5.900
1055,-6.440,-5.900
1056,-6.440,-5.905
1057,-6.435,-5.910
1058,-6.415,-5.885
1059,-6.415,-5.890
1060,-6.435,-5.895
1061,-6.465,-5.920
1062,-6.485,-5.915
1063,-6.510,-5.925
1064,-6.485,-5.945
1065,-6.450,-5.950
1066,-6.430,-5.965
1067,-6.425,-5.980
1068,-6.420,-5.995
1069,-6.430,-5.995
1070,-6.435,-5.980
1071,-6.430,-5.960
1072,-6.435,-5.950
1073,-6.420,-5.935
1074,-6.400,-5.920
1075,-6.370,-5.920
1076,-6.350,-5.895
1077,-6.335,-5.885
1078,-6.315,-5.880
1079,-6.325,-5.875
1080,-6.320,-5.875
1081,-6.310,-5.865
1082,-6.290,-5.855
1083,-6.265,-5.840
1084,-6.230,-5.805
1085,-6.210,-5.800
1086,-6.195,-5.780
1087,-6.165,-5.760
1088,-6.135,-5.740
1089,-6.120,-5.720
1090,-6.120,-5.700
1091,-6.140,-5.660
1092,-6.165,-5.630
1093,-6.165,-5.605
1094,-6.130,-5.615
1095,-6.110,-5.595
1096,-6.085,-5.580
1097,-6.070,-5.565
1098,-6.065,-5.570
1099,-6.065,-5.575
1100,-6.060,-5.580
1101,-6.065,-5.590
1102,-6.065,-5.600
1103,-6.090,-5.595
1104,-6.080,-5.585
1105,-6.070,-5.540
1106,-6.075,-5.500
1107,-6.065,-5.490
1108,-6.070,-5.475
1109,-6.095,-5.460
1110,-6.090,-5.490
1111,-6.080,-5.490
1112,-6.090,-5.505
1113,-6.095,-5.520
1114,-6.085,-5.530
1115,-6.100,-5.540
1116,-6.085,-5.540
1117,-6.095,-5.545
1118,-6.090,-5.545
1119,-6.085,-5.555
1120,-6.090,-5.555
1121,-6.110,-5.540
1122,-6.120,-5.560
1123,-6.135,-5.560
1124,-6.125,-5.590
1125,-6.135,-5.600
1126,-6.140,-5.585
1127,-6.145,-5.575
1128,-6.135,-5.540
1129,-6.125,-5.535
1130,-6.120,-5.505
1131,-6.115,-5.505
1132,-6.110,-5.520
1133,-6.105,-5.505
1134,-6.095,-5.520
1135,-6.095,-5.510
1136,-6.120,-5.545
1137,-6.135,-5.555
1138,-6.110,-5.575
1139,-6.100,-5.570
1140,-6.080,-5.585
1141,-6.090,-5.560
1142,-6.125,-5.550
1143,-6.140,-5.560
1144,-6.150,-5.555
1145,-6.170,-5.570
1146,-6.160,-5.585
1147,-6.145,-5.590
1148,-6.165,-5.595
1149,-6.165,-5.590
1150,-6.165,-5.590
1151,-6.170,-5.590
1152,-6.155,-5.585
1153,-6.175,-5.595
1154,-6.165,-5.570
1155,-6.160,-5.575
1156,-6.155,-5.555
1157,-6.135,-5.545
1158,-6.145,-5.560
1159,-6.130,-5.550
1160,-6.140,-5.545
1161,-6.130,-5.560
1162,-6.140,-5.580
1163,-6.115,-5.595
1164,-6.115,-5.590
1165,-6.110,-5.590
1166,-6.105,-5.555
1167,-6.120,-5.575
1168,-6.150,-5.550
1169,-6.155,-5.545
1170,-6.165,-5.555
1171,-6.185,-5.590
1172,-6.200,-5.600
1173,-6.210,-5.605
1174,-6.215,-5.625
1175,-6.200,-5.635
1176,-6.175,-5.640
1177,-6.165,-5.620
1178,-6.160,-5.595
1179,-6.170,-5.585
1180,-6.160,-5.575
1181,-6.170,-5.590
1182,-6.175,-5.600
1183,-6.155,-5.615
1184,-6.145,-5.620
1185,-6.140,-5.620
1186,-6.115,-5.635
1187,-6.105,-5.610
1188,-6.080,-5.590
1189,-6.070,-5.550
1190,-6.070,-5.520
1191,-6.080,-5.525
1192,-6.070,-5.530
1193,-6.085,-5.530
1194,-6.105,-5.545
1195,-6.100,-5.565
1196,-6.085,-5.585
1197,-6.065,-5.620
1198,-6.080,-5.625
1199,-6.075,-5.635
1200,-6.070,-5.645
1201,-6.080,-5.640
1202,-6.070,-5.635
1203,-6.055,-5.635
1204,-6.030,-5.620
1205,-5.980,-5.630
1206,-5.945,-5.620
1207,-5.920,-5.620
1208,-5.915,-5.600
1209,-5.905,-5.555
1210,-5.930,-5.515
1211,-5.955,-5.485
1212,-5.975,-5.490
1213,-6.005,-5.475
1214,-6.015,-5.525
1215,-6.025,-5.540
1216,-6.020,-5.580
1217,-5.995,-5.580
1218,-5.960,-5.570
1219,-5.925,-5.520
1220,-5.925,-5.465
1221,-5.910,-5.455
1222,-5.925,-5.410
1223,-5.930,-5.390
1224,-5.960,-5.380
1225,-5.975,-5.390
1226,-5.990,-5.415
1227,-6.015,-5.440
1228,-6.035,-5.475
1229,-6.055,-5.480
1230,-6.070,-5.505
1231,-6.080,-5.505
1232,-6.090,-5.525
1233,-6.085,-5.525
1234,-6.095,-5.535
1235,-6.085,-5.540
1236,-6.090,-5.570
1237,-6.095,-5.550
1238,-6.105,-5.565
1239,-6.115,-5.560
1240,-6.130,-5.560
1241,-6.120,-5.550
1242,-6.115,-5.575
1243,-6.125,-5.570
1244,-6.145,-5.565
1245,-6.165,-5.580
1246,-6.175,-5.545
1247,-6.185,-5.570
1248,-6.185,-5.595
1249,-6.195,-5.595
1250,-6.195,-5.610
1251,-6.180,-5.595
1252,-6.180,-5.585
1253,-6.180,-5.575
1254,-6.170,-5.625
1255,-6.165,-5.615
1256,-6.180,-5.650
1257,-6.185,-5.660
1258,-6.225,-5.655
1259,-6.245,-5.665
1260,-6.285,-5.675
1261,-6.295,-5.670
1262,-6.285,-5.675
1263,-6.250,-5.685
1264,-6.215,-5.685
1265,-6.210,-5.670
1266,-6.195,-5.655
1267,-6.200,-5.665
1268,-6.175,-5.710
1269,-6.180,-5.765
1270,-6.120,-5.860
1271,-6.030,-5.960
1272,-5.925,-6.090
1273,-5.780,-6.220
1274,-5.635,-6.325
1275,-5.480,-6.435
1276,-5.360,-6.495
1277,-5.305,-6.535
1278,-5.310,-6.475
1279,-5.325,-6.370
1280,-5.320,-6.230
1281,-5.280,-6.090
1282,-5.185,-5.910
1283,-5.050,-5.755
1284,-4.915,-5.575
1285,-4.840,-5.340
1286,-4.845,-5.035
1287,-4.980,-4.750
1288,-5.240,-4.505
1289,-5.615,-4.390
1290,-6.025,-4.430
1291,-6.400,-4.605
1292,-6.695,-4.880
1293,-6.885,-5.160
1294,-6.985,-5.390
1295,-7.025,-5.515
1296,-7.060,-5.580
1297,-7.090,-5.610
1298,-7.120,-5.660
1299,-7.150,-5.700
1300,-7.165,-5.750
1301,-7.170,-5.780
1302,-7.180,-5.790
1303,-7.205,-5.785
1304,-7.205,-5.795
1305,-7.215,-5.760
1306,-7.195,-5.745
1307,-7.165,-5.750
1308,-7.145,-5.765
1309,-7.095,-5.795
1310,-7.015,-5.790
1311,-6.905,-5.795
1312,-6.770,-5.780
1313,-6.625,-5.745
1314,-6.475,-5.705
1315,-6.365,-5.625
1316,-6.270,-5.580
1317,-6.205,-5.535
1318,-6.185,-5.505
1319,-6.210,-5.490
1320,-6.200,-5.515
1321,-6.215,-5.505
1322,-6.210,-5.505
1323,-6.175,-5.510
1324,-6.145,-5.485
1325,-6.125,-5.465
1326,-6.110,-5.470
1327,-6.100,-5.470
1328,-6.100,-5.490
1329,-6.115,-5.500
1330,-6.130,-5.510
1331,-6.150,-5.520
1332,-6.150,-5.520
1333,-6.160,-5.520
1334,-6.160,-5.505
1335,-6.150,-5.515
1336,-6.145,-5.510
1337,-6.135,-5.520
1338,-6.150,-5.535
1339,-6.160,-5.555
1340,-6.185,-5.585
1341,-6.195,-5.610
1342,-6.220,-5.615
1343,-6.225,-5.630
1344,-6.215,-5.655
1345,-6.220,-5.650
1346,-6.235,-5.670
1347,-6.235,-5.680
1348,-6.245,-5.685
1349,-6.250,-5.710
1350,-6.230,-5.710
1351,-6.250,-5.725
1352,-6.275,-5.750
1353,-6.290,-5.785
1354,-6.325,-5.795
1355,-6.335,-5.805
1356,-6.350,-5.835
1357,-6.360,-5.850
1358,-6.360,-5.860
1359,-6.355,-5.860
1360,-6.365,-5.860
1361,-6.355,-5.865
1362,-6.370,-5.855
1363,-6.380,-5.870
1364,-6.370,-5.895
1365,-6.390,-5.925
1366,-6.390,-5.935
1367,-6.410,-5.945
1368,-6.425,-5.975
1369,-6.430,-5.965
1370,-6.445,-5.965
1371,-6.440,-5.970
1372,-6.430,-5.970
1373,-6.420,-5.965
1374,-6.405,-5.975
1375,-6.390,-5.985
1376,-6.395,-5.980
1377,-6.390,-6.000
1378,-6.385,-5.985
1379,-6.390,-5.990
1380,-6.370,-5.985
1381,-6.395,-5.980
1382,-6.355,-5.975
1383,-6.335,-5.970
1384,-6.305,-5.945
1385,-6.280,-5.930
1386,-6.275,-5.910
1387,-6.255,-5.895
1388,-6.250,-5.890
1389,-6.250,-5.885
1390,-6.240,-5.870
1391,-6.215,-5.865
1392,-6.200,-5.860
1393,-6.190,-5.830
1394,-6.175,-5.790
1395,-6.150,-5.770
1396,-6.135,-5.745
1397,-6.110,-5.720
1398,-6.110,-5.710
1399,-6.095,-5.735
1400,-6.070,-5.740
1401,-6.065,-5.745
1402,-6.065,-5.725
1403,-6.060,-5.735
1404,-6.055,-5.705
1405,-6.050,-5.680
1406,-6.045,-5.660
1407,-6.020,-5.640
1408,-6.020,-5.640
1409,-5.995,-5.630
1410,-5.990,-5.605
1411,-5.995,-5.610
1412,-5.990,-5.615
1413,-5.985,-5.620
1414,-6.000,-5.615
1415,-6.005,-5.625
1416,-6.015,-5.620
1417,-6.010,-5.615
1418,-6.010,-5.615
1419,-6.010,-5.595
1420,-6.000,-5.590
1421,-6.000,-5.565
1422,-5.975,-5.570
1423,-5.985,-5.575
1424,-5.975,-5.565
1425,-6.000,-5.590
1426,-6.005,-5.590
1427,-6.000,-5.615
1428,-6.005,-5.615
1429,-6.010,-5.620
1430,-6.005,-5.600
1431,-6.020,-5.585
1432,-6.000,-5.575
1433,-5.990,-5.560
1434,-5.990,-5.565
1435,-6.005,-5.565
1436,-5.995,-5.565
1437,-6.005,-5.570
1438,-6.020,-5.575
1439,-6.025,-5.590
1440,-6.010,-5.610
1441,-6.020,-5.600
1442,-6.025,-5.600
1443,-6.015,-5.570
1444,-6.010,-5.560
1445,-6.010,-5.555
1446,-5.990,-5.540
1447,-5.990,-5.550
1448,-6.010,-5.555
1449,-6.005,-5.585
1450,-6.040,-5.600
1451,-6.030,-5.605
1452,-6.035,-5.595
1453,-6.025,-5.605
1454,-6.040,-5.600
1455,-6.000,-5.595
1456,-6.005,-5.585
1457,-5.980,-5.580
1458,-5.985,-5.575
1459,-6.000,-5.575
1460,-5.990,-5.600
1461,-5.995,-5.615
1462,-6.005,-5.615
1463,-6.010,-5.630
1464,-6.015,-5.630
1465,-6.015,-5.620
1466,-6.010,-5.620
1467,-6.000,-5.595
1468,-5.985,-5.595
1469,-5.975,-5.575
1470,-5.975,-5.595
1471,-5.990,-5.605
1472,-6.005,-5.600
1473,-6.005,-5.620
1474,-6.000,-5.620
1475,-6.000,-5.645
1476,-6.010,-5.635
1477,-6.010,-5.630
1478,-5.995,-5.620
1479,-5.990,-5.620
1480,-5.995,-5.605
1481,-5.970,-5.595
1482,-5.970,-5.605
1483,-5.975,-5.600
1484,-5.970,-5.620
1485,-5.980,-5.620
1486,-5.980,-5.625
1487,-5.990,-5.635
1488,-5.985,-5.625
1489,-6.010,-5.655
1490,-5.995,-5.635
1491,-5.975,-5.640
1492,-5.955,-5.600
1493,-5.955,-5.605
1494,-5.945,-5.590
1495,-5.960,-5.585
1496,-5.960,-5.575
1497,-5.935,-5.570
1498,-5.945,-5.590
1499,-5.945,-5.610
1500,-5.940,-5.590
1501,-5.940,-5.615
1502,-5.915,-5.605
1503,-5.915,-5.600
1504,-5.885,-5.625
1505,-5.870,-5.610
1506,-5.850,-5.635
1507,-5.840,-5.655
1508,-5.850,-5.645
1509,-5.850,-5.665
1510,-5.840,-5.670
1511,-5.825,-5.670
1512,-5.800,-5.660
1513,-5.790,-5.660
1514,-5.775,-5.615
1515,-5.780,-5.590
1516,-5.780,-5.565
1517,-5.770,-5.550
1518,-5.765,-5.555
1519,-5.810,-5.580
1520,-5.820,-5.585
1521,-5.845,-5.615
1522,-5.855,-5.625
1523,-5.845,-5.620
1524,-5.830,-5.615
1525,-5.790,-5.575
1526,-5.765,-5.545
1527,-5.735,-5.490
1528,-5.730,-5.450
1529,-5.725,-5.425
1530,-5.745,-5.420
1531,-5.800,-5.455
1532,-5.830,-5.485
1533,-5.855,-5.530
1534,-5.880,-5.600
1535,-5.900,-5.615
1536,-5.905,-5.610
1537,-5.925,-5.595
1538,-5.940,-5.570
1539,-5.935,-5.565
1540,-5.950,-5.565
1541,-5.945,-5.560
1542,-5.935,-5.575
1543,-5.945,-5.600
1544,-5.975,-5.625
1545,-5.975,-5.640
1546,-5.980,-5.635
1547,-5.980,-5.635
1548,-5.985,-5.620
1549,-5.990,-5.590
1550,-5.995,-5.605
1551,-5.970,-5.590
1552,-5.960,-5.605
1553,-5.965,-5.600
1554,-5.960,-5.605
1555,-5.970,-5.610
1556,-5.965,-5.620
1557,-5.965,-5.630
1558,-5.965,-5.645
1559,-5.970,-5.655
1560,-5.965,-5.645
1561,-5.965,-5.655
1562,-5.960,-5.650
1563,-5.945,-5.640
1564,-5.960,-5.635
1565,-5.945,-5.640
1566,-5.945,-5.640
1567,-5.945,-5.655
1568,-5.955,-5.675
1569,-5.980,-5.700
1570,-5.995,-5.725
1571,-6.015,-5.770
1572,-6.025,-5.845
1573,-6.015,-5.890
1574,-5.960,-5.990
1575,-5.865,-6.090
1576,-5.730,-6.225
1577,-5.575,-6.355
1578,-5.440,-6.500
1579,-5.325,-6.600
1580,-5.305,-6.660
1581,-5.305,-6.640
1582,-5.335,-6.545
1583,-5.380,-6.420
1584,-5.350,-6.265
1585,-5.300,-6.100
1586,-5.165,-5.920
1587,-4.990,-5.705
1588,-4.850,-5.465
1589,-4.775,-5.135
1590,-4.845,-4.835
1591,-5.085,-4.585
1592,-5.455,-4.470
1593,-5.850,-4.505
1594,-6.210,-4.685
1595,-6.465,-4.930
1596,-6.630,-5.185
1597,-6.735,-5.365
1598,-6.805,-5.500
1599,-6.840,-5.570
1600,-6.890,-5.595
1601,-6.925,-5.635
1602,-6.950,-5.670
1603,-6.970,-5.725
1604,-6.975,-5.765
1605,-6.985,-5.790
1606,-6.995,-5.795
1607,-6.990,-5.805
1608,-6.990,-5.800
1609,-7.005,-5.800
1610,-6.970,-5.790
1611,-6.925,-5.775
1612,-6.870,-5.800
1613,-6.775,-5.815
1614,-6.620,-5.815
1615,-6.475,-5.780
1616,-6.320,-5.755
1617,-6.185,-5.705
1618,-6.090,-5.660
1619,-6.035,-5.640
1620,-6.000,-5.595
1621,-6.005,-5.595
1622,-6.005,-5.585
1623,-5.980,-5.575
1624,-5.970,-5.575
1625,-5.960,-5.585
1626,-5.935,-5.595
1627,-5.950,-5.585
1628,-5.940,-5.610
1629,-5.955,-5.630
1630,-5.970,-5.625
1631,-5.980,-5.635
1632,-5.980,-5.640
1633,-6.005,-5.645
1634,-6.000,-5.640
1635,-6.015,-5.625
1636,-5.990,-5.650
1637,-5.995,-5.635
1638,-5.985,-5.650
1639,-5.985,-5.675
1640,-6.005,-5.685
1641,-6.025,-5.695
1642,-6.035,-5.715
1643,-6.065,-5.740
1644,-6.085,-5.760
1645,-6.095,-5.760
1646,-6.095,-5.770
1647,-6.110,-5.780
1648,-6.095,-5.760
1649,-6.095,-5.775
1650,-6.095,-5.800
1651,-6.095,-5.805
1652,-6.130,-5.820
1653,-6.140,-5.855
1654,-6.155,-5.875
1655,-6.165,-5.890
1656,-6.190,-5.900
1657,-6.205,-5.920
1658,-6.215,-5.920
1659,-6.235,-5.920
1660,-6.245,-5.910
1661,-6.265,-5.920
1662,-6.280,-5.935
1663,-6.300,-5.955
1664,-6.320,-5.950
1665,-6.345,-5.975
1666,-6.365,-5.985
1667,-6.395,-5.995
1668,-6.400,-6.025
1669,-6.430,-6.010
1670,-6.435,-6.005
1671,-6.430,-5.990
1672,-6.400,-6.000
1673,-6.395,-5.975
1674,-6.355,-6.000
1675,-6.350,-6.000
1676,-6.325,-6.010
1677,-6.305,-6.025
1678,-6.280,-6.035
1679,-6.245,-6.045
1680,-6.220,-6.045
1681,-6.195,-6.040
1682,-6.175,-6.030
1683,-6.140,-6.010
1684,-6.125,-6.015
1685,-6.105,-5.985
1686,-6.065,-5.970
1687,-6.070,-5.970
1688,-6.045,-5.960
1689,-6.030,-5.940
1690,-6.030,-5.935
1691,-6.025,-5.925
1692,-6.005,-5.920
1693,-6.025,-5.890
1694,-6.020,-5.870
1695,-6.000,-5.840
1696,-5.980,-5.820
1697,-5.960,-5.805
1698,-5.960,-5.790
1699,-5.945,-5.780
1700,-5.955,-5.760
1701,-5.945,-5.760
1702,-5.960,-5.770
1703,-5.955,-5.770
1704,-5.960,-5.750
1705,-5.960,-5.730
1706,-5.945,-5.715
1707,-5.940,-5.695
1708,-5.905,-5.700
1709,-5.915,-5.685
1710,-5.900,-5.680
1711,-5.900,-5.685
1712,-5.895,-5.670
1713,-5.885,-5.670
1714,-5.900,-5.680
1715,-5.910,-5.680
1716,-5.930,-5.675
1717,-5.925,-5.670
1718,-5.925,-5.680
1719,-5.925,-5.660
1720,-5.915,-5.660
1721,-5.910,-5.645
1722,-5.890,-5.625
1723,-5.885,-5.655
1724,-5.905,-5.650
1725,-5.915,-5.660
1726,-5.920,-5.690
1727,-5.940,-5.690
1728,-5.945,-5.695
1729,-5.965,-5.680
1730,-5.965,-5.695
1731,-5.965,-5.700
1732,-5.955,-5.690
1733,-5.945,-5.680
1734,-5.945,-5.685
1735,-5.945,-5.690
1736,-5.945,-5.700
1737,-5.955,-5.700
1738,-5.980,-5.715
1739,-5.975,-5.740
1740,-5.975,-5.745
1741,-6.005,-5.745
1742,-5.990,-5.730
1743,-5.985,-5.720
1744,-5.980,-5.735
1745,-5.975,-5.745
1746,-5.985,-5.745
1747,-5.975,-5.750
1748,-5.995,-5.755
1749,-5.980,-5.760
1750,-5.975,-5.775
1751,-5.975,-5.775
1752,-5.975,-5.790
1753,-5.985,-5.780
1754,-5.975,-5.790
1755,-5.960,-5.755
1756,-5.965,-5.770
1757,-5.960,-5.765
1758,-5.955,-5.770
1759,-5.955,-5.775
1760,-5.950,-5.760
1761,-5.965,-5.785
1762,-5.985,-5.785
1763,-5.985,-5.800
1764,-5.990,-5.795
1765,-5.995,-5.800
1766,-5.990,-5.805
1767,-5.975,-5.785
1768,-5.965,-5.780
1769,-5.940,-5.740
1770,-5.935,-5.735
1771,-5.950,-5.750
1772,-5.955,-5.765
1773,-5.960,-5.770
1774,-5.975,-5.770
1775,-5.980,-5.800
1776,-5.975,-5.785
1777,-5.985,-5.795
1778,-5.965,-5.790
1779,-5.970,-5.775
1780,-5.955,-5.750
1781,-5.975,-5.765
1782,-5.935,-5.750
1783,-5.955,-5.750
1784,-5.945,-5.770
1785,-5.955,-5.810
1786,-5.955,-5.830
1787,-5.960,-5.845
1788,-5.960,-5.845
1789,-5.955,-5.830
1790,-5.935,-5.830
1791,-5.920,-5.805
1792,-5.905,-5.795
1793,-5.895,-5.800
1794,-5.880,-5.795
1795,-5.885,-5.820
1796,-5.860,-5.840
1797,-5.870,-5.855
1798,-5.870,-5.885
1799,-5.860,-5.885
1800,-5.860,-5.895
1801,-5.845,-5.870
1802,-5.825,-5.840
1803,-5.790,-5.815
1804,-5.770,-5.805
1805,-5.750,-5.790
1806,-5.745,-5.775
1807,-5.765,-5.775
1808,-5.780,-5.790
1809,-5.810,-5.800
1810,-5.835,-5.815
1811,-5.850,-5.835
1812,-5.870,-5.835
1813,-5.870,-5.825
1814,-5.840,-5.835
1815,-5.800,-5.805
1816,-5.770,-5.775
1817,-5.750,-5.715
1818,-5.740,-5.700
1819,-5.760,-5.680
1820,-5.795,-5.660
1821,-5.830,-5.695
1822,-5.880,-5.720
1823,-5.915,-5.750
1824,-5.945,-5.775
1825,-5.960,-5.805
1826,-5.950,-5.780
1827,-5.955,-5.780
1828,-5.945,-5.760
1829,-5.960,-5.760
1830,-5.950,-5.755
1831,-5.985,-5.780
1832,-5.985,-5.805
1833,-6.020,-5.825
1834,-6.020,-5.845
1835,-6.040,-5.840
1836,-6.025,-5.875
1837,-6.030,-5.880
1838,-6.030,-5.890
1839,-6.035,-5.865
1840,-6.015,-5.875
1841,-5.990,-5.855
1842,-5.990,-5.860
1843,-5.985,-5.860
1844,-5.990,-5.855
1845,-6.005,-5.875
1846,-6.020,-5.865
1847,-6.035,-5.880
1848,-6.030,-5.890
1849,-6.045,-5.890
1850,-6.055,-5.875
1851,-6.050,-5.885
1852,-6.045,-5.850
1853,-6.035,-5.870
1854,-6.025,-5.860
1855,-6.005,-5.885
1856,-6.010,-5.885
1857,-6.020,-5.885
1858,-6.010,-5.900
1859,-6.005,-5.900
1860,-6.030,-5.920
1861,-6.055,-5.915
1862,-6.060,-5.925
1863,-6.060,-5.935
1864,-6.040,-5.955
1865,-6.020,-6.015
1866,-5.965,-6.090
1867,-5.885,-6.200
1868,-5.770,-6.305
1869,-5.640,-6.430
1870,-5.515,-6.535
1871,-5.365,-6.635
1872,-5.265,-6.710
1873,-5.230,-6.740
1874,-5.255,-6.680
1875,-5.280,-6.555
1876,-5.270,-6.415
1877,-5.210,-6.275
1878,-5.085,-6.145
1879,-4.940,-6.005
1880,-4.785,-5.805
1881,-4.715,-5.575
1882,-4.765,-5.265
1883,-4.975,-4.980
1884,-5.340,-4.790
1885,-5.785,-4.720
1886,-6.230,-4.825
1887,-6.575,-5.065
1888,-6.805,-5.340
1889,-6.925,-5.580
1890,-7.010,-5.760
1891,-7.035,-5.875
1892,-7.085,-5.945
1893,-7.120,-6.000
1894,-7.145,-6.040
1895,-7.170,-6.075
1896,-7.175,-6.100
1897,-7.175,-6.130
1898,-7.180,-6.120
1899,-7.160,-6.105
1900,-7.145,-6.070
1901,-7.130,-6.060
1902,-7.100,-6.055
1903,-7.060,-6.075
1904,-7.000,-6.095
1905,-6.900,-6.120
1906,-6.785,-6.130
1907,-6.625,-6.105
1908,-6.480,-6.050
1909,-6.360,-5.970
1910,-6.250,-5.880
1911,-6.165,-5.810
1912,-6.115,-5.750
1913,-6.100,-5.720
1914,-6.090,-5.705
1915,-6.095,-5.715
1916,-6.085,-5.725
1917,-6.075,-5.745
1918,-6.065,-5.770
1919,-6.070,-5.795
1920,-6.070,-5.785
1921,-6.065,-5.780
1922,-6.050,-5.775
1923,-6.055,-5.755
1924,-6.055,-5.740
1925,-6.060,-5.730
1926,-6.055,-5.720
1927,-6.075,-5.745
1928,-6.065,-5.765
1929,-6.060,-5.770
1930,-6.080,-5.790
1931,-6.105,-5.805
1932,-6.100,-5.815
1933,-6.105,-5.805
1934,-6.105,-5.795
1935,-6.105,-5.790
1936,-6.125,-5.795
1937,-6.120,-5.800
1938,-6.125,-5.840
1939,-6.135,-5.880
1940,-6.120,-5.910
1941,-6.150,-5.940
1942,-6.160,-5.990
1943,-6.175,-5.995
1944,-6.195,-5.995
1945,-6.200,-6.015
1946,-6.220,-6.030
1947,-6.215,-6.035
1948,-6.225,-6.050
1949,-6.215,-6.065
1950,-6.215,-6.100
1951,-6.230,-6.105
1952,-6.260,-6.140
1953,-6.260,-6.150
1954,-6.285,-6.155
1955,-6.310,-6.165
1956,-6.325,-6.165
1957,-6.315,-6.155
1958,-6.320,-6.165
1959,-6.310,-6.155
1960,-6.300,-6.160
1961,-6.305,-6.145
1962,-6.285,-6.150
1963,-6.300,-6.130
1964,-6.305,-6.130
1965,-6.300,-6.140
1966,-6.300,-6.160
1967,-6.310,-6.165
1968,-6.320,-6.160
1969,-6.340,-6.160
1970,-6.315,-6.140
1971,-6.295,-6.150
1972,-6.280,-6.135
1973,-6.255,-6.120
1974,-6.255,-6.105
1975,-6.225,-6.105
1976,-6.220,-6.095
1977,-6.200,-6.085
1978,-6.200,-6.080
1979,-6.185,-6.070
1980,-6.185,-6.060
1981,-6.165,-6.020
1982,-6.145,-6.030
1983,-6.125,-6.010
1984,-6.100,-5.995
1985,-6.070,-5.960
1986,-6.045,-5.940
1987,-6.050,-5.925
1988,-6.050,-5.895
1989,-6.035,-5.890
1990,-6.020,-5.870
1991,-6.015,-5.860
1992,-5.990,-5.820
1993,-5.990,-5.810
1994,-5.985,-5.780
1995,-5.975,-5.790
1996,-5.975,-5.765
1997,-5.965,-5.740
1998,-5.955,-5.730
1999,-5.945,-5.720
2000,-5.945,-5.725
2001,-5.945,-5.740
2002,-5.940,-5.745
2003,-5.950,-5.760
2004,-5.945,-5.755
2005,-5.965,-5.750
2006,-5.965,-5.730
2007,-5.945,-5.720
2008,-5.950,-5.700
2009,-5.945,-5.705
2010,-5.940,-5.690
2011,-5.940,-5.700
2012,-5.925,-5.695
2013,-5.930,-5.710
2014,-5.960,-5.725
2015,-5.930,-5.720
2016,-5.940,-5.720
2017,-5.950,-5.695
2018,-5.960,-5.680
2019,-5.970,-5.685
2020,-5.970,-5.680
2021,-5.950,-5.690
2022,-5.955,-5.700
2023,-5.930,-5.705
2024,-5.935,-5.710
2025,-5.930,-5.720
2026,-5.940,-5.710
2027,-5.955,-5.730
2028,-5.975,-5.725
2029,-5.960,-5.695
2030,-5.970,-5.710
2031,-5.975,-5.695
2032,-5.975,-5.660
2033,-5.970,-5.665
2034,-5.955,-5.670
2035,-5.965,-5.685
2036,-5.970,-5.700
2037,-5.955,-5.705
2038,-5.980,-5.710
2039,-5.995,-5.710
2040,-5.980,-5.720
2041,-5.975,-5.690
2042,-5.975,-5.675
2043,-5.960,-5.675
2044,-5.950,-5.665
2045,-5.955,-5.655
2046,-5.940,-5.675
2047,-5.945,-5.665
2048,-5.960,-5.700
2049,-5.960,-5.700
2050,-5.965,-5.720
2051,-5.965,-5.730
2052,-5.960,-5.730
2053,-5.955,-5.715
2054,-5.965,-5.720
2055,-5.935,-5.725
2056,-5.940,-5.705
2057,-5.930,-5.685
2058,-5.925,-5.695
2059,-5.940,-5.695
2060,-5.930,-5.685
2061,-5.940,-5.705
2062,-5.945,-5.715
2063,-5.950,-5.725
2064,-5.950,-5.735
2065,-5.945,-5.725
2066,-5.940,-5.725
2067,-5.920,-5.700
2068,-5.920,-5.690
2069,-5.915,-5.685
2070,-5.900,-5.670
2071,-5.905,-5.700
2072,-5.910,-5.720
2073,-5.915,-5.735
2074,-5.915,-5.755
2075,-5.920,-5.755
2076,-5.930,-5.750
2077,-5.940,-5.750
2078,-5.915,-5.735
2079,-5.905,-5.715
2080,-5.905,-5.710
2081,-5.895,-5.705
2082,-5.880,-5.690
2083,-5.875,-5.715
2084,-5.885,-5.700
2085,-5.895,-5.725
2086,-5.890,-5.730
2087,-5.895,-5.750
2088,-5.870,-5.760
2089,-5.860,-5.790
2090,-5.855,-5.770
2091,-5.835,-5.775
2092,-5.815,-5.790
2093,-5.795,-5.760
2094,-5.780,-5.735
2095,-5.775,-5.740
2096,-5.775,-5.735
2097,-5.780,-5.755
2098,-5.790,-5.755
2099,-5.780,-5.755
2100,-5.770,-5.760
2101,-5.770,-5.750
2102,-5.750,-5.735
2103,-5.725,-5.695
2104,-5.720,-5.660
2105,-5.730,-5.630
2106,-5.730,-5.610
2107,-5.765,-5.600
2108,-5.785,-5.615
2109,-5.805,-5.650
2110,-5.815,-5.690
2111,-5.845,-5.675
2112,-5.835,-5.680
2113,-5.830,-5.665
2114,-5.815,-5.630
2115,-5.805,-5.580
2116,-5.790,-5.550
2117,-5.770,-5.520
2118,-5.790,-5.495
2119,-5.810,-5.495
2120,-5.840,-5.530
2121,-5.880,-5.540
2122,-5.920,-5.585
2123,-5.955,-5.635
2124,-5.965,-5.650
2125,-5.985,-5.660
2126,-5.995,-5.625
2127,-6.005,-5.615
2128,-6.005,-5.615
2129,-6.000,-5.600
2130,-6.000,-5.610
2131,-6.000,-5.640
2132,-6.025,-5.660
2133,-6.020,-5.660
2134,-6.030,-5.655
2135,-6.045,-5.660
2136,-6.065,-5.670
2137,-6.075,-5.660
2138,-6.070,-5.675
2139,-6.055,-5.660
2140,-6.060,-5.665
2141,-6.040,-5.665
2142,-6.025,-5.655
2143,-6.040,-5.660
2144,-6.040,-5.650
2145,-6.045,-5.630
2146,-6.045,-5.645
2147,-6.045,-5.645
2148,-6.055,-5.665
2149,-6.060,-5.645
2150,-6.040,-5.665
2151,-6.035,-5.645
2152,-6.035,-5.660
2153,-6.010,-5.640
2154,-6.000,-5.640
2155,-6.000,-5.640
2156,-5.985,-5.645
2157,-6.005,-5.680
2158,-6.025,-5.715
2159,-6.065,-5.760
2160,-6.060,-5.800
2161,-6.085,-5.840
2162,-6.070,-5.890
2163,-6.005,-5.970
2164,-5.895,-6.075
2165,-5.770,-6.165
2166,-5.600,-6.305
2167,-5.450,-6.405
2168,-5.315,-6.515
2169,-5.255,-6.560
2170,-5.245,-6.530
2171,-5.260,-6.450
2172,-5.255,-6.310
2173,-5.220,-6.180
2174,-5.090,-6.030
2175,-4.935,-5.845
2176,-4.785,-5.620
2177,-4.705,-5.340
2178,-4.780,-5.000
2179,-5.025,-4.700
2180,-5.405,-4.545
2181,-5.845,-4.570
2182,-6.255,-4.740
2183,-6.560,-5.035
2184,-6.770,-5.300
2185,-6.885,-5.505
2186,-6.935,-5.625
2187,-6.950,-5.675
2188,-6.970,-5.700
2189,-6.990,-5.710
2190,-7.000,-5.760
2191,-7.020,-5.810
2192,-7.030,-5.830
2193,-7.045,-5.865
2194,-7.065,-5.870
2195,-7.065,-5.855
2196,-7.055,-5.845
2197,-7.040,-5.835
2198,-7.015,-5.825
2199,-6.970,-5.845
2200,-6.885,-5.860
2201,-6.780,-5.865
2202,-6.630,-5.845
2203,-6.490,-5.830
2204,-6.360,-5.790
2205,-6.255,-5.735
2206,-6.175,-5.700
2207,-6.135,-5.665
2208,-6.140,-5.635
2209,-6.125,-5.615
2210,-6.130,-5.595
2211,-6.130,-5.605
2212,-6.100,-5.625
2213,-6.080,-5.620
2214,-6.080,-5.620
2215,-6.055,-5.625
2216,-6.050,-5.635
2217,-6.050,-5.655
2218,-6.050,-5.670
2219,-6.065,-5.665
2220,-6.065,-5.705
2221,-6.105,-5.680
2222,-6.085,-5.700
2223,-6.075,-5.685
2224,-6.075,-5.680
2225,-6.070,-5.690
2226,-6.060,-5.685
2227,-6.065,-5.695
2228,-6.070,-5.705
2229,-6.095,-5.740
2230,-6.095,-5.755
2231,-6.115,-5.775
2232,-6.120,-5.780
2233,-6.125,-5.785
2234,-6.130,-5.790
2235,-6.140,-5.785
2236,-6.145,-5.790
2237,-6.155,-5.820
2238,-6.140,-5.820
2239,-6.140,-5.850
2240,-6.160,-5.890
2241,-6.175,-5.915
2242,-6.190,-5.945
2243,-6.200,-5.960
2244,-6.210,-5.975
2245,-6.215,-5.960
2246,-6.235,-5.980
2247,-6.245,-5.955
2248,-6.250,-5.975
2249,-6.225,-5.985
2250,-6.235,-5.990
2251,-6.240,-6.015
2252,-6.240,-6.030
2253,-6.260,-6.045
2254,-6.265,-6.055
2255,-6.280,-6.075
2256,-6.300,-6.080
2257,-6.305,-6.080
2258,-6.320,-6.075
2259,-6.310,-6.075
2260,-6.305,-6.070
2261,-6.305,-6.065
2262,-6.295,-6.065
2263,-6.285,-6.065
2264,-6.280,-6.075
2265,-6.280,-6.085
2266,-6.290,-6.085
2267,-6.295,-6.100
2268,-6.295,-6.105
2269,-6.275,-6.095
2270,-6.265,-6.105
2271,-6.255,-6.080
2272,-6.225,-6.070
2273,-6.215,-6.070
2274,-6.200,-6.060
2275,-6.170,-6.035
2276,-6.140,-6.050
2277,-6.130,-6.045
2278,-6.110,-6.045
2279,-6.085,-6.040
2280,-6.075,-6.005
2281,-6.075,-5.990
2282,-6.060,-5.975
2283,-6.040,-5.945
2284,-6.030,-5.925
2285,-6.010,-5.890
2286,-5.990,-5.865
2287,-5.980,-5.870
2288,-5.955,-5.885
2289,-5.970,-5.875
2290,-5.970,-5.880
2291,-5.955,-5.865
2292,-5.945,-5.865
2293,-5.945,-5.830
2294,-5.925,-5.820
2295,-5.930,-5.780
2296,-5.915,-5.745
2297,-5.890,-5.730
2298,-5.885,-5.735
2299,-5.885,-5.725
2300,-5.885,-5.720
2301,-5.890,-5.740
2302,-5.880,-5.745
2303,-5.890,-5.755
2304,-5.885,-5.745
2305,-5.880,-5.735
2306,-5.875,-5.725
2307,-5.880,-5.710
2308,-5.865,-5.685
2309,-5.860,-5.665
2310,-5.855,-5.655
2311,-5.855,-5.670
2312,-5.870,-5.670
2313,-5.880,-5.685
2314,-5.880,-5.685
2315,-5.880,-5.695
2316,-5.890,-5.685
2317,-5.885,-5.680
2318,-5.880,-5.680
2319,-5.875,-5.665
2320,-5.860,-5.650
2321,-5.860,-5.665
2322,-5.860,-5.625
2323,-5.860,-5.635
2324,-5.880,-5.625
2325,-5.885,-5.640
2326,-5.895,-5.650
2327,-5.920,-5.655
2328,-5.920,-5.670
2329,-5.915,-5.645
2330,-5.905,-5.635
2331,-5.900,-5.615
2332,-5.905,-5.610
2333,-5.905,-5.585
2334,-5.910,-5.580
2335,-5.900,-5.590
2336,-5.930,-5.595
2337,-5.925,-5.615
2338,-5.960,-5.640
2339,-5.965,-5.645
2340,-5.980,-5.630
2341,-5.995,-5.645
2342,-5.990,-5.635
2343,-5.995,-5.600
2344,-5.980,-5.615
2345,-5.975,-5.595
2346,-5.965,-5.600
2347,-5.955,-5.580
2348,-5.955,-5.615
2349,-5.970,-5.620
2350,-5.985,-5.630
2351,-5.990,-5.635
2352,-5.995,-5.635
2353,-5.995,-5.640
2354,-5.985,-5.620
2355,-5.990,-5.625
2356,-5.990,-5.600
2357,-5.995,-5.600
2358,-5.985,-5.590
2359,-5.980,-5.620
2360,-5.970,-5.630
2361,-5.975,-5.640
2362,-5.985,-5.675
2363,-5.995,-5.690
2364,-6.000,-5.695
2365,-6.010,-5.695
2366,-6.005,-5.675
2367,-6.000,-5.680
2368,-6.000,-5.645
2369,-5.995,-5.645
2370,-5.990,-5.635
2371,-5.980,-5.640
2372,-5.990,-5.650
2373,-5.995,-5.655
2374,-6.005,-5.660
2375,-6.000,-5.675
2376,-6.015,-5.685
2377,-6.015,-5.695
2378,-6.020,-5.690
2379,-6.010,-5.680
2380,-6.010,-5.675
2381,-6.000,-5.660
2382,-5.975,-5.640
2383,-5.950,-5.650
2384,-5.935,-5.660
2385,-5.935,-5.660
2386,-5.930,-5.695
2387,-5.930,-5.700
2388,-5.940,-5.715
2389,-5.925,-5.735
2390,-5.900,-5.730
2391,-5.915,-5.735
2392,-5.880,-5.740
2393,-5.865,-5.725
2394,-5.840,-5.710
2395,-5.835,-5.705
2396,-5.830,-5.700
2397,-5.800,-5.690
2398,-5.790,-5.685
2399,-5.795,-5.670
2400,-5.810,-5.660
2401,-5.830,-5.655
2402,-5.850,-5.645
2403,-5.855,-5.650
2404,-5.840,-5.675
2405,-5.865,-5.670
2406,-5.865,-5.685
2407,-5.840,-5.705
2408,-5.835,-5.680
2409,-5.805,-5.685
2410,-5.810,-5.665
2411,-5.805,-5.610
2412,-5.790,-5.600
2413,-5.790,-5.585
2414,-5.800,-5.565
2415,-5.835,-5.560
2416,-5.840,-5.580
2417,-5.870,-5.605
2418,-5.895,-5.635
2419,-5.905,-5.670
2420,-5.925,-5.705
2421,-5.960,-5.710
2422,-5.985,-5.725
2423,-5.980,-5.730
2424,-6.010,-5.715
2425,-6.035,-5.730
2426,-6.025,-5.695
2427,-6.025,-5.710
2428,-6.005,-5.695
2429,-5.995,-5.690
2430,-6.000,-5.665
2431,-5.985,-5.685
2432,-6.005,-5.705
2433,-6.025,-5.710
2434,-6.025,-5.705
2435,-6.010,-5.735
2436,-6.025,-5.735
2437,-6.030,-5.730
2438,-6.040,-5.725
2439,-6.035,-5.695
2440,-6.020,-5.695
2441,-6.040,-5.685
2442,-6.005,-5.660
2443,-6.005,-5.670
2444,-6.015,-5.695
2445,-6.015,-5.700
2446,-6.020,-5.725
2447,-6.030,-5.750
2448,-6.060,-5.770
2449,-6.050,-5.765
2450,-6.050,-5.750
2451,-6.035,-5.750
2452,-6.030,-5.715
2453,-6.015,-5.725
2454,-6.010,-5.705
2455,-5.995,-5.730
2456,-6.005,-5.750
2457,-6.015,-5.765
2458,-6.050,-5.770
2459,-6.045,-5.785
2460,-6.040,-5.835
2461,-6.035,-5.905
2462,-5.975,-6.000
2463,-5.875,-6.110
2464,-5.745,-6.215
2465,-5.600,-6.310
2466,-5.425,-6.415
2467,-5.315,-6.525
2468,-5.270,-6.575
2469,-5.245,-6.550
2470,-5.285,-6.485
2471,-5.310,-6.370
2472,-5.280,-6.225
2473,-5.190,-6.095
2474,-5.035,-5.945
2475,-4.875,-5.780
2476,-4.750,-5.510
2477,-4.720,-5.210
2478,-4.845,-4.910
2479,-5.155,-4.665
2480,-5.550,-4.570
2481,-5.990,-4.620
2482,-6.370,-4.820
2483,-6.635,-5.100
2484,-6.815,-5.350
2485,-6.915,-5.545
2486,-6.965,-5.665
2487,-7.030,-5.715
2488,-7.080,-5.770
2489,-7.105,-5.790
2490,-7.120,-5.850
2491,-7.140,-5.890
2492,-7.130,-5.915
2493,-7.135,-5.935
2494,-7.135,-5.930
2495,-7.130,-5.925
2496,-7.125,-5.910
2497,-7.105,-5.920
2498,-7.050,-5.920
2499,-6.960,-5.945
2500,-6.830,-5.945
2501,-6.675,-5.925
2502,-6.515,-5.885
2503,-6.375,-5.825
2504,-6.275,-5.775
2505,-6.190,-5.730
2506,-6.145,-5.680
2507,-6.130,-5.670
2508,-6.130,-5.635
2509,-6.140,-5.640
2510,-6.135,-5.630
2511,-6.125,-5.610
2512,-6.095,-5.595
2513,-6.095,-5.595
2514,-6.070,-5.585
2515,-6.065,-5.610
2516,-6.075,-5.625
2517,-6.090,-5.645
2518,-6.115,-5.655
2519,-6.120,-5.665
2520,-6.100,-5.675
2521,-6.110,-5.675
2522,-6.115,-5.680
2523,-6.120,-5.690
2524,-6.095,-5.705
2525,-6.090,-5.700
2526,-6.070,-5.700
2527,-6.095,-5.705
2528,-6.100,-5.715
2529,-6.140,-5.720
2530,-6.160,-5.720
2531,-6.155,-5.740
2532,-6.170,-5.750
2533,-6.185,-5.755
2534,-6.190,-5.785
2535,-6.180,-5.790
2536,-6.180,-5.790
2537,-6.185,-5.820
2538,-6.195,-5.825
2539,-6.225,-5.850
2540,-6.205,-5.875
2541,-6.230,-5.875
2542,-6.240,-5.895
2543,-6.245,-5.900
2544,-6.275,-5.930
2545,-6.285,-5.945
2546,-6.300,-5.945
2547,-6.295,-5.965
2548,-6.305,-5.965
2549,-6.305,-5.980
2550,-6.295,-5.970
2551,-6.305,-5.985
2552,-6.310,-5.980
2553,-6.310,-5.980
2554,-6.330,-6.000
2555,-6.325,-6.030
2556,-6.350,-6.050
2557,-6.350,-6.075
2558,-6.355,-6.085
2559,-6.340,-6.065
2560,-6.335,-6.060
2561,-6.320,-6.040
2562,-6.310,-6.025
2563,-6.280,-6.035
2564,-6.270,-6.015
2565,-6.275,-6.025
2566,-6.275,-6.030
2567,-6.250,-6.020
2568,-6.245,-6.005
2569,-6.250,-5.990
2570,-6.240,-5.965
2571,-6.215,-5.950
2572,-6.210,-5.945
2573,-6.170,-5.955
2574,-6.150,-5.925
2575,-6.125,-5.905
2576,-6.105,-5.890
2577,-6.080,-5.865
2578,-6.090,-5.850
2579,-6.080,-5.865
2580,-6.075,-5.860
2581,-6.060,-5.835
2582,-6.055,-5.805
2583,-6.040,-5.775
2584,-6.015,-5.745
2585,-6.015,-5.710
2586,-6.005,-5.690
2587,-6.010,-5.700
2588,-6.020,-5.700
2589,-6.015,-5.695
2590,-6.005,-5.695
2591,-6.005,-5.715
2592,-6.025,-5.700
2593,-6.010,-5.695
2594,-5.995,-5.685
2595,-5.995,-5.670
2596,-5.980,-5.650
2597,-5.980,-5.635
2598,-5.965,-5.610
2599,-5.970,-5.610
2600,-5.965,-5.610
2601,-5.965,-5.605
2602,-5.965,-5.610
2603,-5.970,-5.625
2604,-5.990,-5.625
2605,-6.005,-5.630
2606,-6.005,-5.640
2607,-5.995,-5.625
2608,-5.985,-5.605
2609,-5.975,-5.580
2610,-5.980,-5.580
2611,-5.985,-5.595
2612,-5.970,-5.605
2613,-5.980,-5.620
2614,-5.980,-5.615
2615,-6.005,-5.655
2616,-6.000,-5.650
2617,-6.015,-5.655
2618,-6.025,-5.635
2619,-6.020,-5.590
2620,-6.005,-5.595
2621,-6.005,-5.590
2622,-5.985,-5.585
2623,-5.995,-5.600
2624,-5.995,-5.590
2625,-6.000,-5.595
2626,-6.015,-5.630
2627,-6.020,-5.630
2628,-6.030,-5.645
2629,-6.040,-5.655
2630,-6.035,-5.675
2631,-6.045,-5.635
2632,-6.030,-5.625
2633,-6.010,-5.580
2634,-6.015,-5.585
2635,-6.005,-5.595
2636,-6.010,-5.610
2637,-6.010,-5.620
2638,-6.020,-5.645
2639,-6.015,-5.620
2640,-6.025,-5.635
2641,-5.995,-5.635
2642,-6.020,-5.620
2643,-6.020,-5.600
2644,-6.005,-5.585
2645,-6.010,-5.580
2646,-6.020,-5.550
2647,-5.995,-5.570
2648,-6.015,-5.585
2649,-6.015,-5.600
2650,-5.995,-5.630
2651,-6.005,-5.640
2652,-6.005,-5.630
2653,-6.005,-5.610
2654,-6.005,-5.595
2655,-5.995,-5.585
2656,-5.975,-5.580
2657,-5.980,-5.570
2658,-5.960,-5.565
2659,-5.965,-5.570
2660,-5.975,-5.585
2661,-5.985,-5.595
2662,-6.000,-5.600
2663,-6.010,-5.600
2664,-6.005,-5.615
2665,-6.005,-5.620
2666,-5.995,-5.610
2667,-5.995,-5.610
2668,-6.000,-5.595
2669,-5.980,-5.585
2670,-5.955,-5.565
2671,-5.970,-5.565
2672,-5.960,-5.580
2673,-5.955,-5.590
2674,-5.960,-5.610
2675,-5.960,-5.600
2676,-5.965,-5.590
2677,-5.960,-5.605
2678,-5.975,-5.605
2679,-5.955,-5.590
2680,-5.940,-5.570
2681,-5.915,-5.560
2682,-5.905,-5.560
2683,-5.890,-5.585
2684,-5.885,-5.605
2685,-5.880,-5.620
2686,-5.895,-5.660
2687,-5.885,-5.645
2688,-5.885,-5.650
2689,-5.880,-5.630
2690,-5.860,-5.620
2691,-5.835,-5.595
2692,-5.805,-5.550
2693,-5.800,-5.530
2694,-5.795,-5.490
2695,-5.825,-5.500
2696,-5.835,-5.525
2697,-5.850,-5.545
2698,-5.875,-5.565
2699,-5.885,-5.590
2700,-5.895,-5.595
2701,-5.875,-5.580
2702,-5.865,-5.540
2703,-5.840,-5.505
2704,-5.815,-5.455
2705,-5.805,-5.420
2706,-5.800,-5.385
2707,-5.805,-5.410
2708,-5.835,-5.425
2709,-5.870,-5.460
2710,-5.905,-5.515
2711,-5.925,-5.550
2712,-5.950,-5.570
2713,-5.965,-5.585
2714,-5.960,-5.570
2715,-5.960,-5.555
2716,-5.985,-5.515
2717,-5.990,-5.515
2718,-5.990,-5.500
2719,-5.985,-5.525
2720,-6.000,-5.555
2721,-6.010,-5.580
2722,-6.015,-5.595
2723,-6.025,-5.610
2724,-6.035,-5.610
2725,-6.035,-5.625
2726,-6.040,-5.615
2727,-6.030,-5.595
2728,-6.020,-5.580
2729,-6.005,-5.555
2730,-6.010,-5.550
2731,-6.010,-5.545
2732,-6.010,-5.555
2733,-6.025,-5.585
2734,-6.045,-5.580
2735,-6.040,-5.590
2736,-6.045,-5.605
2737,-6.050,-5.620
2738,-6.045,-5.625
2739,-6.030,-5.590
2740,-6.025,-5.590
2741,-6.030,-5.580
2742,-6.020,-5.570
2743,-6.010,-5.585
2744,-6.005,-5.590
2745,-6.025,-5.605
2746,-6.040,-5.620
2747,-6.045,-5.625
2748,-6.060,-5.635
2749,-6.070,-5.645
2750,-6.065,-5.670
2751,-6.075,-5.695
2752,-6.065,-5.745
2753,-6.040,-5.810
2754,-5.990,-5.910
2755,-5.885,-6.030
2756,-5.765,-6.160
2757,-5.620,-6.290
2758,-5.495,-6.410
2759,-5.380,-6.500
2760,-5.335,-6.500
2761,-5.340,-6.445
2762,-5.365,-6.335
2763,-5.355,-6.155
2764,-5.315,-5.985
2765,-5.175,-5.845
2766,-5.025,-5.670
2767,-4.870,-5.435
2768,-4.800,-5.145
2769,-4.900,-4.815
2770,-5.155,-4.570
2771,-5.535,-4.460
2772,-5.950,-4.480
2773,-6.280,-4.695
2774,-6.530,-4.945
2775,-6.660,-5.175
2776,-6.725,-5.350
2777,-6.760,-5.440
2778,-6.810,-5.475
2779,-6.845,-5.545
2780,-6.905,-5.590
2781,-6.945,-5.640
2782,-6.965,-5.690
2783,-6.985,-5.730
2784,-7.000,-5.730
2785,-7.005,-5.725
2786,-7.015,-5.710
2787,-7.010,-5.720
2788,-6.990,-5.705
2789,-6.950,-5.720
2790,-6.875,-5.730
2791,-6.775,-5.745
2792,-6.645,-5.760
2793,-6.525,-5.740
2794,-6.390,-5.720
2795,-6.265,-5.660
2796,-6.195,-5.610
2797,-6.155,-5.565
2798,-6.125,-5.525
2799,-6.130,-5.515
2800,-6.135,-5.515
2801,-6.125,-5.515
2802,-6.095,-5.505
2803,-6.070,-5.515
2804,-6.050,-5.520
2805,-6.055,-5.515
2806,-6.065,-5.520
2807,-6.070,-5.530
2808,-6.060,-5.530
2809,-6.050,-5.545
2810,-6.040,-5.545
2811,-6.045,-5.545
2812,-6.065,-5.570
2813,-6.065,-5.555
2814,-6.070,-5.570
2815,-6.060,-5.550
2816,-6.075,-5.565
2817,-6.080,-5.575
2818,-6.070,-5.620
2819,-6.090,-5.645
2820,-6.080,-5.670
2821,-6.090,-5.690
2822,-6.095,-5.695
2823,-6.095,-5.700
2824,-6.100,-5.700
2825,-6.105,-5.700
2826,-6.090,-5.725
2827,-6.105,-5.755
2828,-6.135,-5.770
2829,-6.160,-5.790
2830,-6.185,-5.800
2831,-6.205,-5.840
2832,-6.190,-5.845
2833,-6.190,-5.875
2834,-6.190,-5.860
2835,-6.190,-5.870
2836,-6.190,-5.870
2837,-6.200,-5.875
2838,-6.215,-5.910
2839,-6.220,-5.920
2840,-6.230,-5.950
2841,-6.265,-5.980
2842,-6.265,-5.970
2843,-6.285,-6.020
2844,-6.280,-6.000
2845,-6.300,-5.995
2846,-6.295,-6.025
2847,-6.305,-6.000
2848,-6.305,-6.030
2849,-6.305,-6.015
2850,-6.290,-6.000
2851,-6.280,-6.030
2852,-6.280,-6.025
2853,-6.285,-6.025
2854,-6.280,-6.055
2855,-6.285,-6.065
2856,-6.290,-6.065
2857,-6.295,-6.055
2858,-6.285,-6.045
2859,-6.270,-6.010
2860,-6.240,-5.985
2861,-6.225,-5.970
2862,-6.205,-5.950
2863,-6.180,-5.960
2864,-6.160,-5.950
2865,-6.150,-5.955
2866,-6.150,-5.955
2867,-6.155,-5.930
2868,-6.125,-5.910
2869,-6.115,-5.890
2870,-6.100,-5.870
2871,-6.080,-5.835
2872,-6.050,-5.815
2873,-6.040,-5.805
2874,-6.010,-5.795
2875,-6.000,-5.790
2876,-5.990,-5.780
2877,-5.995,-5.780
2878,-5.990,-5.765
2879,-5.975,-5.770
2880,-5.990,-5.745
2881,-5.990,-5.765
2882,-5.995,-5.755
2883,-5.990,-5.745
2884,-5.960,-5.695
2885,-5.945,-5.690
2886,-5.950,-5.690
2887,-5.925,-5.680
2888,-5.935,-5.690
2889,-5.945,-5.665
2890,-5.955,-5.680
2891,-5.970,-5.680
2892,-5.965,-5.680
2893,-5.960,-5.660
2894,-5.945,-5.665
2895,-5.950,-5.630
2896,-5.935,-5.640
2897,-5.930,-5.620
2898,-5.920,-5.620
2899,-5.925,-5.615
2900,-5.920,-5.615
2901,-5.930,-5.625
2902,-5.940,-5.645
2903,-5.965,-5.650
2904,-5.975,-5.645
2905,-5.965,-5.640
2906,-5.970,-5.650
2907,-5.960,-5.625
2908,-5.950,-5.620
2909,-5.955,-5.610
2910,-5.955,-5.615
2911,-5.950,-5.620
2912,-5.955,-5.615
2913,-5.960,-5.615
2914,-5.980,-5.635
2915,-5.985,-5.645
2916,-6.005,-5.640
2917,-6.015,-5.640
2918,-6.005,-5.650
2919,-6.015,-5.655
2920,-6.010,-5.650
2921,-6.005,-5.640
2922,-6.005,-5.630
2923,-5.985,-5.640
2924,-5.960,-5.640
2925,-5.935,-5.635
2926,-5.940,-5.655
2927,-5.965,-5.655
2928,-5.985,-5.665
2929,-6.035,-5.665
2930,-6.065,-5.660
2931,-6.035,-5.640
2932,-6.000,-5.630
2933,-5.985,-5.600
2934,-5.955,-5.600
2935,-5.975,-5.610
2936,-6.000,-5.630
2937,-6.040,-5.640
2938,-6.055,-5.630
2939,-6.060,-5.630
2940,-6.055,-5.620
2941,-6.065,-5.625
2942,-6.050,-5.615
2943,-6.055,-5.625
2944,-6.035,-5.630
2945,-6.030,-5.635
2946,-6.005,-5.650
2947,-6.005,-5.640
2948,-6.015,-5.635
2949,-6.010,-5.665
2950,-6.025,-5.670
2951,-6.045,-5.660
2952,-6.020,-5.655
2953,-6.030,-5.610
2954,-6.030,-5.600
2955,-6.015,-5.605
2956,-6.005,-5.615
2957,-5.985,-5.620
2958,-5.975,-5.630
2959,-5.970,-5.635
2960,-5.975,-5.645
2961,-5.985,-5.660
2962,-5.990,-5.670
2963,-5.990,-5.685
2964,-5.970,-5.685
2965,-5.985,-5.665
2966,-5.950,-5.660
2967,-5.955,-5.630
2968,-5.925,-5.630
2969,-5.885,-5.615
2970,-5.890,-5.630
2971,-5.870,-5.650
2972,-5.865,-5.660
2973,-5.855,-5.675
2974,-5.865,-5.690
2975,-5.865,-5.690
2976,-5.880,-5.685
2977,-5.895,-5.670
2978,-5.900,-5.645
2979,-5.885,-5.605
2980,-5.880,-5.565
2981,-5.870,-5.555
2982,-5.855,-5.540
2983,-5.885,-5.550
2984,-5.895,-5.575
2985,-5.885,-5.575
2986,-5.880,-5.595
2987,-5.855,-5.610
2988,-5.835,-5.605
2989,-5.850,-5.610
2990,-5.845,-5.580
2991,-5.870,-5.555
2992,-5.870,-5.520
2993,-5.910,-5.500
2994,-5.915,-5.465
2995,-5.950,-5.505
2996,-6.015,-5.530
2997,-6.040,-5.565
2998,-6.045,-5.625
2999,-6.050,-5.650
3000,-6.065,-5.660
3001,-6.060,-5.690
3002,-6.055,-5.685
3003,-6.055,-5.665
3004,-6.060,-5.655
3005,-6.070,-5.635
3006,-6.100,-5.615
3007,-6.085,-5.600
3008,-6.080,-5.590
3009,-6.085,-5.615
3010,-6.100,-5.640
3011,-6.115,-5.655
3012,-6.110,-5.670
3013,-6.105,-5.665
3014,-6.090,-5.665
3015,-6.100,-5.645
3016,-6.075,-5.630
3017,-6.095,-5.630
3018,-6.080,-5.625
3019,-6.090,-5.645
3020,-6.085,-5.655
3021,-6.105,-5.675
3022,-6.110,-5.685
3023,-6.120,-5.700
3024,-6.130,-5.680
3025,-6.155,-5.690
3026,-6.160,-5.700
3027,-6.155,-5.700
3028,-6.140,-5.680
3029,-6.135,-5.675
3030,-6.125,-5.680
3031,-6.120,-5.685
3032,-6.115,-5.680
3033,-6.135,-5.670
3034,-6.145,-5.675
3035,-6.160,-5.695
3036,-6.185,-5.725
3037,-6.215,-5.775
3038,-6.235,-5.850
3039,-6.240,-5.915
3040,-6.215,-6.015
3041,-6.185,-6.140
3042,-6.100,-6.300
3043,-6.005,-6.465
3044,-5.880,-6.615
3045,-5.780,-6.750
3046,-5.730,-6.800
3047,-5.710,-6.775
3048,-5.705,-6.665
3049,-5.695,-6.530
3050,-5.625,-6.360
3051,-5.490,-6.185
3052,-5.300,-6.040
3053,-5.095,-5.860
3054,-4.930,-5.605
3055,-4.890,-5.295
3056,-4.945,-4.995
3057,-5.135,-4.745
3058,-5.430,-4.635
3059,-5.770,-4.660
3060,-6.120,-4.795
3061,-6.400,-4.995
3062,-6.595,-5.190
3063,-6.715,-5.330
3064,-6.785,-5.405
3065,-6.815,-5.460
3066,-6.855,-5.480
3067,-6.905,-5.520
3068,-6.980,-5.550
3069,-7.025,-5.600
3070,-7.050,-5.625
3071,-7.070,-5.650
3072,-7.085,-5.665
3073,-7.095,-5.675
3074,-7.060,-5.690
3075,-7.055,-5.700
3076,-7.015,-5.735
3077,-6.965,-5.735
3078,-6.885,-5.760
3079,-6.785,-5.770
3080,-6.655,-5.750
3081,-6.525,-5.715
3082,-6.420,-5.690
3083,-6.330,-5.655
3084,-6.265,-5.625
3085,-6.245,-5.620
3086,-6.230,-5.595
3087,-6.245,-5.590
3088,-6.240,-5.615
3089,-6.230,-5.600
3090,-6.220,-5.595
3091,-6.210,-5.610
3092,-6.200,-5.595
3093,-6.200,-5.570
3094,-6.200,-5.565
3095,-6.190,-5.575
3096,-6.210,-5.600
3097,-6.205,-5.610
3098,-6.200,-5.605
3099,-6.185,-5.615
3100,-6.180,-5.590
3101,-6.190,-5.630
3102,-6.195,-5.630
3103,-6.180,-5.660
3104,-6.195,-5.685
3105,-6.200,-5.715
3106,-6.215,-5.750
3107,-6.240,-5.740
3108,-6.250,-5.740
3109,-6.270,-5.730
3110,-6.260,-5.725
3111,-6.270,-5.725
3112,-6.265,-5.730
3113,-6.265,-5.730
3114,-6.260,-5.765
3115,-6.275,-5.805
3116,-6.300,-5.825
3117,-6.305,-5.840
3118,-6.305,-5.845
3119,-6.295,-5.855
3120,-6.305,-5.850
3121,-6.340,-5.870
3122,-6.360,-5.895
3123,-6.385,-5.880
3124,-6.395,-5.890
3125,-6.375,-5.920
3126,-6.385,-5.935
3127,-6.370,-5.945
3128,-6.365,-5.950
3129,-6.365,-5.940
3130,-6.365,-5.930
3131,-6.375,-5.955
3132,-6.400,-5.980
3133,-6.420,-5.990
3134,-6.425,-6.005
3135,-6.415,-5.995
3136,-6.410,-5.995
3137,-6.415,-5.985
3138,-6.415,-5.985
3139,-6.400,-5.965
3140,-6.385,-5.980
3141,-6.385,-5.975
3142,-6.380,-5.965
3143,-6.395,-5.995
3144,-6.395,-6.005
3145,-6.415,-6.025
3146,-6.410,-6.035
3147,-6.390,-6.025
3148,-6.380,-6.015
3149,-6.355,-5.980
3150,-6.330,-5.970
3151,-6.305,-5.960
3152,-6.305,-5.955
3153,-6.295,-5.935
3154,-6.280,-5.920
3155,-6.280,-5.895
3156,-6.260,-5.895
3157,-6.255,-5.910
3158,-6.255,-5.905
3159,-6.225,-5.880
3160,-6.175,-5.870
3161,-6.170,-5.850
3162,-6.140,-5.820
3163,-6.115,-5.785
3164,-6.100,-5.770
3165,-6.085,-5.765
3166,-6.105,-5.765
3167,-6.125,-5.790
3168,-6.140,-5.785
3169,-6.160,-5.805
3170,-6.145,-5.775
3171,-6.135,-5.760
3172,-6.130,-5.735
3173,-6.120,-5.725
3174,-6.105,-5.705
3175,-6.080,-5.695
3176,-6.075,-5.675
3177,-6.075,-5.675
3178,-6.075,-5.680
3179,-6.105,-5.680
3180,-6.115,-5.715
3181,-6.110,-5.720
3182,-6.130,-5.710
3183,-6.110,-5.705
3184,-6.105,-5.680
3185,-6.105,-5.650
3186,-6.095,-5.620
3187,-6.080,-5.605
3188,-6.065,-5.615
3189,-6.055,-5.645
3190,-6.075,-5.660
3191,-6.115,-5.685
3192,-6.145,-5.705
3193,-6.165,-5.695
3194,-6.185,-5.685
3195,-6.185,-5.665
3196,-6.155,-5.640
3197,-6.115,-5.620
3198,-6.090,-5.625
3199,-6.090,-5.635
3200,-6.115,-5.645
3201,-6.150,-5.660
3202,-6.170,-5.690
3203,-6.175,-5.695
3204,-6.185,-5.700
3205,-6.155,-5.700
3206,-6.135,-5.700
3207,-6.120,-5.680
3208,-6.120,-5.665
3209,-6.125,-5.655
3210,-6.130,-5.660
3211,-6.160,-5.675
3212,-6.165,-5.690
3213,-6.185,-5.745
3214,-6.200,-5.750
3215,-6.185,-5.765
3216,-6.170,-5.750
3217,-6.160,-5.710
3218,-6.145,-5.685
3219,-6.145,-5.635
3220,-6.145,-5.630
3221,-6.145,-5.620
3222,-6.160,-5.610
3223,-6.160,-5.635
3224,-6.160,-5.655
3225,-6.180,-5.695
3226,-6.195,-5.715
3227,-6.200,-5.745
3228,-6.190,-5.735
3229,-6.180,-5.720
3230,-6.185,-5.695
3231,-6.165,-5.690
3232,-6.160,-5.640
3233,-6.175,-5.645
3234,-6.175,-5.650
3235,-6.180,-5.695
3236,-6.180,-5.695
3237,-6.220,-5.705
3238,-6.235,-5.735
3239,-6.250,-5.745
3240,-6.270,-5.745
3241,-6.275,-5.725
3242,-6.245,-5.720
3243,-6.195,-5.670
3244,-6.160,-5.660
3245,-6.140,-5.665
3246,-6.155,-5.660
3247,-6.180,-5.680
3248,-6.210,-5.680
3249,-6.235,-5.665
3250,-6.230,-5.660
3251,-6.235,-5.655
3252,-6.215,-5.645
3253,-6.225,-5.660
3254,-6.235,-5.675
3255,-6.245,-5.670
3256,-6.245,-5.670
3257,-6.215,-5.655
3258,-6.205,-5.630
3259,-6.195,-5.620
3260,-6.190,-5.635
3261,-6.190,-5.640
3262,-6.210,-5.655
3263,-6.230,-5.670
3264,-6.230,-5.690
3265,-6.245,-5.680
3266,-6.265,-5.695
3267,-6.250,-5.700
3268,-6.225,-5.685
3269,-6.220,-5.700
3270,-6.215,-5.715
3271,-6.220,-5.695
3272,-6.220,-5.700
3273,-6.220,-5.670
3274,-6.195,-5.665
3275,-6.195,-5.645
3276,-6.180,-5.665
3277,-6.185,-5.680
3278,-6.185,-5.720
3279,-6.190,-5.750
3280,-6.190,-5.765
3281,-6.180,-5.760
3282,-6.180,-5.740
3283,-6.135,-5.705
3284,-6.145,-5.700
3285,-6.135,-5.680
3286,-6.105,-5.705
3287,-6.090,-5.720
3288,-6.075,-5.720
3289,-6.075,-5.705
3290,-6.065,-5.680
3291,-6.065,-5.645
3292,-6.065,-5.620
3293,-6.085,-5.615
3294,-6.095,-5.625
3295,-6.115,-5.635
3296,-6.130,-5.665
3297,-6.130,-5.695
3298,-6.145,-5.705
3299,-6.130,-5.710
3300,-6.110,-5.685
3301,-6.080,-5.625
3302,-6.060,-5.575
3303,-6.055,-5.530
3304,-6.060,-5.480
3305,-6.090,-5.505
3306,-6.140,-5.510
3307,-6.180,-5.560
3308,-6.210,-5.610
3309,-6.230,-5.615
3310,-6.230,-5.660
3311,-6.250,-5.675
3312,-6.275,-5.680
3313,-6.280,-5.685
3314,-6.285,-5.690
3315,-6.305,-5.670
3316,-6.315,-5.655
3317,-6.310,-5.665
3318,-6.320,-5.645
3319,-6.310,-5.640
3320,-6.315,-5.660
3321,-6.320,-5.700
3322,-6.300,-5.700
3323,-6.295,-5.720
3324,-6.305,-5.730
3325,-6.330,-5.735
3326,-6.345,-5.715
3327,-6.365,-5.710
3328,-6.365,-5.705
3329,-6.360,-5.700
3330,-6.310,-5.700
3331,-6.300,-5.695
3332,-6.285,-5.730
3333,-6.325,-5.710
3334,-6.320,-5.710
3335,-6.345,-5.710
3336,-6.340,-5.745
3337,-6.350,-5.740
3338,-6.355,-5.755
3339,-6.345,-5.740
3340,-6.325,-5.730
3341,-6.305,-5.715
3342,-6.275,-5.690
3343,-6.270,-5.675
3344,-6.300,-5.695
3345,-6.330,-5.730
3346,-6.365,-5.770
3347,-6.405,-5.820
3348,-6.445,-5.880
3349,-6.450,-5.945
3350,-6.430,-6.000
3351,-6.360,-6.080
3352,-6.245,-6.160
3353,-6.080,-6.265
3354,-5.935,-6.390
3355,-5.805,-6.525
3356,-5.740,-6.640
3357,-5.680,-6.670
3358,-5.685,-6.665
3359,-5.705,-6.555
3360,-5.700,-6.430
3361,-5.670,-6.265
3362,-5.550,-6.110
3363,-5.390,-5.940
3364,-5.220,-5.760
3365,-5.080,-5.535
3366,-5.070,-5.250
3367,-5.160,-4.970
3368,-5.465,-4.765
3369,-5.885,-4.705
3370,-6.300,-4.790
3371,-6.680,-5.025
3372,-6.965,-5.275
3373,-7.150,-5.520
3374,-7.285,-5.645
3375,-7.335,-5.730
3376,-7.365,-5.760
3377,-7.360,-5.785
3378,-7.360,-5.835
3379,-7.330,-5.880
3380,-7.335,-5.935
3381,-7.325,-5.950
3382,-7.335,-5.960
3383,-7.350,-5.935
3384,-7.380,-5.940
3385,-7.380,-5.930
3386,-7.355,-5.945
3387,-7.310,-5.945
3388,-7.210,-5.950
3389,-7.075,-5.965
3390,-6.935,-5.935
3391,-6.805,-5.905
3392,-6.695,-5.855
3393,-6.630,-5.790
3394,-6.550,-5.740
3395,-6.515,-5.720
3396,-6.505,-5.705
3397,-6.505,-5.700
3398,-6.495,-5.715
3399,-6.500,-5.715
3400,-6.470,-5.735
3401,-6.435,-5.725
3402,-6.410,-5.705
3403,-6.385,-5.690
3404,-6.385,-5.695
3405,-6.390,-5.680
3406,-6.410,-5.695
3407,-6.425,-5.710
3408,-6.420,-5.715
3409,-6.445,-5.715
3410,-6.465,-5.720
3411,-6.500,-5.715
3412,-6.485,-5.720
3413,-6.495,-5.750
3414,-6.455,-5.765
3415,-6.440,-5.770
3416,-6.425,-5.780
3417,-6.425,-5.780
3418,-6.465,-5.790
3419,-6.480,-5.790
3420,-6.480,-5.795
3421,-6.505,-5.805
3422,-6.510,-5.815
3423,-6.505,-5.830
3424,-6.500,-5.850
3425,-6.485,-5.865
3426,-6.500,-5.850
3427,-6.530,-5.880
3428,-6.550,-5.910
3429,-6.560,-5.930
3430,-6.565,-5.965
3431,-6.575,-5.990
3432,-6.585,-5.980
3433,-6.600,-5.980
3434,-6.620,-5.965
3435,-6.645,-5.995
3436,-6.645,-5.985
3437,-6.660,-6.010
3438,-6.645,-6.030
3439,-6.620,-6.030
3440,-6.635,-6.045
3441,-6.620,-6.070
3442,-6.615,-6.110
3443,-6.615,-6.120
3444,-6.655,-6.120
3445,-6.660,-6.120
3446,-6.670,-6.115
3447,-6.665,-6.110
3448,-6.655,-6.095
3449,-6.640,-6.105
3450,-6.615,-6.115
3451,-6.610,-6.110
3452,-6.615,-6.120
3453,-6.625,-6.120
3454,-6.620,-6.120
3455,-6.630,-6.135
3456,-6.625,-6.130
3457,-6.635,-6.120
3458,-6.640,-6.115
3459,-6.625,-6.080
3460,-6.595,-6.060
3461,-6.545,-6.020
3462,-6.495,-6.020
3463,-6.460,-6.005
3464,-6.435,-6.035
3465,-6.435,-6.010
3466,-6.450,-6.020
3467,-6.480,-6.030
3468,-6.515,-6.005
3469,-6.505,-6.000
3470,-6.475,-5.985
3471,-6.435,-5.950
3472,-6.375,-5.930
3473,-6.340,-5.895
3474,-6.325,-5.870
3475,-6.295,-5.860
3476,-6.290,-5.840
3477,-6.295,-5.820
3478,-6.280,-5.790
3479,-6.285,-5.765
3480,-6.280,-5.775
3481,-6.295,-5.770
3482,-6.305,-5.780
3483,-6.325,-5.800
3484,-6.335,-5.805
3485,-6.330,-5.805
3486,-6.325,-5.790
3487,-6.310,-5.755
3488,-6.295,-5.725
3489,-6.305,-5.700
3490,-6.305,-5.705
3491,-6.295,-5.725
3492,-6.300,-5.755
3493,-6.305,-5.765
3494,-6.305,-5.760
3495,-6.320,-5.745
3496,-6.315,-5.720
3497,-6.295,-5.720
3498,-6.285,-5.705
3499,-6.270,-5.695
3500,-6.280,-5.710
3501,-6.265,-5.715
3502,-6.275,-5.735
3503,-6.295,-5.745
3504,-6.280,-5.755
3505,-6.305,-5.770
3506,-6.320,-5.765
3507,-6.330,-5.765
3508,-6.295,-5.750
3509,-6.285,-5.750
3510,-6.305,-5.730
3511,-6.295,-5.720
3512,-6.285,-5.710
3513,-6.295,-5.700
3514,-6.325,-5.710
3515,-6.355,-5.730
3516,-6.380,-5.735
3517,-6.365,-5.765
3518,-6.365,-5.760
3519,-6.360,-5.780
3520,-6.325,-5.765
3521,-6.310,-5.755
3522,-6.295,-5.730
3523,-6.300,-5.765
3524,-6.310,-5.735
3525,-6.340,-5.740
3526,-6.355,-5.730
3527,-6.370,-5.735
3528,-6.360,-5.745
3529,-6.355,-5.765
3530,-6.350,-5.785
3531,-6.325,-5.770
3532,-6.325,-5.755
3533,-6.300,-5.730
3534,-6.320,-5.740
3535,-6.310,-5.720
3536,-6.305,-5.735
3537,-6.285,-5.725
3538,-6.270,-5.735
3539,-6.270,-5.740
3540,-6.300,-5.745
3541,-6.320,-5.755
3542,-6.360,-5.765
3543,-6.375,-5.795
3544,-6.375,-5.780
3545,-6.350,-5.795
3546,-6.345,-5.770
3547,-6.325,-5.765
3548,-6.295,-5.735
3549,-6.315,-5.725
3550,-6.305,-5.710
3551,-6.285,-5.735
3552,-6.290,-5.735
3553,-6.285,-5.750
3554,-6.300,-5.780
3555,-6.310,-5.775
3556,-6.320,-5.780
3557,-6.310,-5.775
3558,-6.315,-5.765
3559,-6.315,-5.770
3560,-6.300,-5.775
3561,-6.305,-5.760
3562,-6.305,-5.765
3563,-6.295,-5.760
3564,-6.290,-5.735
3565,-6.280,-5.750
3566,-6.295,-5.755
3567,-6.305,-5.740
3568,-6.300,-5.730
3569,-6.305,-5.715
3570,-6.315,-5.710
3571,-6.290,-5.700
3572,-6.295,-5.710
3573,-6.270,-5.755
3574,-6.270,-5.765
3575,-6.275,-5.775
3576,-6.280,-5.780
3577,-6.280,-5.765
3578,-6.280,-5.760
3579,-6.290,-5.740
3580,-6.280,-5.740
3581,-6.255,-5.720
3582,-6.250,-5.740
3583,-6.230,-5.730
3584,-6.245,-5.745
3585,-6.255,-5.735
3586,-6.280,-5.730
3587,-6.295,-5.730
3588,-6.300,-5.750
3589,-6.280,-5.750
3590,-6.265,-5.765
3591,-6.235,-5.765
3592,-6.215,-5.750
3593,-6.205,-5.745
3594,-6.195,-5.735
3595,-6.170,-5.750
3596,-6.175,-5.780
3597,-6.175,-5.805
3598,-6.160,-5.815
3599,-6.155,-5.810
3600,-6.135,-5.795
3601,-6.100,-5.785
3602,-6.100,-5.765
3603,-6.080,-5.745
3604,-6.075,-5.745
3605,-6.085,-5.740
3606,-6.085,-5.725
3607,-6.115,-5.735
3608,-6.150,-5.730
3609,-6.145,-5.720
3610,-6.155,-5.730
3611,-6.170,-5.715
3612,-6.135,-5.715
3613,-6.090,-5.680
3614,-6.060,-5.655
3615,-6.060,-5.630
3616,-6.070,-5.620
3617,-6.085,-5.615
3618,-6.110,-5.615
3619,-6.125,-5.630
3620,-6.165,-5.655
3621,-6.215,-5.690
3622,-6.240,-5.735
3623,-6.235,-5.770
3624,-6.255,-5.795
3625,-6.265,-5.810
3626,-6.280,-5.770
3627,-6.315,-5.745
3628,-6.310,-5.710
3629,-6.325,-5.710
3630,-6.320,-5.705
3631,-6.310,-5.715
3632,-6.305,-5.755
3633,-6.295,-5.755
3634,-6.280,-5.790
3635,-6.300,-5.795
3636,-6.300,-5.795
3637,-6.315,-5.790
3638,-6.335,-5.795
3639,-6.335,-5.785
3640,-6.315,-5.755
3641,-6.300,-5.755
3642,-6.270,-5.750
3643,-6.260,-5.755
3644,-6.265,-5.755
3645,-6.265,-5.750
3646,-6.305,-5.765
3647,-6.325,-5.770
3648,-6.380,-5.785
3649,-6.385,-5.800
3650,-6.390,-5.800
3651,-6.365,-5.795
3652,-6.345,-5.755
3653,-6.325,-5.775
3654,-6.290,-5.760
3655,-6.280,-5.765
3656,-6.280,-5.765
3657,-6.295,-5.800
3658,-6.310,-5.845
3659,-6.335,-5.890
3660,-6.355,-5.940
3661,-6.345,-5.990
3662,-6.320,-6.040
3663,-6.245,-6.115
3664,-6.120,-6.205
3665,-5.960,-6.350
3666,-5.790,-6.510
3667,-5.640,-6.630
3668,-5.580,-6.670
3669,-5.575,-6.665
3670,-5.630,-6.580
3671,-5.635,-6.435
3672,-5.595,-6.290
3673,-5.440,-6.100
3674,-5.260,-5.905
3675,-5.095,-5.650
3676,-5.005,-5.325
3677,-5.080,-5.055
3678,-5.340,-4.825
3679,-5.740,-4.760
3680,-6.170,-4.825
3681,-6.565,-5.020
3682,-6.855,-5.245
3683,-7.020,-5.460
3684,-7.095,-5.630
3685,-7.135,-5.710
3686,-7.190,-5.765
3687,-7.240,-5.790
3688,-7.285,-5.825
3689,-7.340,-5.890
3690,-7.375,-5.925
3691,-7.380,-5.950
3692,-7.375,-5.950
3693,-7.375,-5.970
3694,-7.385,-5.980
3695,-7.405,-5.990
3696,-7.410,-5.990
3697,-7.395,-5.985
3698,-7.350,-6.010
3699,-7.295,-6.030
3700,-7.215,-6.035
3701,-7.125,-6.000
3702,-7.010,-5.995
3703,-6.855,-5.930
3704,-6.745,-5.865
3705,-6.635,-5.815
3706,-6.535,-5.770
3707,-6.485,-5.750
3708,-6.475,-5.760
3709,-6.460,-5.735
3710,-6.440,-5.730
3711,-6.405,-5.720
3712,-6.370,-5.725
3713,-6.345,-5.730
3714,-6.325,-5.710
3715,-6.320,-5.700
3716,-6.305,-5.705
3717,-6.330,-5.715
3718,-6.360,-5.745
3719,-6.390,-5.780
3720,-6.400,-5.780
3721,-6.390,-5.800
3722,-6.400,-5.805
3723,-6.355,-5.810
3724,-6.365,-5.795
3725,-6.365,-5.795
3726,-6.355,-5.785
3727,-6.350,-5.770
3728,-6.370,-5.775
3729,-6.370,-5.795
3730,-6.385,-5.800
3731,-6.390,-5.835
3732,-6.395,-5.850
3733,-6.400,-5.875
3734,-6.395,-5.865
3735,-6.405,-5.850
3736,-6.405,-5.845
3737,-6.425,-5.870
3738,-6.420,-5.880
3739,-6.440,-5.925
3740,-6.445,-5.965
3741,-6.465,-5.985
3742,-6.465,-6.000
3743,-6.470,-6.035
3744,-6.485,-6.050
3745,-6.495,-6.065
3746,-6.520,-6.055
3747,-6.540,-6.050
3748,-6.555,-6.045
3749,-6.570,-6.050
3750,-6.565,-6.030
3751,-6.550,-6.040
3752,-6.555,-6.060
3753,-6.555,-6.075
3754,-6.550,-6.060
3755,-6.550,-6.075
3756,-6.555,-6.065
3757,-6.565,-6.100
3758,-6.580,-6.115
3759,-6.590,-6.120
3760,-6.570,-6.125
3761,-6.555,-6.135
3762,-6.550,-6.140
3763,-6.530,-6.135
3764,-6.540,-6.120
3765,-6.565,-6.125
3766,-6.570,-6.130
3767,-6.565,-6.135
3768,-6.560,-6.125
3769,-6.540,-6.135
3770,-6.535,-6.130
3771,-6.510,-6.125
3772,-6.475,-6.125
3773,-6.455,-6.115
3774,-6.425,-6.115
3775,-6.410,-6.080
3776,-6.405,-6.075
3777,-6.400,-6.020
3778,-6.395,-6.010
3779,-6.400,-6.000
3780,-6.380,-6.005
3781,-6.340,-6.015
3782,-6.330,-6.005
3783,-6.325,-5.990
3784,-6.305,-5.980
3785,-6.290,-5.945
3786,-6.270,-5.925
3787,-6.240,-5.905
3788,-6.230,-5.905
3789,-6.220,-5.900
3790,-6.225,-5.895
3791,-6.250,-5.880
3792,-6.250,-5.885
3793,-6.235,-5.850
3794,-6.230,-5.835
3795,-6.225,-5.830
3796,-6.210,-5.825
3797,-6.185,-5.820
3798,-6.155,-5.800
3799,-6.135,-5.790
3800,-6.160,-5.760
3801,-6.185,-5.735
3802,-6.185,-5.745
3803,-6.225,-5.725
3804,-6.230,-5.740
3805,-6.220,-5.740
3806,-6.220,-5.735
3807,-6.200,-5.740
3808,-6.180,-5.750
3809,-6.160,-5.755
3810,-6.150,-5.735
3811,-6.150,-5.750
3812,-6.160,-5.730
3813,-6.185,-5.700
3814,-6.225,-5.720
3815,-6.235,-5.725
3816,-6.235,-5.760
3817,-6.235,-5.770
3818,-6.235,-5.770
3819,-6.225,-5.780
3820,-6.195,-5.800
3821,-6.195,-5.765
3822,-6.195,-5.750
3823,-6.180,-5.735
3824,-6.195,-5.725
3825,-6.215,-5.725
3826,-6.245,-5.740
3827,-6.280,-5.740
3828,-6.305,-5.790
3829,-6.300,-5.790
3830,-6.280,-5.790
3831,-6.260,-5.775
3832,-6.235,-5.770
3833,-6.225,-5.760
3834,-6.220,-5.755
3835,-6.225,-5.760
3836,-6.230,-5.785
3837,-6.230,-5.785
3838,-6.230,-5.805
3839,-6.235,-5.805
3840,-6.230,-5.810
3841,-6.235,-5.785
3842,-6.250,-5.770
3843,-6.255,-5.760
3844,-6.250,-5.745
3845,-6.250,-5.755
3846,-6.230,-5.780
3847,-6.225,-5.785
3848,-6.225,-5.785
3849,-6.205,-5.770
3850,-6.200,-5.755
3851,-6.210,-5.775
3852,-6.215,-5.780
3853,-6.225,-5.795
3854,-6.235,-5.785
3855,-6.240,-5.775
3856,-6.240,-5.750
3857,-6.240,-5.730
3858,-6.215,-5.725
3859,-6.210,-5.735
3860,-6.235,-5.745
3861,-6.230,-5.750
3862,-6.230,-5.770
3863,-6.215,-5.775
3864,-6.220,-5.780
3865,-6.215,-5.780
3866,-6.215,-5.785
3867,-6.225,-5.800
3868,-6.225,-5.780
3869,-6.225,-5.775
3870,-6.200,-5.760
3871,-6.175,-5.740
3872,-6.170,-5.745
3873,-6.195,-5.735
3874,-6.215,-5.725
3875,-6.255,-5.740
3876,-6.255,-5.710
3877,-6.250,-5.750
3878,-6.245,-5.745
3879,-6.250,-5.750
3880,-6.215,-5.765
3881,-6.195,-5.775
3882,-6.180,-5.775
3883,-6.175,-5.765
3884,-6.170,-5.760
3885,-6.175,-5.760
3886,-6.195,-5.765
3887,-6.195,-5.765
3888,-6.200,-5.790
3889,-6.190,-5.795
3890,-6.195,-5.770
3891,-6.190,-5.760
3892,-6.160,-5.750
3893,-6.160,-5.740
3894,-6.135,-5.740
3895,-6.120,-5.770
3896,-6.130,-5.795
3897,-6.120,-5.830
3898,-6.125,-5.835
3899,-6.100,-5.820
3900,-6.095,-5.800
3901,-6.060,-5.780
3902,-6.045,-5.745
3903,-6.005,-5.735
3904,-5.980,-5.725
3905,-5.985,-5.700
3906,-6.015,-5.675
3907,-6.040,-5.680
3908,-6.065,-5.715
3909,-6.085,-5.740
3910,-6.090,-5.775
3911,-6.110,-5.800
3912,-6.110,-5.785
3913,-6.115,-5.775
3914,-6.095,-5.735
3915,-6.065,-5.690
3916,-6.040,-5.655
3917,-6.005,-5.615
3918,-5.980,-5.560
3919,-5.995,-5.545
3920,-6.040,-5.550
3921,-6.080,-5.545
3922,-6.100,-5.570
3923,-6.120,-5.620
3924,-6.150,-5.670
3925,-6.160,-5.710
3926,-6.170,-5.710
3927,-6.195,-5.685
3928,-6.200,-5.675
3929,-6.205,-5.675
3930,-6.195,-5.685
3931,-6.185,-5.695
3932,-6.175,-5.715
3933,-6.185,-5.730
3934,-6.210,-5.765
3935,-6.245,-5.765
3936,-6.280,-5.785
3937,-6.305,-5.770
3938,-6.320,-5.740
3939,-6.295,-5.710
3940,-6.270,-5.675
3941,-6.245,-5.670
3942,-6.230,-5.695
3943,-6.225,-5.700
3944,-6.250,-5.720
3945,-6.250,-5.755
3946,-6.250,-5.760
3947,-6.255,-5.760
3948,-6.260,-5.760
3949,-6.260,-5.755
3950,-6.270,-5.745
3951,-6.285,-5.745
3952,-6.280,-5.725
3953,-6.275,-5.750
3954,-6.265,-5.740
3955,-6.215,-5.725
3956,-6.215,-5.720
3957,-6.200,-5.725
3958,-6.205,-5.745
3959,-6.230,-5.790
3960,-6.245,-5.810
3961,-6.270,-5.815
3962,-6.300,-5.845
3963,-6.290,-5.840
3964,-6.290,-5.885
3965,-6.240,-5.960
3966,-6.165,-6.000
3967,-6.050,-6.120
3968,-5.890,-6.215
3969,-5.730,-6.335
3970,-5.570,-6.460
3971,-5.470,-6.535
3972,-5.435,-6.545
3973,-5.455,-6.495
3974,-5.505,-6.390
3975,-5.505,-6.250
3976,-5.455,-6.100
3977,-5.345,-5.925
3978,-5.185,-5.750
3979,-5.015,-5.535
3980,-4.935,-5.280
3981,-4.940,-5.020
3982,-5.115,-4.795
3983,-5.465,-4.645
3984,-5.885,-4.645
3985,-6.325,-4.785
3986,-6.695,-5.020
3987,-6.955,-5.280
3988,-7.095,-5.515
3989,-7.170,-5.680
3990,-7.210,-5.775
3991,-7.230,-5.825
3992,-7.265,-5.875
3993,-7.300,-5.920
3994,-7.310,-5.955
3995,-7.335,-5.985
3996,-7.325,-5.990
3997,-7.295,-5.980
3998,-7.280,-5.965
3999,-7.265,-5.940
4000,-7.235,-5.940
4001,-7.205,-5.955
4002,-7.175,-5.955
4003,-7.145,-5.955
4004,-7.080,-5.970
4005,-6.975,-5.945
4006,-6.835,-5.900
4007,-6.685,-5.865
4008,-6.570,-5.810
4009,-6.475,-5.780
4010,-6.420,-5.725
4011,-6.370,-5.685
4012,-6.350,-5.665
4013,-6.355,-5.645
4014,-6.350,-5.655
4015,-6.345,-5.665
4016,-6.360,-5.690
4017,-6.360,-5.715
4018,-6.365,-5.750
4019,-6.350,-5.740
4020,-6.340,-5.745
4021,-6.330,-5.730
4022,-6.325,-5.685
4023,-6.330,-5.650
4024,-6.290,-5.615
4025,-6.285,-5.625
4026,-6.290,-5.645
4027,-6.295,-5.680
4028,-6.310,-5.705
4029,-6.320,-5.740
4030,-6.330,-5.765
4031,-6.340,-5.765
4032,-6.345,-5.770
4033,-6.340,-5.755
4034,-6.345,-5.750
4035,-6.345,-5.760
4036,-6.335,-5.765
4037,-6.350,-5.795
4038,-6.330,-5.805
4039,-6.345,-5.845
4040,-6.390,-5.890
4041,-6.395,-5.910
4042,-6.405,-5.920
4043,-6.420,-5.910
4044,-6.425,-5.910
4045,-6.435,-5.925
4046,-6.455,-5.950
4047,-6.480,-5.980
4048,-6.500,-5.990
4049,-6.500,-6.000
4050,-6.485,-6.000
4051,-6.475,-6.005
4052,-6.450,-6.000
4053,-6.465,-6.035
4054,-6.480,-6.025
4055,-6.495,-6.050
4056,-6.505,-6.070
4057,-6.535,-6.075
4058,-6.565,-6.095
4059,-6.570,-6.090
4060,-6.555,-6.095
4061,-6.535,-6.100
4062,-6.530,-6.075
4063,-6.510,-6.075
4064,-6.505,-6.085
4065,-6.480,-6.110
4066,-6.500,-6.115
4067,-6.515,-6.120
4068,-6.525,-6.140
4069,-6.535,-6.145
4070,-6.560,-6.135
4071,-6.540,-6.145
4072,-6.520,-6.105
4073,-6.500,-6.085
4074,-6.470,-6.045
4075,-6.425,-6.020
4076,-6.415,-6.020
4077,-6.415,-6.015
4078,-6.405,-6.015
4079,-6.400,-6.010
4080,-6.405,-5.995
4081,-6.395,-6.005
4082,-6.375,-6.005
4083,-6.350,-5.995
4084,-6.325,-5.975
4085,-6.310,-5.930
4086,-6.270,-5.910
4087,-6.255,-5.870
4088,-6.230,-5.840
4089,-6.210,-5.825
4090,-6.190,-5.830
4091,-6.190,-5.820
4092,-6.200,-5.855
4093,-6.210,-5.840
4094,-6.220,-5.835
4095,-6.225,-5.810
4096,-6.190,-5.765
4097,-6.185,-5.745
4098,-6.175,-5.710
4099,-6.150,-5.695
4100,-6.140,-5.715
4101,-6.160,-5.750
4102,-6.165,-5.775
4103,-6.185,-5.780
4104,-6.190,-5.760
4105,-6.185,-5.755
4106,-6.175,-5.730
4107,-6.155,-5.720
4108,-6.145,-5.690
4109,-6.145,-5.680
4110,-6.145,-5.670
4111,-6.145,-5.680
4112,-6.160,-5.695
4113,-6.170,-5.700
4114,-6.175,-5.695
4115,-6.155,-5.685
4116,-6.150,-5.690
4117,-6.155,-5.685
4118,-6.175,-5.705
4119,-6.175,-5.695
4120,-6.185,-5.690
4121,-6.175,-5.680
4122,-6.190,-5.675
4123,-6.170,-5.675
4124,-6.175,-5.680
4125,-6.170,-5.685
4126,-6.165,-5.690
4127,-6.190,-5.715
4128,-6.185,-5.710
4129,-6.200,-5.710
4130,-6.200,-5.685
4131,-6.185,-5.680
4132,-6.165,-5.665
4133,-6.175,-5.660
4134,-6.165,-5.655
4135,-6.170,-5.660
4136,-6.155,-5.650
4137,-6.165,-5.670
4138,-6.190,-5.710
4139,-6.185,-5.725
4140,-6.200,-5.740
4141,-6.195,-5.710
4142,-6.195,-5.655
4143,-6.175,-5.610
4144,-6.170,-5.610
4145,-6.155,-5.635
4146,-6.145,-5.695
4147,-6.125,-5.735
4148,-6.120,-5.750
4149,-6.115,-5.750
4150,-6.110,-5.735
4151,-6.110,-5.735
4152,-6.125,-5.750
4153,-6.145,-5.750
4154,-6.165,-5.775
4155,-6.175,-5.780
4156,-6.175,-5.770
4157,-6.170,-5.735
4158,-6.150,-5.705
4159,-6.130,-5.665
4160,-6.115,-5.645
4161,-6.100,-5.630
4162,-6.105,-5.635
4163,-6.135,-5.680
4164,-6.160,-5.710
4165,-6.180,-5.745
4166,-6.180,-5.735
4167,-6.175,-5.725
4168,-6.155,-5.720
4169,-6.135,-5.715
4170,-6.115,-5.705
4171,-6.100,-5.700
4172,-6.085,-5.690
4173,-6.110,-5.695
4174,-6.105,-5.695
4175,-6.110,-5.705
4176,-6.115,-5.725
4177,-6.130,-5.750
4178,-6.125,-5.745
4179,-6.120,-5.735
4180,-6.105,-5.725
4181,-6.095,-5.720
4182,-6.070,-5.730
4183,-6.075,-5.710
4184,-6.080,-5.715
4185,-6.080,-5.695
4186,-6.095,-5.675
4187,-6.085,-5.680
4188,-6.080,-5.685
4189,-6.095,-5.715
4190,-6.070,-5.720
4191,-6.065,-5.700
4192,-6.050,-5.700
4193,-6.020,-5.700
4194,-6.015,-5.695
4195,-5.990,-5.690
4196,-5.985,-5.730
4197,-5.960,-5.750
4198,-5.965,-5.775
4199,-5.960,-5.790
4200,-5.980,-5.815
4201,-5.965,-5.800
4202,-5.955,-5.800
4203,-5.945,-5.785
4204,-5.915,-5.770
4205,-5.905,-5.760
4206,-5.930,-5.755
4207,-5.955,-5.725
4208,-5.975,-5.695
4209,-5.980,-5.675
4210,-5.990,-5.660
4211,-5.995,-5.685
4212,-6.015,-5.710
4213,-6.015,-5.750
4214,-6.015,-5.745
4215,-6.005,-5.755
4216,-5.965,-5.735
4217,-5.950,-5.700
4218,-5.915,-5.655
4219,-5.885,-5.635
4220,-5.870,-5.595
4221,-5.905,-5.565
4222,-5.915,-5.585
4223,-5.950,-5.625
4224,-5.990,-5.675
4225,-6.045,-5.720
4226,-6.080,-5.760
4227,-6.060,-5.755
4228,-6.065,-5.755
4229,-6.030,-5.740
4230,-6.020,-5.705
4231,-6.010,-5.685
4232,-6.035,-5.680
4233,-6.055,-5.705
4234,-6.080,-5.745
4235,-6.135,-5.780
4236,-6.155,-5.790
4237,-6.175,-5.795
4238,-6.190,-5.785
4239,-6.170,-5.790
4240,-6.135,-5.745
4241,-6.125,-5.720
4242,-6.120,-5.710
4243,-6.105,-5.710
4244,-6.120,-5.730
4245,-6.120,-5.770
4246,-6.150,-5.790
4247,-6.150,-5.800
4248,-6.155,-5.800
4249,-6.175,-5.780
4250,-6.180,-5.770
4251,-6.185,-5.740
4252,-6.185,-5.725
4253,-6.155,-5.730
4254,-6.145,-5.735
4255,-6.125,-5.750
4256,-6.115,-5.770
4257,-6.115,-5.770
4258,-6.120,-5.775
4259,-6.125,-5.770
4260,-6.150,-5.790
4261,-6.155,-5.790
4262,-6.160,-5.805
4263,-6.175,-5.835
4264,-6.170,-5.840
4265,-6.180,-5.845
4266,-6.175,-5.880
4267,-6.175,-5.900
4268,-6.170,-5.990
4269,-6.150,-6.075
4270,-6.070,-6.200
4271,-5.965,-6.330
4272,-5.845,-6.455
4273,-5.735,-6.565
4274,-5.625,-6.655
4275,-5.560,-6.705
4276,-5.535,-6.690
4277,-5.535,-6.615
4278,-5.540,-6.480
4279,-5.515,-6.365
4280,-5.390,-6.225
4281,-5.250,-6.080
4282,-5.075,-5.910
4283,-4.935,-5.665
4284,-4.900,-5.370
4285,-5.010,-5.085
4286,-5.295,-4.865
4287,-5.670,-4.770
4288,-6.065,-4.825
4289,-6.385,-5.005
4290,-6.625,-5.210
4291,-6.775,-5.420
4292,-6.840,-5.585
4293,-6.895,-5.680
4294,-6.945,-5.745
4295,-6.995,-5.805
4296,-7.035,-5.875
4297,-7.070,-5.915
4298,-7.085,-5.955
4299,-7.080,-5.965
4300,-7.075,-5.915
4301,-7.045,-5.890
4302,-7.050,-5.855
4303,-7.045,-5.850
4304,-7.035,-5.875
4305,-7.020,-5.890
4306,-7.000,-5.935
4307,-6.925,-5.960
4308,-6.825,-5.985
4309,-6.695,-5.965
4310,-6.580,-5.935
4311,-6.500,-5.880
4312,-6.425,-5.825
4313,-6.365,-5.765
4314,-6.325,-5.745
4315,-6.270,-5.705
4316,-6.260,-5.695
4317,-6.235,-5.700
4318,-6.225,-5.715
4319,-6.215,-5.755
4320,-6.195,-5.775
4321,-6.195,-5.780
4322,-6.180,-5.790
4323,-6.195,-5.780
4324,-6.210,-5.770
4325,-6.220,-5.745
4326,-6.220,-5.720
4327,-6.225,-5.715
4328,-6.230,-5.740
4329,-6.225,-5.765
4330,-6.210,-5.785
4331,-6.215,-5.800
4332,-6.205,-5.825
4333,-6.215,-5.840
4334,-6.225,-5.835
4335,-6.230,-5.845
4336,-6.230,-5.835
4337,-6.245,-5.845
4338,-6.230,-5.840
4339,-6.235,-5.860
4340,-6.220,-5.875
4341,-6.245,-5.910
4342,-6.260,-5.950
4343,-6.285,-5.945
4344,-6.300,-5.965
4345,-6.305,-5.980
4346,-6.310,-5.980
4347,-6.325,-5.995
4348,-6.310,-6.005
4349,-6.315,-6.015
4350,-6.330,-6.015
4351,-6.345,-6.020
4352,-6.355,-6.020
4353,-6.340,-6.010
4354,-6.370,-6.015
4355,-6.375,-6.035
4356,-6.375,-6.075
4357,-6.380,-6.095
4358,-6.390,-6.105
4359,-6.410,-6.100
4360,-6.425,-6.105
4361,-6.435,-6.095
4362,-6.435,-6.100
4363,-6.410,-6.105
4364,-6.410,-6.140
4365,-6.430,-6.160
4366,-6.420,-6.190
4367,-6.445,-6.195
4368,-6.480,-6.180
4369,-6.455,-6.195
4370,-6.480,-6.170
4371,-6.465,-6.165
4372,-6.450,-6.155
4373,-6.430,-6.155
4374,-6.415,-6.140
4375,-6.385,-6.150
4376,-6.375,-6.145
4377,-6.350,-6.145
4378,-6.335,-6.160
4379,-6.360,-6.165
4380,-6.360,-6.160
4381,-6.350,-6.165
4382,-6.340,-6.150
4383,-6.320,-6.140
4384,-6.295,-6.125
4385,-6.255,-6.120
4386,-6.235,-6.115
4387,-6.205,-6.100
4388,-6.195,-6.115
4389,-6.200,-6.065
4390,-6.190,-6.030
4391,-6.185,-5.985
4392,-6.160,-5.960
4393,-6.145,-5.945
4394,-6.135,-5.940
4395,-6.120,-5.950
4396,-6.110,-5.925
4397,-6.110,-5.930
4398,-6.105,-5.920
4399,-6.085,-5.900
4400,-6.080,-5.885
4401,-6.065,-5.870
4402,-6.050,-5.890
4403,-6.050,-5.880
4404,-6.065,-5.890
4405,-6.080,-5.890
4406,-6.080,-5.875
4407,-6.105,-5.840
4408,-6.105,-5.830
4409,-6.080,-5.800
4410,-6.065,-5.815
4411,-6.020,-5.805
4412,-6.020,-5.825
4413,-6.030,-5.820
4414,-6.060,-5.790
4415,-6.075,-5.760
4416,-6.110,-5.740
4417,-6.100,-5.750
4418,-6.105,-5.760
4419,-6.100,-5.775
4420,-6.110,-5.785
4421,-6.085,-5.785
4422,-6.080,-5.820
4423,-6.065,-5.800
4424,-6.065,-5.785
4425,-6.055,-5.765
4426,-6.050,-5.770
4427,-6.050,-5.780
4428,-6.055,-5.775
4429,-6.085,-5.795
4430,-6.090,-5.820
4431,-6.090,-5.805
4432,-6.090,-5.790
4433,-6.105,-5.805
4434,-6.095,-5.790
4435,-6.085,-5.780
4436,-6.085,-5.790
4437,-6.085,-5.800
4438,-6.090,-5.785
4439,-6.090,-5.795
4440,-6.095,-5.805
4441,-6.085,-5.800
4442,-6.100,-5.815
4443,-6.070,-5.825
4444,-6.070,-5.800
4445,-6.055,-5.790
4446,-6.065,-5.790
4447,-6.045,-5.800
4448,-6.045,-5.815
4449,-6.045,-5.825
4450,-6.055,-5.815
4451,-6.055,-5.850
4452,-6.080,-5.835
4453,-6.080,-5.830
4454,-6.080,-5.830
4455,-6.100,-5.840
4456,-6.080,-5.810
4457,-6.075,-5.805
4458,-6.070,-5.780
4459,-6.050,-5.770
4460,-6.060,-5.765
4461,-6.075,-5.775
4462,-6.060,-5.785
4463,-6.055,-5.795
4464,-6.080,-5.805
4465,-6.065,-5.805
4466,-6.070,-5.820
4467,-6.045,-5.805
4468,-6.005,-5.815
4469,-5.990,-5.800
4470,-5.990,-5.795
4471,-5.970,-5.780
4472,-5.970,-5.780
4473,-5.960,-5.775
4474,-5.965,-5.765
4475,-5.975,-5.790
4476,-5.965,-5.805
4477,-5.975,-5.815
4478,-5.975,-5.810
4479,-5.950,-5.810
4480,-5.960,-5.790
4481,-5.945,-5.790
4482,-5.935,-5.785
4483,-5.910,-5.775
4484,-5.910,-5.770
4485,-5.905,-5.765
4486,-5.905,-5.775
4487,-5.895,-5.790
4488,-5.895,-5.800
4489,-5.920,-5.800
4490,-5.905,-5.820
4491,-5.890,-5.795
4492,-5.875,-5.805
4493,-5.850,-5.785
4494,-5.830,-5.785
4495,-5.835,-5.780
4496,-5.810,-5.800
4497,-5.810,-5.830
4498,-5.825,-5.850
4499,-5.815,-5.885
4500,-5.820,-5.885
4501,-5.820,-5.875
4502,-5.795,-5.875
4503,-5.775,-5.870
4504,-5.750,-5.840
4505,-5.725,-5.835
4506,-5.700,-5.820
4507,-5.680,-5.800
4508,-5.655,-5.775
4509,-5.665,-5.770
4510,-5.670,-5.760
4511,-5.725,-5.765
4512,-5.750,-5.770
4513,-5.780,-5.765
4514,-5.805,-5.770
4515,-5.815,-5.780
4516,-5.810,-5.790
4517,-5.790,-5.775
4518,-5.770,-5.760
4519,-5.725,-5.720
4520,-5.690,-5.685
4521,-5.660,-5.660
4522,-5.660,-5.650
4523,-5.690,-5.645
4524,-5.735,-5.660
4525,-5.775,-5.655
4526,-5.820,-5.705
4527,-5.830,-5.715
4528,-5.855,-5.735
4529,-5.845,-5.750
4530,-5.840,-5.730
4531,-5.830,-5.735
4532,-5.840,-5.740
4533,-5.840,-5.760
4534,-5.840,-5.785
4535,-5.885,-5.815
4536,-5.895,-5.830
4537,-5.925,-5.815
4538,-5.930,-5.800
4539,-5.930,-5.770
4540,-5.905,-5.740
4541,-5.900,-5.760
4542,-5.885,-5.740
4543,-5.870,-5.780
4544,-5.865,-5.780
4545,-5.860,-5.810
4546,-5.865,-5.815
4547,-5.860,-5.830
4548,-5.860,-5.825
4549,-5.870,-5.820
4550,-5.860,-5.825
4551,-5.870,-5.820
4552,-5.860,-5.815
4553,-5.850,-5.810
4554,-5.835,-5.810
4555,-5.840,-5.810
4556,-5.855,-5.825
4557,-5.860,-5.830
4558,-5.855,-5.835
4559,-5.860,-5.835
4560,-5.865,-5.825
4561,-5.880,-5.845
4562,-5.865,-5.865
4563,-5.870,-5.870
4564,-5.880,-5.910
4565,-5.885,-5.945
4566,-5.900,-5.995
4567,-5.880,-6.085
4568,-5.830,-6.195
4569,-5.745,-6.325
4570,-5.615,-6.475
4571,-5.485,-6.630
4572,-5.365,-6.765
4573,-5.265,-6.820
4574,-5.235,-6.800
4575,-5.220,-6.685
4576,-5.215,-6.545
4577,-5.155,-6.375
4578,-5.045,-6.210
4579,-4.880,-6.040
4580,-4.705,-5.835
4581,-4.580,-5.595
4582,-4.555,-5.305
4583,-4.675,-5.030
4584,-4.945,-4.835
4585,-5.335,-4.785
4586,-5.750,-4.870
4587,-6.120,-5.040
4588,-6.375,-5.270
4589,-6.500,-5.465
4590,-6.580,-5.580
4591,-6.625,-5.690
4592,-6.685,-5.750
4593,-6.760,-5.785
4594,-6.815,-5.850
4595,-6.860,-5.905
4596,-6.895,-5.965
4597,-6.905,-5.965
4598,-6.925,-5.990
4599,-6.920,-5.980
4600,-6.910,-5.965
4601,-6.895,-5.970
4602,-6.895,-5.970
4603,-6.855,-5.970
4604,-6.825,-5.980
4605,-6.755,-5.995
4606,-6.690,-6.015
4607,-6.615,-6.015
4608,-6.480,-5.990
4609,-6.375,-5.955
4610,-6.265,-5.910
4611,-6.165,-5.875
4612,-6.090,-5.800
4613,-6.025,-5.765
4614,-6.000,-5.755
4615,-5.985,-5.725
4616,-5.990,-5.740
4617,-5.990,-5.750
4618,-5.980,-5.770
4619,-5.985,-5.790
4620,-5.970,-5.795
4621,-5.955,-5.780
4622,-5.960,-5.780
4623,-5.950,-5.770
4624,-5.960,-5.770
4625,-5.940,-5.775
4626,-5.935,-5.775
4627,-5.930,-5.765
4628,-5.940,-5.795
4629,-5.940,-5.805
4630,-5.940,-5.820
4631,-5.960,-5.825
4632,-5.965,-5.815
4633,-5.985,-5.825
4634,-6.000,-5.840
4635,-5.985,-5.850
4636,-5.980,-5.845
4637,-5.970,-5.880
4638,-5.960,-5.870
4639,-5.980,-5.880
4640,-5.960,-5.900
4641,-5.990,-5.920
4642,-6.005,-5.940
4643,-6.025,-5.950
4644,-6.030,-5.975
4645,-6.050,-5.990
4646,-6.065,-6.000
4647,-6.065,-6.005
4648,-6.100,-6.015
4649,-6.095,-6.025
4650,-6.085,-6.035
4651,-6.105,-6.045
4652,-6.090,-6.075
4653,-6.105,-6.095
4654,-6.120,-6.120
4655,-6.135,-6.120
4656,-6.145,-6.115
4657,-6.145,-6.155
4658,-6.150,-6.160
4659,-6.155,-6.160
4660,-6.165,-6.155
4661,-6.160,-6.160
4662,-6.165,-6.140
4663,-6.180,-6.140
4664,-6.165,-6.145
4665,-6.160,-6.140
4666,-6.165,-6.180
4667,-6.180,-6.200
4668,-6.185,-6.205
4669,-6.190,-6.220
4670,-6.180,-6.225
4671,-6.195,-6.220
4672,-6.190,-6.210
4673,-6.175,-6.205
4674,-6.145,-6.190
4675,-6.110,-6.175
4676,-6.095,-6.180
4677,-6.070,-6.165
4678,-6.055,-6.150
4679,-6.045,-6.150
4680,-6.040,-6.155
4681,-6.025,-6.150
4682,-6.020,-6.135
4683,-5.990,-6.110
4684,-5.955,-6.100
4685,-5.945,-6.080
4686,-5.930,-6.055
4687,-5.895,-6.015
4688,-5.885,-6.010
4689,-5.875,-5.995
4690,-5.865,-5.990
4691,-5.865,-5.975
4692,-5.860,-5.970
4693,-5.850,-5.960
4694,-5.850,-5.950
4695,-5.845,-5.945
4696,-5.835,-5.910
4697,-5.815,-5.875
4698,-5.805,-5.860
4699,-5.795,-5.840
4700,-5.785,-5.840
4701,-5.790,-5.850
4702,-5.790,-5.875
4703,-5.790,-5.880
4704,-5.790,-5.890
4705,-5.810,-5.895
4706,-5.810,-5.885
4707,-5.800,-5.870
4708,-5.785,-5.845
4709,-5.780,-5.850
4710,-5.775,-5.820
4711,-5.765,-5.815
4712,-5.760,-5.805
4713,-5.760,-5.800
4714,-5.765,-5.820
4715,-5.770,-5.820
4716,-5.795,-5.830
4717,-5.810,-5.825
4718,-5.830,-5.810
4719,-5.810,-5.820
4720,-5.795,-5.825
4721,-5.780,-5.825
4722,-5.770,-5.795
4723,-5.765,-5.800
4724,-5.770,-5.790
4725,-5.780,-5.820
4726,-5.815,-5.810
4727,-5.810,-5.820
4728,-5.825,-5.830
4729,-5.830,-5.845
4730,-5.845,-5.850
4731,-5.865,-5.845
4732,-5.855,-5.835
4733,-5.840,-5.820
4734,-5.840,-5.830
4735,-5.845,-5.815
4736,-5.820,-5.810
4737,-5.825,-5.805
4738,-5.820,-5.800
4739,-5.835,-5.800
4740,-5.835,-5.805
4741,-5.855,-5.820
4742,-5.865,-5.845
4743,-5.850,-5.830
4744,-5.850,-5.835
4745,-5.830,-5.820
4746,-5.820,-5.790
4747,-5.810,-5.800
4748,-5.800,-5.780
4749,-5.790,-5.765
4750,-5.800,-5.800
4751,-5.810,-5.805
4752,-5.830,-5.800
4753,-5.860,-5.805
4754,-5.865,-5.795
4755,-5.855,-5.810
4756,-5.845,-5.810
4757,-5.825,-5.800
4758,-5.825,-5.805
4759,-5.805,-5.820
4760,-5.800,-5.835
4761,-5.795,-5.840
4762,-5.795,-5.840
4763,-5.810,-5.825
4764,-5.820,-5.805
4765,-5.830,-5.800
4766,-5.845,-5.810
4767,-5.825,-5.800
4768,-5.820,-5.780
4769,-5.815,-5.785
4770,-5.820,-5.790
4771,-5.815,-5.785
4772,-5.820,-5.790
4773,-5.825,-5.815
4774,-5.825,-5.820
4775,-5.830,-5.825
4776,-5.850,-5.865
4777,-5.840,-5.855
4778,-5.850,-5.860
4779,-5.845,-5.835
4780,-5.845,-5.810
4781,-5.825,-5.790
4782,-5.810,-5.760
4783,-5.795,-5.755
4784,-5.785,-5.765
4785,-5.800,-5.785
4786,-5.800,-5.800
4787,-5.810,-5.835
4788,-5.810,-5.845
4789,-5.815,-5.825
4790,-5.815,-5.815
4791,-5.810,-5.805
4792,-5.810,-5.770
4793,-5.780,-5.780
4794,-5.770,-5.780
4795,-5.750,-5.775
4796,-5.740,-5.780
4797,-5.740,-5.810
4798,-5.735,-5.815
4799,-5.735,-5.835
4800,-5.740,-5.845
4801,-5.750,-5.835
4802,-5.755,-5.850
4803,-5.755,-5.835
4804,-5.735,-5.815
4805,-5.705,-5.825
4806,-5.650,-5.805
4807,-5.620,-5.805
4808,-5.590,-5.780
4809,-5.605,-5.760
4810,-5.625,-5.735
4811,-5.655,-5.730
4812,-5.665,-5.750
4813,-5.705,-5.770
4814,-5.735,-5.785
4815,-5.755,-5.780
4816,-5.740,-5.755
4817,-5.695,-5.720
4818,-5.680,-5.660
4819,-5.645,-5.600
4820,-5.615,-5.535
4821,-5.625,-5.480
4822,-5.625,-5.425
4823,-5.635,-5.415
4824,-5.630,-5.440
4825,-5.645,-5.525
4826,-5.680,-5.630
4827,-5.710,-5.750
4828,-5.735,-5.815
4829,-5.775,-5.860
4830,-5.780,-5.820
4831,-5.800,-5.730
4832,-5.825,-5.625
4833,-5.825,-5.595
4834,-5.850,-5.650
4835,-5.865,-5.735
4836,-5.865,-5.835
4837,-5.895,-5.865
4838,-5.905,-5.885
4839,-5.920,-5.880
4840,-5.930,-5.855
4841,-5.900,-5.830
4842,-5.890,-5.805
4843,-5.885,-5.785
4844,-5.875,-5.790
4845,-5.885,-5.795
4846,-5.875,-5.800
4847,-5.870,-5.795
4848,-5.870,-5.780
4849,-5.860,-5.790
4850,-5.850,-5.795
4851,-5.870,-5.770
4852,-5.875,-5.755
4853,-5.870,-5.755
4854,-5.865,-5.755
4855,-5.860,-5.750
4856,-5.885,-5.760
4857,-5.890,-5.800
4858,-5.880,-5.810
4859,-5.895,-5.810
4860,-5.910,-5.815
4861,-5.920,-5.810
4862,-5.915,-5.835
4863,-5.900,-5.825
4864,-5.880,-5.840
4865,-5.870,-5.855
4866,-5.880,-5.875
4867,-5.880,-5.910
4868,-5.885,-5.965
4869,-5.850,-6.040
4870,-5.830,-6.130
4871,-5.760,-6.245
4872,-5.655,-6.365
4873,-5.535,-6.475
4874,-5.390,-6.585
4875,-5.255,-6.675
4876,-5.165,-6.685
4877,-5.130,-6.620
4878,-5.160,-6.525
4879,-5.170,-6.375
4880,-5.145,-6.245
4881,-5.065,-6.140
4882,-4.955,-6.000
4883,-4.810,-5.860
4884,-4.690,-5.645
4885,-4.630,-5.355
4886,-4.700,-5.075
4887,-4.915,-4.855
4888,-5.280,-4.745
4889,-5.695,-4.820
4890,-6.090,-5.010
4891,-6.400,-5.275
4892,-6.580,-5.520
4893,-6.670,-5.715
4894,-6.730,-5.815
4895,-6.785,-5.875
4896,-6.820,-5.930
4897,-6.860,-5.990
4898,-6.880,-6.025
4899,-6.920,-6.050
4900,-6.945,-6.065
4901,-6.935,-6.040
4902,-6.945,-6.040
4903,-6.935,-6.025
4904,-6.930,-6.020
4905,-6.915,-6.020
4906,-6.890,-6.025
4907,-6.865,-6.035
4908,-6.805,-6.070
4909,-6.735,-6.075
4910,-6.610,-6.090
4911,-6.455,-6.035
4912,-6.310,-5.960
4913,-6.145,-5.895
4914,-6.030,-5.820
4915,-5.965,-5.795
4916,-5.940,-5.775
4917,-5.950,-5.790
4918,-5.975,-5.790
4919,-5.980,-5.810
4920,-5.985,-5.800
4921,-5.990,-5.805
4922,-5.980,-5.805
4923,-5.975,-5.800
4924,-5.950,-5.765
4925,-5.930,-5.765
4926,-5.925,-5.770
4927,-5.925,-5.770
4928,-5.920,-5.760
4929,-5.925,-5.780
4930,-5.915,-5.825
4931,-5.920,-5.825
4932,-5.930,-5.855
4933,-5.945,-5.840
4934,-5.965,-5.875
4935,-5.965,-5.870
4936,-5.945,-5.850
4937,-5.950,-5.870
4938,-5.960,-5.875
4939,-5.965,-5.880
4940,-5.985,-5.905
4941,-6.005,-5.930
4942,-6.010,-5.960
4943,-6.005,-5.960
4944,-6.015,-5.995
4945,-6.040,-5.995
4946,-6.045,-6.015
4947,-6.055,-6.020
4948,-6.075,-6.025
4949,-6.070,-6.040
4950,-6.065,-6.050
4951,-6.080,-6.045
4952,-6.080,-6.070
4953,-6.095,-6.075
4954,-6.105,-6.095
4955,-6.120,-6.130
4956,-6.150,-6.125
4957,-6.165,-6.155
4958,-6.165,-6.180
4959,-6.170,-6.170
4960,-6.200,-6.175
4961,-6.175,-6.180
4962,-6.180,-6.185
4963,-6.175,-6.185
4964,-6.165,-6.165
4965,-6.195,-6.175
4966,-6.180,-6.160
4967,-6.190,-6.195
4968,-6.200,-6.225
4969,-6.210,-6.225
4970,-6.200,-6.235
4971,-6.205,-6.240
4972,-6.200,-6.220
4973,-6.200,-6.190
4974,-6.185,-6.180
4975,-6.180,-6.170
4976,-6.155,-6.200
4977,-6.155,-6.210
4978,-6.135,-6.220
4979,-6.145,-6.205
4980,-6.145,-6.200
4981,-6.115,-6.170
4982,-6.090,-6.190
4983,-6.075,-6.175
4984,-6.070,-6.170
4985,-6.065,-6.140
4986,-6.025,-6.100
4987,-6.025,-6.060
4988,-5.990,-6.030
4989,-5.975,-5.990
4990,-5.955,-5.965
4991,-5.935,-5.985
4992,-5.930,-6.010
4993,-5.950,-6.045
4994,-5.935,-6.070
4995,-5.945,-6.065
4996,-5.925,-6.020
4997,-5.925,-5.990
4998,-5.915,-5.970
4999,-5.905,-5.940
5000,-5.895,-5.930
5001,-5.890,-5.930
5002,-5.880,-5.930
5003,-5.885,-5.935
5004,-5.870,-5.930
5005,-5.885,-5.915
5006,-5.880,-5.895
5007,-5.880,-5.880
5008,-5.855,-5.845
5009,-5.855,-5.825
5010,-5.855,-5.810
5011,-5.850,-5.815
5012,-5.845,-5.825
5013,-5.850,-5.825
5014,-5.845,-5.835
5015,-5.855,-5.840
5016,-5.870,-5.840
5017,-5.870,-5.835
5018,-5.900,-5.840
5019,-5.880,-5.820
5020,-5.870,-5.790
5021,-5.880,-5.780
5022,-5.860,-5.780
5023,-5.850,-5.765
5024,-5.825,-5.795
5025,-5.835,-5.805
5026,-5.840,-5.805
5027,-5.870,-5.820
5028,-5.890,-5.810
5029,-5.905,-5.825
5030,-5.905,-5.850
5031,-5.900,-5.845
5032,-5.895,-5.825
5033,-5.880,-5.805
5034,-5.865,-5.795
5035,-5.855,-5.775
5036,-5.850,-5.780
5037,-5.860,-5.795
5038,-5.865,-5.795
5039,-5.895,-5.815
5040,-5.910,-5.815
5041,-5.925,-5.820
5042,-5.940,-5.835
5043,-5.925,-5.860
5044,-5.905,-5.860
5045,-5.895,-5.875
5046,-5.885,-5.865
5047,-5.920,-5.830
5048,-5.915,-5.820
5049,-5.915,-5.840
5050,-5.915,-5.835
5051,-5.920,-5.850
5052,-5.915,-5.855
5053,-5.925,-5.865
5054,-5.925,-5.855
5055,-5.915,-5.855
5056,-5.920,-5.845
5057,-5.920,-5.835
5058,-5.905,-5.825
5059,-5.890,-5.815
5060,-5.880,-5.845
5061,-5.885,-5.835
5062,-5.885,-5.845
5063,-5.890,-5.845
5064,-5.910,-5.840
5065,-5.915,-5.840
5066,-5.910,-5.845
5067,-5.900,-5.840
5068,-5.870,-5.820
5069,-5.875,-5.815
5070,-5.855,-5.800
5071,-5.865,-5.800
5072,-5.850,-5.815
5073,-5.850,-5.815
5074,-5.855,-5.825
5075,-5.875,-5.815
5076,-5.865,-5.840
5077,-5.890,-5.845
5078,-5.900,-5.850
5079,-5.870,-5.840
5080,-5.870,-5.815
5081,-5.855,-5.790
5082,-5.855,-5.790
5083,-5.855,-5.810
5084,-5.845,-5.855
5085,-5.845,-5.860
5086,-5.855,-5.850
5087,-5.850,-5.860
5088,-5.840,-5.865
5089,-5.850,-5.875
5090,-5.835,-5.870
5091,-5.800,-5.885
5092,-5.795,-5.880
5093,-5.775,-5.875
5094,-5.750,-5.875
5095,-5.750,-5.860
5096,-5.745,-5.880
5097,-5.760,-5.890
5098,-5.735,-5.890
5099,-5.740,-5.875
5100,-5.725,-5.860
5101,-5.750,-5.840
5102,-5.730,-5.800
5103,-5.740,-5.795
5104,-5.745,-5.795
5105,-5.745,-5.795
5106,-5.750,-5.800
5107,-5.760,-5.815
5108,-5.750,-5.815
5109,-5.735,-5.780
5110,-5.700,-5.760
5111,-5.690,-5.740
5112,-5.690,-5.730
5113,-5.730,-5.740
5114,-5.760,-5.755
5115,-5.795,-5.740
5116,-5.815,-5.735
5117,-5.820,-5.740
5118,-5.830,-5.745
5119,-5.830,-5.780
5120,-5.825,-5.800
5121,-5.840,-5.810
5122,-5.855,-5.825
5123,-5.885,-5.820
5124,-5.925,-5.810
5125,-5.945,-5.815
5126,-5.960,-5.795
5127,-5.980,-5.825
5128,-5.985,-5.820
5129,-5.965,-5.780
5130,-5.950,-5.745
5131,-5.920,-5.760
5132,-5.905,-5.830
5133,-5.915,-5.900
5134,-5.915,-5.920
5135,-5.930,-5.945
5136,-5.960,-5.910
5137,-5.990,-5.865
5138,-5.995,-5.840
5139,-6.025,-5.840
5140,-6.030,-5.825
5141,-6.025,-5.825
5142,-6.000,-5.790
5143,-5.960,-5.735
5144,-5.945,-5.715
5145,-5.915,-5.750
5146,-5.910,-5.805
5147,-5.925,-5.855
5148,-5.940,-5.920
5149,-5.955,-5.980
5150,-5.955,-6.025
5151,-5.960,-6.020
5152,-5.940,-5.970
5153,-5.930,-5.935
5154,-5.935,-5.910
5155,-5.965,-5.940
5156,-6.005,-6.005
5157,-6.025,-6.105
5158,-6.020,-6.230
5159,-5.950,-6.395
5160,-5.830,-6.575
5161,-5.710,-6.755
5162,-5.570,-6.890
5163,-5.440,-6.955
5164,-5.390,-6.905
5165,-5.390,-6.785
5166,-5.410,-6.575
5167,-5.410,-6.375
5168,-5.355,-6.285
5169,-5.200,-6.230
5170,-5.020,-6.130
5171,-4.800,-5.925
5172,-4.665,-5.625
5173,-4.660,-5.270
5174,-4.825,-5.000
5175,-5.140,-4.840
5176,-5.550,-4.875
5177,-5.955,-5.040
5178,-6.290,-5.275
5179,-6.485,-5.455
5180,-6.610,-5.605
5181,-6.690,-5.670
5182,-6.750,-5.745
5183,-6.825,-5.810
5184,-6.895,-5.855
5185,-6.950,-5.905
5186,-7.000,-5.965
5187,-7.020,-6.015
5188,-7.015,-6.030
5189,-6.980,-6.005
5190,-6.950,-5.985
5191,-6.925,-5.955
5192,-6.910,-5.960
5193,-6.895,-5.980
5194,-6.860,-6.015
5195,-6.810,-6.045
5196,-6.735,-6.075
5197,-6.660,-6.065
5198,-6.555,-6.025
5199,-6.460,-5.920
5200,-6.295,-5.785
5201,-6.170,-5.690
5202,-6.080,-5.685
5203,-6.045,-5.760
5204,-6.030,-5.840
5205,-6.020,-5.890
5206,-6.015,-5.900
5207,-6.005,-5.870
5208,-5.995,-5.835
5209,-5.990,-5.820
5210,-5.975,-5.815
5211,-6.000,-5.820
5212,-6.000,-5.805
5213,-6.010,-5.800
5214,-5.990,-5.780
5215,-5.990,-5.755
5216,-5.985,-5.765
5217,-5.980,-5.785
5218,-5.990,-5.825
5219,-6.035,-5.875
5220,-6.040,-5.865
5221,-6.030,-5.850
5222,-6.040,-5.835
5223,-6.010,-5.805
5224,-6.000,-5.810
5225,-6.000,-5.830
5226,-5.990,-5.845
5227,-5.995,-5.865
5228,-6.000,-5.880
5229,-6.010,-5.890
5230,-6.035,-5.900
5231,-6.070,-5.885
5232,-6.095,-5.900
5233,-6.110,-5.940
5234,-6.115,-6.010
5235,-6.125,-6.050
5236,-6.120,-6.065
5237,-6.135,-6.060
5238,-6.150,-6.030
5239,-6.150,-6.020
5240,-6.135,-6.005
5241,-6.130,-6.025
5242,-6.130,-6.045
5243,-6.145,-6.085
5244,-6.180,-6.090
5245,-6.195,-6.110
5246,-6.215,-6.120
5247,-6.230,-6.115
5248,-6.230,-6.115
5249,-6.225,-6.120
5250,-6.200,-6.150
5251,-6.185,-6.155
5252,-6.165,-6.185
5253,-6.185,-6.190
5254,-6.195,-6.160
5255,-6.225,-6.180
5256,-6.245,-6.160
5257,-6.280,-6.145
5258,-6.275,-6.120
5259,-6.270,-6.140
5260,-6.240,-6.195
5261,-6.230,-6.240
5262,-6.225,-6.265
5263,-6.225,-6.225
5264,-6.220,-6.185
5265,-6.215,-6.135
5266,-6.180,-6.135
5267,-6.170,-6.160
5268,-6.140,-6.180
5269,-6.135,-6.205
5270,-6.120,-6.205
5271,-6.145,-6.170
5272,-6.150,-6.125
5273,-6.155,-6.100
5274,-6.110,-6.070
5275,-6.070,-6.025
5276,-6.025,-6.005
5277,-5.995,-5.990
5278,-5.985,-6.015
5279,-5.990,-6.050
5280,-5.990,-6.075
5281,-5.990,-6.080
5282,-6.000,-6.055
5283,-6.015,-6.005
5284,-6.010,-5.945
5285,-6.005,-5.900
5286,-5.975,-5.860
5287,-5.965,-5.870
5288,-5.930,-5.890
5289,-5.915,-5.905
5290,-5.880,-5.905
5291,-5.885,-5.900
5292,-5.900,-5.900
5293,-5.895,-5.885
5294,-5.910,-5.885
5295,-5.910,-5.865
5296,-5.930,-5.865
5297,-5.915,-5.845
5298,-5.905,-5.835
5299,-5.875,-5.815
5300,-5.855,-5.800
5301,-5.865,-5.800
5302,-5.865,-5.835
5303,-5.895,-5.865
5304,-5.915,-5.870
5305,-5.925,-5.880
5306,-5.945,-5.875
5307,-5.940,-5.880
5308,-5.940,-5.870
5309,-5.930,-5.855
5310,-5.915,-5.835
5311,-5.910,-5.810
5312,-5.930,-5.815
5313,-5.905,-5.815
5314,-5.890,-5.835
5315,-5.880,-5.865
5316,-5.900,-5.910
5317,-5.935,-5.910
5318,-5.940,-5.890
5319,-5.960,-5.845
5320,-5.960,-5.805
5321,-5.980,-5.810
5322,-5.970,-5.785
5323,-5.965,-5.810
5324,-5.960,-5.815
5325,-5.960,-5.810
5326,-5.975,-5.795
5327,-5.980,-5.835
5328,-5.985,-5.845
5329,-5.990,-5.825
5330,-6.000,-5.815
5331,-6.000,-5.820
5332,-6.005,-5.860
5333,-5.985,-5.890
5334,-5.970,-5.905
5335,-5.945,-5.900
5336,-5.945,-5.920
5337,-5.930,-5.940
5338,-5.940,-5.930
5339,-5.950,-5.935
5340,-5.960,-5.915
5341,-5.975,-5.915
5342,-6.000,-5.900
5343,-5.985,-5.900
5344,-5.985,-5.860
5345,-5.990,-5.825
5346,-5.945,-5.820
5347,-5.935,-5.825
5348,-5.925,-5.855
5349,-5.930,-5.865
5350,-5.955,-5.870
5351,-5.970,-5.870
5352,-5.985,-5.840
5353,-5.990,-5.830
5354,-5.985,-5.840
5355,-5.965,-5.845
5356,-5.960,-5.865
5357,-5.950,-5.890
5358,-5.940,-5.875
5359,-5.925,-5.855
5360,-5.900,-5.855
5361,-5.895,-5.845
5362,-5.890,-5.860
5363,-5.910,-5.880
5364,-5.940,-5.885
5365,-5.950,-5.870
5366,-5.980,-5.860
5367,-5.980,-5.840
5368,-5.965,-5.810
5369,-5.960,-5.800
5370,-5.930,-5.810
5371,-5.925,-5.845
5372,-5.920,-5.890
5373,-5.910,-5.905
5374,-5.920,-5.915
5375,-5.915,-5.890
5376,-5.910,-5.890
5377,-5.895,-5.895
5378,-5.895,-5.890
5379,-5.875,-5.905
5380,-5.870,-5.895
5381,-5.845,-5.895
5382,-5.820,-5.920
5383,-5.785,-5.925
5384,-5.790,-5.915
5385,-5.795,-5.910
5386,-5.785,-5.905
5387,-5.790,-5.870
5388,-5.780,-5.850
5389,-5.775,-5.840
5390,-5.765,-5.820
5391,-5.755,-5.795
5392,-5.740,-5.805
5393,-5.750,-5.815
5394,-5.760,-5.805
5395,-5.775,-5.820
5396,-5.815,-5.835
5397,-5.855,-5.830
5398,-5.855,-5.800
5399,-5.860,-5.780
5400,-5.840,-5.765
5401,-5.820,-5.730
5402,-5.810,-5.685
5403,-5.800,-5.640
5404,-5.805,-5.620
5405,-5.795,-5.650
5406,-5.810,-5.735
5407,-5.825,-5.815
5408,-5.835,-5.865
5409,-5.870,-5.865
5410,-5.895,-5.850
5411,-5.910,-5.825
5412,-5.915,-5.800
5413,-5.940,-5.820
5414,-5.960,-5.825
5415,-6.000,-5.825
5416,-6.005,-5.825
5417,-6.020,-5.850
5418,-6.010,-5.870
5419,-6.025,-5.860
5420,-6.020,-5.835
5421,-6.025,-5.825
5422,-6.015,-5.835
5423,-6.000,-5.870
5424,-6.015,-5.910
5425,-6.010,-5.925
5426,-6.015,-5.925
5427,-6.020,-5.915
5428,-6.020,-5.900
5429,-6.025,-5.905
5430,-6.035,-5.905
5431,-6.050,-5.850
5432,-6.050,-5.815
5433,-6.055,-5.830
5434,-6.045,-5.870
5435,-6.035,-5.895
5436,-6.025,-5.920
5437,-6.025,-5.925
5438,-6.045,-5.915
5439,-6.050,-5.910
5440,-6.055,-5.900
5441,-6.040,-5.900
5442,-6.020,-5.875
5443,-5.985,-5.870
5444,-5.990,-5.900
5445,-6.020,-5.910
5446,-6.045,-5.935
5447,-6.095,-5.960
5448,-6.125,-6.005
5449,-6.135,-6.085
5450,-6.110,-6.170
5451,-6.075,-6.265
5452,-5.985,-6.370
5453,-5.880,-6.510
5454,-5.745,-6.675
5455,-5.620,-6.795
5456,-5.530,-6.910
5457,-5.485,-6.950
5458,-5.490,-6.915
5459,-5.525,-6.785
5460,-5.535,-6.585
5461,-5.455,-6.365
5462,-5.315,-6.170
5463,-5.120,-6.010
5464,-4.905,-5.835
5465,-4.745,-5.590
5466,-4.700,-5.330
5467,-4.815,-5.090
5468,-5.115,-4.930
5469,-5.555,-4.880
5470,-6.015,-4.995
5471,-6.410,-5.180
5472,-6.670,-5.420
5473,-6.810,-5.635
5474,-6.915,-5.770
5475,-6.975,-5.855
5476,-7.010,-5.905
5477,-7.050,-5.935
5478,-7.095,-5.985
5479,-7.115,-6.015
5480,-7.110,-6.030
5481,-7.115,-6.075
5482,-7.100,-6.060
5483,-7.085,-6.060
5484,-7.075,-6.060
5485,-7.090,-6.050
5486,-7.090,-6.070
5487,-7.075,-6.075
5488,-7.025,-6.075
5489,-6.945,-6.065
5490,-6.810,-6.055
5491,-6.665,-6.000
5492,-6.500,-5.955
5493,-6.390,-5.910
5494,-6.280,-5.855
5495,-6.210,-5.830
5496,-6.175,-5.810
5497,-6.155,-5.830
5498,-6.145,-5.835
5499,-6.145,-5.865
5500,-6.145,-5.850
5501,-6.125,-5.825
5502,-6.115,-5.805
5503,-6.100,-5.780
5504,-6.085,-5.770
5505,-6.060,-5.775
5506,-6.070,-5.780
5507,-6.095,-5.790
5508,-6.095,-5.805
5509,-6.100,-5.800
5510,-6.110,-5.820
5511,-6.130,-5.820
5512,-6.135,-5.830
5513,-6.100,-5.830
5514,-6.090,-5.825
5515,-6.085,-5.825
5516,-6.085,-5.830
5517,-6.080,-5.845
5518,-6.085,-5.855
5519,-6.115,-5.905
5520,-6.135,-5.920
5521,-6.150,-5.925
5522,-6.175,-5.930
5523,-6.185,-5.950
5524,-6.170,-5.950
5525,-6.185,-5.950
5526,-6.190,-5.950
5527,-6.170,-5.975
5528,-6.180,-5.975
5529,-6.185,-5.985
5530,-6.200,-6.025
5531,-6.215,-6.040
5532,-6.230,-6.060
5533,-6.250,-6.080
5534,-6.265,-6.095
5535,-6.280,-6.100
5536,-6.280,-6.095
5537,-6.305,-6.100
5538,-6.300,-6.100
5539,-6.305,-6.095
5540,-6.310,-6.095
5541,-6.290,-6.115
5542,-6.290,-6.125
5543,-6.310,-6.150
5544,-6.325,-6.145
5545,-6.340,-6.145
5546,-6.355,-6.170
5547,-6.355,-6.180
5548,-6.370,-6.175
5549,-6.370,-6.175
5550,-6.345,-6.175
5551,-6.335,-6.160
5552,-6.315,-6.155
5553,-6.315,-6.165
5554,-6.315,-6.160
5555,-6.315,-6.180
5556,-6.310,-6.190
5557,-6.310,-6.185
5558,-6.295,-6.160
5559,-6.300,-6.155
5560,-6.290,-6.140
5561,-6.280,-6.140
5562,-6.245,-6.120
5563,-6.230,-6.115
5564,-6.225,-6.115
5565,-6.190,-6.100
5566,-6.185,-6.095
5567,-6.185,-6.085
5568,-6.170,-6.070
5569,-6.160,-6.065
5570,-6.130,-6.050
5571,-6.105,-6.030
5572,-6.105,-6.025
5573,-6.085,-5.995
5574,-6.075,-5.970
5575,-6.065,-5.955
5576,-6.055,-5.955
5577,-6.055,-5.930
5578,-6.035,-5.940
5579,-6.025,-5.935
5580,-6.040,-5.940
5581,-6.035,-5.895
5582,-6.030,-5.905
5583,-6.045,-5.895
5584,-6.035,-5.875
5585,-6.020,-5.870
5586,-6.015,-5.845
5587,-6.010,-5.840
5588,-5.980,-5.860
5589,-5.975,-5.845
5590,-5.995,-5.855
5591,-6.005,-5.850
5592,-6.025,-5.845
5593,-6.040,-5.835
5594,-6.045,-5.835
5595,-6.045,-5.845
5596,-6.035,-5.835
5597,-6.020,-5.845
5598,-6.015,-5.825
5599,-6.005,-5.830
5600,-6.035,-5.825
5601,-6.035,-5.850
5602,-6.035,-5.835
5603,-6.030,-5.850
5604,-6.025,-5.860
5605,-6.040,-5.830
5606,-6.050,-5.840
5607,-6.075,-5.820
5608,-6.065,-5.800
5609,-6.055,-5.790
5610,-6.050,-5.795
5611,-6.040,-5.775
5612,-6.045,-5.795
5613,-6.040,-5.810
5614,-6.030,-5.825
5615,-6.030,-5.845
5616,-6.060,-5.835
5617,-6.065,-5.845
5618,-6.060,-5.835
5619,-6.070,-5.820
5620,-6.065,-5.800
5621,-6.055,-5.830
5622,-6.060,-5.805
5623,-6.055,-5.815
5624,-6.030,-5.800
5625,-6.040,-5.810
5626,-6.035,-5.810
5627,-6.055,-5.810
5628,-6.050,-5.820
5629,-6.080,-5.850
5630,-6.085,-5.850
5631,-6.090,-5.845
5632,-6.095,-5.835
5633,-6.080,-5.845
5634,-6.050,-5.815
5635,-6.050,-5.815
5636,-6.055,-5.815
5637,-6.035,-5.830
5638,-6.055,-5.820
5639,-6.035,-5.860
5640,-6.060,-5.890
5641,-6.040,-5.875
5642,-6.040,-5.880
5643,-6.045,-5.860
5644,-6.055,-5.835
5645,-6.045,-5.810
5646,-6.030,-5.790
5647,-6.025,-5.785
5648,-6.000,-5.800
5649,-5.965,-5.825
5650,-5.950,-5.825
5651,-5.945,-5.840
5652,-5.955,-5.850
5653,-5.970,-5.870
5654,-6.000,-5.875
5655,-6.025,-5.870
5656,-6.020,-5.860
5657,-6.025,-5.860
5658,-6.005,-5.845
5659,-5.995,-5.820
5660,-5.995,-5.825
5661,-6.000,-5.810
5662,-6.010,-5.810
5663,-6.035,-5.800
5664,-6.070,-5.815
5665,-6.090,-5.805
5666,-6.095,-5.810
5667,-6.100,-5.800
5668,-6.085,-5.775
5669,-6.080,-5.775
5670,-6.070,-5.775
5671,-6.065,-5.750
5672,-6.050,-5.750
5673,-6.050,-5.750
5674,-6.060,-5.755
5675,-6.065,-5.745
5676,-6.070,-5.765
5677,-6.060,-5.770
5678,-6.070,-5.810
5679,-6.060,-5.785
5680,-6.060,-5.785
5681,-6.035,-5.785
5682,-6.015,-5.775
5683,-6.005,-5.760
5684,-5.975,-5.760
5685,-5.940,-5.760
5686,-5.905,-5.745
5687,-5.880,-5.740
5688,-5.880,-5.735
5689,-5.870,-5.700
5690,-5.875,-5.690
5691,-5.895,-5.670
5692,-5.915,-5.675
5693,-5.920,-5.685
5694,-5.940,-5.695
5695,-5.950,-5.725
5696,-5.945,-5.715
5697,-5.935,-5.710
5698,-5.925,-5.695
5699,-5.920,-5.680
5700,-5.900,-5.655
5701,-5.905,-5.620
5702,-5.900,-5.605
5703,-5.920,-5.590
5704,-5.925,-5.575
5705,-5.955,-5.595
5706,-5.960,-5.625
5707,-5.990,-5.655
5708,-6.030,-5.690
5709,-6.055,-5.725
5710,-6.080,-5.700
5711,-6.075,-5.735
5712,-6.090,-5.725
5713,-6.100,-5.730
5714,-6.120,-5.735
5715,-6.130,-5.725
5716,-6.135,-5.745
5717,-6.140,-5.735
5718,-6.135,-5.750
5719,-6.120,-5.745
5720,-6.125,-5.750
5721,-6.120,-5.755
5722,-6.130,-5.750
5723,-6.120,-5.750
5724,-6.140,-5.765
5725,-6.150,-5.765
5726,-6.160,-5.765
5727,-6.155,-5.760
5728,-6.155,-5.760
5729,-6.140,-5.755
5730,-6.140,-5.745
5731,-6.135,-5.735
5732,-6.135,-5.740
5733,-6.145,-5.730
5734,-6.175,-5.735
5735,-6.160,-5.755
5736,-6.170,-5.770
5737,-6.160,-5.775
5738,-6.160,-5.775
5739,-6.160,-5.760
5740,-6.155,-5.740
5741,-6.140,-5.740
5742,-6.135,-5.720
5743,-6.135,-5.720
5744,-6.140,-5.735
5745,-6.145,-5.780
5746,-6.170,-5.835
5747,-6.190,-5.905
5748,-6.195,-5.960
5749,-6.195,-6.035
5750,-6.135,-6.145
5751,-6.045,-6.255
5752,-5.915,-6.360
5753,-5.770,-6.475
5754,-5.615,-6.590
5755,-5.490,-6.650
5756,-5.400,-6.650
5757,-5.415,-6.570
5758,-5.440,-6.450
5759,-5.445,-6.320
5760,-5.415,-6.190
5761,-5.305,-6.040
5762,-5.150,-5.840
5763,-5.015,-5.560
5764,-4.965,-5.250
5765,-5.065,-4.970
5766,-5.370,-4.800
5767,-5.805,-4.800
5768,-6.275,-4.985
5769,-6.680,-5.255
5770,-6.980,-5.520
5771,-7.140,-5.710
5772,-7.220,-5.855
5773,-7.255,-5.900
5774,-7.265,-5.930
5775,-7.300,-5.955
5776,-7.310,-5.965
5777,-7.335,-5.990
5778,-7.335,-6.010
5779,-7.315,-6.015
5780,-7.310,-6.000
5781,-7.305,-5.990
5782,-7.300,-5.985
5783,-7.290,-5.990
5784,-7.265,-5.990
5785,-7.245,-6.015
5786,-7.170,-6.015
5787,-7.090,-6.015
5788,-6.980,-5.995
5789,-6.830,-5.930
5790,-6.680,-5.865
5791,-6.550,-5.790
5792,-6.435,-5.730
5793,-6.370,-5.710
5794,-6.315,-5.685
5795,-6.295,-5.690
5796,-6.300,-5.685
5797,-6.290,-5.690
5798,-6.295,-5.695
5799,-6.295,-5.665
5800,-6.270,-5.655
5801,-6.255,-5.660
5802,-6.230,-5.660
5803,-6.210,-5.655
5804,-6.200,-5.660
5805,-6.205,-5.675
5806,-6.210,-5.680
5807,-6.230,-5.700
5808,-6.240,-5.710
5809,-6.250,-5.755
5810,-6.250,-5.755
5811,-6.255,-5.730
5812,-6.260,-5.740
5813,-6.255,-5.725
5814,-6.245,-5.720
5815,-6.235,-5.720
5816,-6.230,-5.735
5817,-6.245,-5.750
5818,-6.250,-5.765
5819,-6.275,-5.775
5820,-6.280,-5.825
5821,-6.300,-5.845
5822,-6.325,-5.870
5823,-6.330,-5.860
5824,-6.360,-5.850
5825,-6.360,-5.860
5826,-6.330,-5.865
5827,-6.335,-5.895
5828,-6.330,-5.905
5829,-6.335,-5.910
5830,-6.350,-5.940
5831,-6.380,-5.965
5832,-6.400,-5.980
5833,-6.415,-5.990
5834,-6.445,-5.980
5835,-6.455,-5.985
5836,-6.450,-5.970
5837,-6.460,-5.980
5838,-6.465,-6.015
5839,-6.470,-6.000
5840,-6.435,-6.020
5841,-6.445,-6.025
5842,-6.455,-6.045
5843,-6.450,-6.035
5844,-6.450,-6.050
5845,-6.445,-6.045
5846,-6.460,-6.065
5847,-6.460,-6.055
5848,-6.465,-6.050
5849,-6.465,-6.030
5850,-6.465,-6.040
5851,-6.460,-6.050
5852,-6.430,-6.030
5853,-6.415,-6.040
5854,-6.410,-6.050
5855,-6.390,-6.050
5856,-6.405,-6.055
5857,-6.395,-6.055
5858,-6.410,-6.060
5859,-6.385,-6.045
5860,-6.365,-6.025
5861,-6.325,-6.020
5862,-6.295,-6.005
5863,-6.275,-5.965
5864,-6.255,-5.950
5865,-6.240,-5.950
5866,-6.230,-5.930
5867,-6.225,-5.900
5868,-6.215,-5.895
5869,-6.210,-5.880
5870,-6.215,-5.875
5871,-6.205,-5.850
5872,-6.210,-5.850
5873,-6.185,-5.835
5874,-6.170,-5.815
5875,-6.135,-5.780
5876,-6.135,-5.770
5877,-6.130,-5.745
5878,-6.130,-5.745
5879,-6.140,-5.750
5880,-6.140,-5.755
5881,-6.155,-5.740
5882,-6.140,-5.755
5883,-6.140,-5.750
5884,-6.130,-5.740
5885,-6.135,-5.740
5886,-6.130,-5.715
5887,-6.125,-5.715
5888,-6.110,-5.705
5889,-6.105,-5.710
5890,-6.120,-5.700
5891,-6.120,-5.705
5892,-6.110,-5.700
5893,-6.125,-5.720
5894,-6.125,-5.715
5895,-6.140,-5.690
5896,-6.145,-5.690
5897,-6.145,-5.690
5898,-6.135,-5.660
5899,-6.135,-5.670
5900,-6.120,-5.665
5901,-6.120,-5.660
5902,-6.135,-5.680
5903,-6.150,-5.675
5904,-6.170,-5.705
5905,-6.195,-5.710
5906,-6.180,-5.710
5907,-6.175,-5.720
5908,-6.160,-5.715
5909,-6.140,-5.695
5910,-6.140,-5.695
5911,-6.130,-5.685
5912,-6.145,-5.685
5913,-6.155,-5.665
5914,-6.165,-5.680
5915,-6.165,-5.700
5916,-6.180,-5.710
5917,-6.165,-5.730
5918,-6.160,-5.745
5919,-6.165,-5.760
5920,-6.160,-5.755
5921,-6.150,-5.735
5922,-6.150,-5.710
5923,-6.155,-5.715
5924,-6.145,-5.685
5925,-6.160,-5.695
5926,-6.150,-5.710
5927,-6.165,-5.700
5928,-6.170,-5.725
5929,-6.180,-5.720
5930,-6.200,-5.725
5931,-6.200,-5.725
5932,-6.185,-5.725
5933,-6.165,-5.730
5934,-6.160,-5.715
5935,-6.145,-5.715
5936,-6.135,-5.715
5937,-6.150,-5.720
5938,-6.155,-5.740
5939,-6.175,-5.750
5940,-6.180,-5.750
5941,-6.170,-5.745
5942,-6.165,-5.730
5943,-6.170,-5.710
5944,-6.180,-5.725
5945,-6.180,-5.710
5946,-6.175,-5.715
5947,-6.165,-5.705
5948,-6.145,-5.700
5949,-6.145,-5.700
5950,-6.145,-5.715
5951,-6.135,-5.725
5952,-6.130,-5.720
5953,-6.150,-5.715
5954,-6.165,-5.715
5955,-6.175,-5.705
5956,-6.180,-5.715
5957,-6.185,-5.680
5958,-6.175,-5.685
5959,-6.140,-5.670
5960,-6.145,-5.680
5961,-6.145,-5.670
5962,-6.135,-5.670
5963,-6.150,-5.690
5964,-6.155,-5.700
5965,-6.170,-5.730
5966,-6.165,-5.740
5967,-6.170,-5.730
5968,-6.170,-5.725
5969,-6.160,-5.725
5970,-6.135,-5.710
5971,-6.125,-5.695
5972,-6.095,-5.695
5973,-6.100,-5.715
5974,-6.100,-5.730
5975,-6.090,-5.765
5976,-6.100,-5.795
5977,-6.100,-5.820
5978,-6.095,-5.825
5979,-6.090,-5.840
5980,-6.090,-5.810
5981,-6.080,-5.790
5982,-6.035,-5.745
5983,-6.005,-5.700
5984,-5.980,-5.660
5985,-5.950,-5.660
5986,-5.945,-5.640
5987,-5.950,-5.665
5988,-5.995,-5.670
5989,-6.030,-5.690
5990,-6.060,-5.715
5991,-6.095,-5.705
5992,-6.115,-5.670
5993,-6.110,-5.640
5994,-6.060,-5.625
5995,-6.030,-5.620
5996,-6.000,-5.605
5997,-5.970,-5.625
5998,-5.955,-5.610
5999,-5.950,-5.625
6000,-5.985,-5.625
6001,-6.045,-5.645
6002,-6.075,-5.670
6003,-6.130,-5.665
6004,-6.160,-5.650
6005,-6.170,-5.655
6006,-6.170,-5.645
6007,-6.160,-5.650
6008,-6.155,-5.660
6009,-6.155,-5.675
6010,-6.165,-5.680
6011,-6.175,-5.680
6012,-6.195,-5.685
6013,-6.210,-5.695
6014,-6.215,-5.680
6015,-6.220,-5.690
6016,-6.235,-5.700
6017,-6.225,-5.700
6018,-6.230,-5.695
6019,-6.230,-5.700
6020,-6.225,-5.705
6021,-6.225,-5.720
6022,-6.225,-5.715
6023,-6.245,-5.735
6024,-6.230,-5.725
6025,-6.245,-5.750
6026,-6.225,-5.745
6027,-6.230,-5.755
6028,-6.230,-5.720
6029,-6.235,-5.730
6030,-6.230,-5.695
6031,-6.235,-5.705
6032,-6.210,-5.710
6033,-6.205,-5.720
6034,-6.215,-5.735
6035,-6.220,-5.755
6036,-6.220,-5.755
6037,-6.235,-5.760
6038,-6.240,-5.775
6039,-6.240,-5.775
6040,-6.255,-5.785
6041,-6.250,-5.805
6042,-6.245,-5.850
6043,-6.250,-5.890
6044,-6.230,-5.990
6045,-6.220,-6.100
6046,-6.160,-6.205
6047,-6.065,-6.340
6048,-5.930,-6.450
6049,-5.790,-6.555
6050,-5.635,-6.635
6051,-5.550,-6.625
6052,-5.535,-6.570
6053,-5.515,-6.425
6054,-5.525,-6.285
6055,-5.460,-6.140
6056,-5.330,-5.975
6057,-5.200,-5.790
6058,-5.075,-5.520
6059,-5.005,-5.215
6060,-5.080,-4.900
6061,-5.310,-4.710
6062,-5.700,-4.695
6063,-6.170,-4.825
6064,-6.600,-5.065
6065,-6.840,-5.320
6066,-7.000,-5.530
6067,-7.045,-5.680
6068,-7.050,-5.755
6069,-7.070,-5.800
6070,-7.115,-5.840
6071,-7.160,-5.855
6072,-7.190,-5.855
6073,-7.200,-5.880
6074,-7.240,-5.895
6075,-7.320,-5.870
6076,-7.410,-5.870
6077,-7.430,-5.870
6078,-7.395,-5.890
6079,-7.315,-5.935
6080,-7.195,-6.000
6081,-7.100,-6.050
6082,-6.980,-6.045
6083,-6.850,-6.025
6084,-6.755,-5.990
6085,-6.675,-5.920
6086,-6.630,-5.845
6087,-6.550,-5.770
6088,-6.435,-5.705
6089,-6.360,-5.690
6090,-6.300,-5.640
6091,-6.290,-5.690
6092,-6.285,-5.710
6093,-6.315,-5.725
6094,-6.355,-5.750
6095,-6.365,-5.770
6096,-6.360,-5.765
6097,-6.345,-5.755
6098,-6.315,-5.735
6099,-6.310,-5.685
6100,-6.325,-5.660
6101,-6.390,-5.655
6102,-6.410,-5.645
6103,-6.390,-5.665
6104,-6.320,-5.710
6105,-6.280,-5.740
6106,-6.255,-5.775
6107,-6.265,-5.795
6108,-6.265,-5.800
6109,-6.290,-5.790
6110,-6.305,-5.770
6111,-6.310,-5.775
6112,-6.365,-5.800
6113,-6.385,-5.800
6114,-6.375,-5.840
6115,-6.335,-5.850
6116,-6.295,-5.870
6117,-6.285,-5.885
6118,-6.300,-5.890
6119,-6.380,-5.880
6120,-6.465,-5.890
6121,-6.525,-5.915
6122,-6.525,-5.900
6123,-6.510,-5.950
6124,-6.485,-5.965
6125,-6.455,-5.990
6126,-6.425,-6.010
6127,-6.410,-6.020
6128,-6.380,-6.030
6129,-6.385,-6.045
6130,-6.435,-6.055
6131,-6.500,-6.060
6132,-6.575,-6.070
6133,-6.620,-6.065
6134,-6.580,-6.090
6135,-6.545,-6.080
6136,-6.500,-6.090
6137,-6.490,-6.110
6138,-6.510,-6.090
6139,-6.585,-6.090
6140,-6.660,-6.080
6141,-6.710,-6.095
6142,-6.690,-6.130
6143,-6.620,-6.130
6144,-6.520,-6.145
6145,-6.460,-6.145
6146,-6.450,-6.130
6147,-6.495,-6.115
6148,-6.540,-6.100
6149,-6.540,-6.085
6150,-6.510,-6.100
6151,-6.450,-6.095
6152,-6.370,-6.100
6153,-6.310,-6.075
6154,-6.320,-6.060
6155,-6.350,-6.055
6156,-6.440,-6.045
6157,-6.490,-6.035
6158,-6.475,-6.025
6159,-6.450,-6.000
6160,-6.385,-6.000
6161,-6.335,-5.965
6162,-6.320,-5.955
6163,-6.320,-5.925
6164,-6.315,-5.905
6165,-6.275,-5.920
6166,-6.275,-5.890
6167,-6.285,-5.865
6168,-6.315,-5.865
6169,-6.370,-5.840
6170,-6.390,-5.890
6171,-6.425,-5.900
6172,-6.390,-5.920
6173,-6.345,-5.905
6174,-6.260,-5.880
6175,-6.200,-5.870
6176,-6.110,-5.810
6177,-6.055,-5.765
6178,-6.030,-5.725
6179,-6.030,-5.715
6180,-6.100,-5.725
6181,-6.215,-5.745
6182,-6.320,-5.770
6183,-6.340,-5.790
6184,-6.310,-5.785
6185,-6.240,-5.780
6186,-6.160,-5.760
6187,-6.115,-5.735
6188,-6.080,-5.745
6189,-6.115,-5.730
6190,-6.185,-5.745
6191,-6.260,-5.765
6192,-6.315,-5.775
6193,-6.330,-5.765
6194,-6.290,-5.790
6195,-6.225,-5.790
6196,-6.170,-5.780
6197,-6.145,-5.760
6198,-6.130,-5.755
6199,-6.155,-5.740
6200,-6.175,-5.760
6201,-6.220,-5.765
6202,-6.290,-5.765
6203,-6.345,-5.770
6204,-6.395,-5.760
6205,-6.360,-5.730
6206,-6.310,-5.720
6207,-6.270,-5.720
6208,-6.265,-5.710
6209,-6.310,-5.690
6210,-6.325,-5.690
6211,-6.310,-5.710
6212,-6.255,-5.770
6213,-6.230,-5.820
6214,-6.245,-5.890
6215,-6.250,-5.870
6216,-6.270,-5.835
6217,-6.310,-5.795
6218,-6.325,-5.735
6219,-6.340,-5.700
6220,-6.310,-5.690
6221,-6.265,-5.685
6222,-6.255,-5.695
6223,-6.275,-5.685
6224,-6.305,-5.700
6225,-6.340,-5.705
6226,-6.350,-5.705
6227,-6.330,-5.710
6228,-6.315,-5.720
6229,-6.295,-5.750
6230,-6.290,-5.780
6231,-6.275,-5.800
6232,-6.270,-5.780
6233,-6.285,-5.760
6234,-6.295,-5.740
6235,-6.325,-5.730
6236,-6.315,-5.715
6237,-6.300,-5.745
6238,-6.275,-5.785
6239,-6.270,-5.805
6240,-6.270,-5.795
6241,-6.280,-5.755
6242,-6.290,-5.735
6243,-6.275,-5.700
6244,-6.265,-5.685
6245,-6.235,-5.695
6246,-6.215,-5.710
6247,-6.210,-5.715
6248,-6.230,-5.730
6249,-6.290,-5.745
6250,-6.310,-5.750
6251,-6.300,-5.765
6252,-6.290,-5.785
6253,-6.255,-5.785
6254,-6.225,-5.795
6255,-6.210,-5.775
6256,-6.205,-5.730
6257,-6.240,-5.695
6258,-6.250,-5.695
6259,-6.255,-5.705
6260,-6.245,-5.720
6261,-6.225,-5.760
6262,-6.180,-5.800
6263,-6.165,-5.800
6264,-6.180,-5.800
6265,-6.195,-5.800
6266,-6.240,-5.810
6267,-6.250,-5.845
6268,-6.230,-5.840
6269,-6.210,-5.845
6270,-6.195,-5.835
6271,-6.180,-5.820
6272,-6.165,-5.775
6273,-6.140,-5.745
6274,-6.110,-5.745
6275,-6.095,-5.710
6276,-6.125,-5.695
6277,-6.140,-5.695
6278,-6.180,-5.710
6279,-6.215,-5.720
6280,-6.205,-5.735
6281,-6.205,-5.755
6282,-6.210,-5.750
6283,-6.205,-5.735
6284,-6.195,-5.700
6285,-6.175,-5.675
6286,-6.160,-5.655
6287,-6.145,-5.635
6288,-6.145,-5.630
6289,-6.140,-5.645
6290,-6.135,-5.640
6291,-6.175,-5.650
6292,-6.195,-5.665
6293,-6.240,-5.665
6294,-6.265,-5.685
6295,-6.280,-5.695
6296,-6.295,-5.680
6297,-6.300,-5.675
6298,-6.295,-5.695
6299,-6.305,-5.695
6300,-6.335,-5.730
6301,-6.375,-5.770
6302,-6.405,-5.795
6303,-6.415,-5.800
6304,-6.410,-5.790
6305,-6.395,-5.765
6306,-6.370,-5.770
6307,-6.365,-5.750
6308,-6.385,-5.750
6309,-6.410,-5.745
6310,-6.445,-5.730
6311,-6.460,-5.755
6312,-6.460,-5.770
6313,-6.420,-5.780
6314,-6.400,-5.800
6315,-6.390,-5.780
6316,-6.380,-5.765
6317,-6.400,-5.755
6318,-6.430,-5.760
6319,-6.465,-5.745
6320,-6.465,-5.750
6321,-6.450,-5.745
6322,-6.435,-5.745
6323,-6.425,-5.780
6324,-6.415,-5.800
6325,-6.420,-5.810
6326,-6.430,-5.805
6327,-6.455,-5.800
6328,-6.435,-5.765
6329,-6.430,-5.770
6330,-6.430,-5.795
6331,-6.425,-5.785
6332,-6.405,-5.800
6333,-6.405,-5.825
6334,-6.430,-5.830
6335,-6.445,-5.875
6336,-6.470,-5.935
6337,-6.485,-6.020
6338,-6.415,-6.110
6339,-6.350,-6.210
6340,-6.235,-6.350
6341,-6.095,-6.505
6342,-5.930,-6.610
6343,-5.800,-6.665
6344,-5.700,-6.640
6345,-5.675,-6.525
6346,-5.670,-6.385
6347,-5.680,-6.240
6348,-5.655,-6.115
6349,-5.575,-6.010
6350,-5.430,-5.870
6351,-5.290,-5.600
6352,-5.210,-5.265
6353,-5.225,-4.935
6354,-5.380,-4.705
6355,-5.640,-4.585
6356,-5.995,-4.675
6357,-6.375,-4.885
6358,-6.705,-5.150
6359,-6.975,-5.415
6360,-7.140,-5.610
6361,-7.225,-5.700
6362,-7.265,-5.755
6363,-7.305,-5.790
6364,-7.335,-5.795
6365,-7.380,-5.855
6366,-7.410,-5.870
6367,-7.445,-5.890
6368,-7.475,-5.920
6369,-7.490,-5.930
6370,-7.475,-5.965
