'sample interval','ECG1','ECG2'
'0.0078125 sec','mV','mV'
0,0.635,0.210
1,0.510,0.180
2,0.660,0.170
3,0.450,0.150
4,0.460,0.160
5,0.640,0.170
6,0.520,0.140
7,0.550,0.070
8,0.570,0.080
9,0.440,0.100
10,0.680,0.090
11,0.350,0.010
12,0.510,0.060
13,0.630,0.030
14,0.350,0.010
15,0.440,0.020
16,0.550,0.000
17,0.260,0.010
18,0.360,-0.030
19,0.370,-0.030
20,0.140,-0.020
21,0.170,-0.020
22,0.290,-0.020
23,0.360,-0.030
24,0.150,0.120
25,0.440,0.230
26,0.470,0.200
27,0.410,0.100
28,-0.140,0.130
29,0.495,-0.020
30,0.410,-0.060
31,0.220,-0.040
32,0.280,-0.100
33,0.200,-0.140
34,-0.060,-0.090
35,0.160,-0.150
36,0.060,-0.030
37,0.070,-0.100
38,-0.060,-0.100
39,0.020,-0.080
40,-0.140,-0.080
41,-0.110,-0.070
42,-0.140,-0.060
43,-0.150,0.010
44,0.050,0.080
45,0.130,0.020
46,0.630,-0.240
47,1.265,-0.620
48,1.360,-0.110
49,1.030,0.160
50,0.390,0.010
51,-0.250,0.390
52,-0.300,0.640
53,-0.120,0.890
54,-0.480,1.310
55,-0.230,1.230
56,-0.600,0.590
57,-0.380,-0.050
58,-0.950,-0.140
59,-0.940,-0.230
60,-0.910,-0.200
61,-1.030,-0.250
62,-1.140,-0.260
63,-1.180,-0.230
64,-1.200,-0.230
65,-1.340,-0.330
66,-1.410,-0.300
67,-1.590,-0.370
68,-1.590,-0.410
69,-1.480,-0.460
70,-1.840,-0.440
71,-1.750,-0.580
72,-1.830,-0.600
73,-1.900,-0.580
74,-1.840,-0.630
75,-1.750,-0.590
76,-1.630,-0.610
77,-1.590,-0.610
78,-1.360,-0.540
79,-1.010,-0.510
80,-0.960,-0.490
81,-0.680,-0.390
82,-0.510,-0.300
83,-0.220,-0.230
84,-0.140,-0.160
85,-0.010,-0.150
86,-0.160,-0.070
87,0.090,-0.040
88,0.110,0.020
89,0.090,-0.030
90,0.020,0.050
91,0.090,0.070
92,0.050,0.030
93,-0.080,0.120
94,0.060,0.030
95,-0.030,0.040
96,-0.050,0.120
97,0.030,0.060
98,-0.020,0.040
99,0.050,-0.030
100,-0.010,0.040
101,0.120,0.030
102,0.190,0.090
103,0.240,0.160
104,0.430,0.300
105,0.490,0.180
106,0.690,0.100
107,0.810,-0.050
108,0.790,-0.350
109,0.800,-0.680
110,0.790,-1.010
111,0.150,-0.990
112,-0.490,-1.630
113,-1.130,-2.090
114,-1.770,-1.870
115,-2.410,-1.510
116,-2.910,-1.300
117,-3.150,-1.000
118,-2.515,-0.710
119,-1.880,-0.320
120,-1.245,-0.240
121,-0.610,-0.030
122,-0.430,0.070
123,-0.460,0.240
124,-0.210,0.290
125,-0.250,0.270
126,-0.630,0.310
127,-0.260,0.340
128,-0.210,0.340
129,-0.190,0.410
130,-0.160,0.490
131,0.000,0.500
132,0.070,0.600
133,0.220,0.680
134,0.380,0.680
135,0.470,0.730
136,0.640,0.770
137,0.750,0.760
138,0.850,0.760
139,0.960,0.730
140,1.000,0.750
141,1.150,0.670
142,1.100,0.620
143,1.230,0.530
144,0.980,0.480
145,0.960,0.410
146,0.970,0.340
147,0.840,0.330
148,0.780,0.250
149,0.640,0.230
150,0.520,0.210
151,0.460,0.210
152,0.510,0.190
153,0.400,0.240
154,0.380,0.200
155,0.340,0.150
156,0.250,0.200
157,0.330,0.190
158,0.280,0.200
159,0.320,0.220
160,0.380,0.240
161,0.350,0.180
162,0.350,0.220
163,0.350,0.210
164,0.340,0.190
165,0.270,0.240
166,0.310,0.190
167,0.190,0.200
168,0.350,0.230
169,0.170,0.220
170,0.140,0.190
171,0.080,0.230
172,0.030,0.240
173,0.150,0.220
174,0.110,0.240
175,0.190,0.220
176,0.190,0.230
177,0.140,0.300
178,0.220,0.410
179,0.300,0.440
180,0.480,0.410
181,0.480,0.320
182,0.430,0.160
183,0.430,0.050
184,-0.030,0.090
185,0.080,0.020
186,-0.050,-0.010
187,-0.160,-0.020
188,-0.100,-0.010
189,0.120,0.040
190,-0.150,0.070
191,-0.080,0.040
192,-0.030,0.040
193,-0.180,0.030
194,-0.110,-0.040
195,-0.220,-0.010
196,0.040,0.050
197,-0.070,0.150
198,0.130,-0.030
199,0.650,-0.460
200,1.285,-0.980
201,0.860,-0.345
202,0.730,0.270
203,0.090,0.100
204,-0.510,0.500
205,-0.350,0.810
206,-0.460,1.070
207,-0.670,1.590
208,-0.480,1.480
209,-0.550,0.840
210,-0.390,0.200
211,-0.710,-0.090
212,-0.760,-0.180
213,-0.840,-0.150
214,-0.680,-0.180
215,-0.830,-0.260
216,-0.950,-0.240
217,-1.180,-0.230
218,-0.840,-0.250
219,-1.100,-0.270
220,-1.100,-0.330
221,-1.420,-0.300
222,-1.140,-0.340
223,-1.520,-0.380
224,-1.440,-0.470
225,-1.350,-0.540
226,-1.250,-0.560
227,-1.550,-0.630
228,-1.300,-0.580
229,-0.920,-0.660
230,-1.170,-0.650
231,-0.870,-0.670
232,-0.670,-0.560
233,-0.380,-0.550
234,-0.220,-0.470
235,-0.020,-0.420
236,0.150,-0.360
237,0.070,-0.290
238,0.250,-0.260
239,0.410,-0.180
240,0.330,-0.140
241,0.400,-0.080
242,0.480,-0.060
243,0.470,-0.050
244,0.480,-0.010
245,0.370,-0.050
246,0.540,0.030
247,0.230,0.040
248,0.590,0.010
249,0.340,0.050
250,0.630,0.050
251,0.450,-0.050
252,0.510,0.080
253,0.340,0.000
254,0.510,-0.030
255,0.590,0.090
256,0.660,0.070
257,0.670,0.140
258,0.760,0.060
259,0.710,0.070
260,0.970,-0.160
261,0.700,-0.160
262,0.780,-0.140
263,0.840,-0.170
264,1.000,-0.580
265,1.130,-0.750
266,0.490,-1.260
267,-0.150,-1.510
268,-0.790,-2.150
269,-1.430,-1.910
270,-2.070,-1.780
271,-2.710,-1.510
272,-3.310,-1.300
273,-3.150,-1.060
274,-2.515,-0.660
275,-1.880,-0.500
276,-1.245,-0.350
277,-0.610,-0.090
278,-0.200,-0.010
279,-0.200,0.120
280,0.060,0.150
281,0.020,0.170
282,-0.070,0.190
283,0.080,0.240
284,0.080,0.230
285,0.140,0.330
286,0.210,0.360
287,0.320,0.400
288,0.310,0.470
289,0.540,0.570
290,0.600,0.540
291,0.790,0.610
292,0.850,0.650
293,1.010,0.690
294,1.160,0.640
295,1.260,0.680
296,1.350,0.560
297,1.300,0.540
298,1.290,0.500
299,1.310,0.390
300,1.090,0.330
301,1.070,0.260
302,0.950,0.190
303,0.800,0.190
304,0.720,0.160
305,0.580,0.140
306,0.540,0.170
307,0.600,0.160
308,0.560,0.140
309,0.410,0.100
310,0.400,0.090
311,0.440,0.130
312,0.380,0.100
313,0.310,0.110
314,0.400,0.120
315,0.370,0.090
316,0.360,0.150
317,0.290,0.100
318,0.320,0.130
319,0.270,0.120
320,0.200,0.120
321,0.220,0.120
322,0.200,0.150
323,0.240,0.100
324,0.170,0.050
325,0.110,0.060
326,0.040,0.050
327,0.070,0.010
328,0.060,0.030
329,0.020,0.030
330,0.030,0.000
331,0.070,0.030
332,0.060,0.130
333,0.080,0.330
334,0.370,0.280
335,0.400,0.270
336,0.340,0.190
337,0.460,0.050
338,0.360,0.030
339,0.250,0.020
340,0.210,0.000
341,0.020,-0.020
342,0.080,0.030
343,0.180,-0.010
344,0.100,0.000
345,0.090,-0.010
346,0.070,0.000
347,0.110,0.040
348,0.060,0.010
349,0.120,-0.010
350,-0.050,0.010
351,0.050,0.060
352,0.180,0.220
353,0.370,0.070
354,0.840,-0.420
355,1.450,-0.810
356,1.070,-0.175
357,1.000,0.250
358,0.360,0.160
359,-0.270,0.520
360,-0.030,0.760
361,-0.060,1.060
362,-0.250,1.460
363,-0.030,1.280
364,-0.020,0.640
365,-0.170,0.000
366,-0.530,-0.100
367,-0.530,-0.100
368,-0.550,-0.170
369,-0.630,-0.140
370,-0.600,-0.180
371,-0.650,-0.190
372,-0.740,-0.210
373,-0.520,-0.190
374,-0.870,-0.240
375,-0.780,-0.300
376,-0.840,-0.350
377,-0.890,-0.420
378,-0.960,-0.490
379,-0.990,-0.500
380,-0.950,-0.550
381,-0.940,-0.630
382,-0.830,-0.620
383,-0.820,-0.590
384,-0.630,-0.650
385,-0.650,-0.590
386,-0.550,-0.550
387,-0.140,-0.520
388,-0.130,-0.510
389,0.040,-0.380
390,0.180,-0.340
391,0.260,-0.260
392,0.300,-0.240
393,0.310,-0.180
394,0.390,-0.130
395,0.380,-0.070
396,0.410,-0.050
397,0.400,0.030
398,0.430,0.040
399,0.470,0.060
400,0.450,0.070
401,0.410,0.070
402,0.460,0.160
403,0.530,0.060
404,0.650,0.050
405,0.420,0.050
406,0.610,0.040
407,0.550,0.020
408,0.440,0.090
409,0.600,0.210
410,0.730,0.270
411,0.740,0.270
412,0.800,0.200
413,0.780,0.110
414,0.740,-0.020
415,0.740,-0.060
416,0.570,-0.150
417,0.580,-0.150
418,0.430,-0.560
419,0.450,-1.170
420,0.380,-1.460
421,0.390,-1.300
422,-0.250,-1.940
423,-0.890,-2.380
424,-1.480,-1.990
425,-2.120,-1.590
426,-2.390,-1.390
427,-2.610,-1.090
428,-2.110,-0.750
429,-1.740,-0.530
430,-1.105,-0.340
431,-0.470,-0.140
432,-0.280,-0.040
433,-0.290,0.130
434,-0.100,0.170
435,-0.250,0.180
436,-0.180,0.250
437,-0.140,0.260
438,-0.170,0.230
439,-0.100,0.330
440,-0.060,0.320
441,-0.050,0.420
442,0.180,0.500
443,0.420,0.530
444,0.520,0.540
445,0.480,0.630
446,0.780,0.670
447,0.730,0.670
448,1.010,0.710
449,1.090,0.670
450,1.120,0.590
451,1.140,0.580
452,1.260,0.530
453,1.070,0.420
454,1.160,0.370
455,0.900,0.280
456,0.930,0.200
457,0.960,0.190
458,0.740,0.080
459,0.550,0.050
460,0.560,0.090
461,0.490,0.060
462,0.490,0.010
463,0.460,0.020
464,0.400,-0.030
465,0.390,0.100
466,0.470,0.030
467,0.400,0.050
468,0.360,0.110
469,0.560,0.130
470,0.260,0.080
471,0.720,0.120
472,0.510,0.090
473,0.570,0.080
474,0.380,0.050
475,0.500,0.090
476,0.410,0.090
477,0.610,0.020
478,0.510,0.100
479,0.610,0.000
480,0.280,-0.020
481,0.560,0.020
482,0.430,0.010
483,0.470,-0.010
484,0.400,0.020
485,0.580,0.080
486,0.450,0.160
487,0.600,0.240
488,0.580,0.190
489,0.590,0.130
490,0.710,-0.100
491,0.570,-0.030
492,0.420,-0.120
493,0.390,-0.070
494,0.260,-0.070
495,0.310,-0.140
496,0.380,-0.160
497,0.290,-0.140
498,0.270,-0.120
499,0.130,-0.200
500,0.280,-0.110
501,0.270,-0.160
502,0.330,-0.150
503,0.240,-0.190
504,0.240,-0.120
505,0.350,0.020
506,0.480,-0.090
507,1.110,-0.340
508,1.700,-0.750
509,1.670,-0.200
510,1.280,0.040
511,0.640,0.020
512,0.000,0.410
513,-0.210,0.650
514,0.060,0.970
515,-0.070,1.410
516,-0.040,1.200
517,0.020,0.560
518,0.100,-0.080
519,-0.310,-0.110
520,-0.250,-0.170
521,-0.280,-0.190
522,-0.390,-0.220
523,-0.500,-0.200
524,-0.400,-0.260
525,-0.490,-0.290
526,-0.690,-0.300
527,-0.750,-0.380
528,-0.750,-0.450
529,-0.940,-0.450
530,-1.080,-0.490
531,-0.970,-0.570
532,-1.120,-0.540
533,-1.140,-0.610
534,-1.140,-0.710
535,-1.150,-0.660
536,-0.960,-0.720
537,-0.810,-0.710
538,-0.820,-0.710
539,-0.540,-0.680
540,-0.240,-0.620
541,-0.170,-0.550
542,0.070,-0.530
543,0.140,-0.430
544,0.260,-0.360
545,0.460,-0.290
546,0.450,-0.250
547,0.530,-0.190
548,0.430,-0.170
549,0.560,-0.160
550,0.420,-0.090
551,0.440,-0.100
552,0.460,-0.090
553,0.440,-0.070
554,0.340,-0.110
555,0.330,-0.060
556,0.370,-0.040
557,0.390,-0.170
558,0.110,0.010
559,0.360,-0.060
560,0.410,-0.060
561,0.460,-0.090
562,0.480,-0.050
563,0.530,0.030
564,0.600,0.130
565,0.790,0.190
566,0.750,0.110
567,0.730,0.000
568,0.670,-0.020
569,0.700,-0.060
570,1.010,-0.090
571,0.510,-0.070
572,-0.030,-0.310
573,-0.670,-0.760
574,-1.310,-1.400
575,-1.950,-2.040
576,-2.590,-2.680
577,-3.230,-2.460
578,-3.870,-2.080
579,-4.030,-1.800
580,-4.150,-1.340
581,-3.515,-0.880
582,-2.880,-0.800
583,-2.530,-0.610
584,-2.060,-0.570
585,-1.820,-0.330
586,-1.185,0.010
587,-0.550,0.180
588,0.085,0.310
589,0.390,0.360
590,0.470,0.400
591,0.680,0.420
592,0.780,0.520
593,1.000,0.560
594,1.080,0.620
595,1.260,0.700
596,1.400,0.840
597,1.550,0.910
598,1.870,1.000
599,1.850,1.070
600,1.960,1.130
601,2.120,1.160
602,2.130,1.170
603,2.130,1.120
604,2.130,1.100
605,2.080,0.990
606,1.990,0.870
607,1.830,0.800
608,1.700,0.700
609,1.590,0.620
610,1.410,0.560
611,1.250,0.440
612,1.170,0.380
613,1.000,0.350
614,0.880,0.310
615,0.770,0.270
616,0.660,0.270
617,0.690,0.210
618,0.620,0.220
619,0.540,0.210
620,0.490,0.270
621,0.470,0.280
622,0.560,0.280
623,0.360,0.290
624,0.510,0.260
625,0.410,0.270
626,0.230,0.200
627,0.370,0.310
628,0.440,0.250
629,0.410,0.220
630,0.260,0.160
631,0.280,0.200
632,0.270,0.120
633,0.220,0.190
634,0.380,0.210
635,0.330,0.180
636,0.370,0.150
637,0.310,0.200
638,0.510,0.150
639,0.240,0.190
640,0.390,0.290
641,0.440,0.410
642,0.500,0.420
643,0.590,0.410
644,0.670,0.270
645,0.520,0.150
646,0.550,0.110
647,0.360,0.050
648,0.240,0.110
649,0.310,0.040
650,0.290,0.020
651,0.280,0.040
652,0.320,0.140
653,0.240,0.110
654,0.180,0.100
655,0.200,0.140
656,0.210,0.130
657,0.240,0.140
658,0.180,0.160
659,0.240,0.280
660,0.340,0.200
661,0.540,0.050
662,0.980,-0.590
663,1.615,-0.800
664,0.975,-0.165
665,0.530,0.160
666,-0.110,0.400
667,-0.030,0.750
668,-0.220,1.040
669,-0.050,1.420
670,-0.130,1.730
671,0.010,1.260
672,-0.010,0.620
673,-0.430,0.010
674,-0.390,-0.040
675,-0.380,-0.100
676,-0.500,-0.100
677,-0.560,-0.150
678,-0.670,-0.170
679,-0.670,-0.130
680,-0.730,-0.220
681,-0.820,-0.170
682,-0.710,-0.200
683,-0.980,-0.300
684,-1.070,-0.310
685,-1.110,-0.380
686,-1.090,-0.460
687,-1.250,-0.520
688,-1.120,-0.600
689,-1.230,-0.590
690,-1.200,-0.610
691,-0.990,-0.630
692,-0.940,-0.730
693,-0.870,-0.600
694,-1.120,-0.550
695,-0.485,-0.530
696,-0.100,-0.440
697,-0.040,-0.290
698,0.100,-0.270
699,0.280,-0.190
700,0.250,-0.140
701,0.410,-0.080
702,0.340,-0.020
703,0.330,0.050
704,0.400,0.080
705,0.460,0.090
706,0.220,0.080
707,0.450,0.180
708,0.160,0.190
709,0.300,0.230
710,0.310,0.210
711,0.370,0.210
712,0.220,0.350
713,0.480,0.260
714,0.460,0.040
715,0.190,0.160
716,0.480,-0.010
717,0.330,0.070
718,0.630,0.070
719,0.610,0.050
720,0.830,0.030
721,1.190,-0.530
722,1.480,-1.170
723,1.970,-0.680
724,1.400,-0.045
725,0.760,-0.330
726,0.120,-0.200
727,-0.520,-0.060
728,-0.080,-0.140
729,-0.490,-0.080
730,-0.470,-0.130
731,-0.480,-0.100
732,-0.360,-0.100
733,-0.540,0.000
734,-0.550,-0.090
735,-0.590,-0.050
736,-0.520,-0.040
737,-0.490,-0.070
738,-0.610,-0.040
739,-0.570,-0.040
740,-0.740,-0.060
741,-0.680,-0.100
742,-0.790,-0.050
743,-0.740,-0.040
744,-0.570,-0.080
745,-0.650,-0.030
746,-0.540,-0.030
747,-0.350,-0.050
748,-0.250,0.020
749,-0.150,0.000
750,0.040,-0.010
751,0.160,-0.020
752,0.190,-0.040
753,0.260,-0.030
754,0.330,0.010
755,0.360,0.020
756,0.330,-0.010
757,0.270,0.030
758,0.470,-0.010
759,0.170,-0.010
760,0.410,-0.010
761,0.240,0.070
762,0.390,-0.020
763,0.280,0.070
764,0.390,0.090
765,0.430,0.030
766,0.300,0.040
767,0.290,0.090
768,0.480,0.020
769,0.450,0.030
770,0.420,0.040
771,0.360,0.040
772,0.450,-0.020
773,0.380,-0.010
774,0.360,-0.010
775,0.360,-0.010
776,0.460,0.010
777,0.300,0.020
778,0.410,0.050
779,0.350,0.000
780,0.320,0.000
781,0.350,0.020
782,0.380,0.000
783,0.380,0.020
784,0.260,0.100
785,0.410,0.020
786,0.360,0.080
787,0.350,0.070
788,0.360,0.090
789,0.430,0.190
790,0.440,0.310
791,0.490,0.310
792,0.590,0.280
793,0.670,0.170
794,0.650,-0.070
795,0.030,0.060
796,0.380,-0.010
797,0.250,-0.040
798,0.270,-0.050
799,0.110,-0.050
800,0.220,-0.060
801,0.190,-0.010
802,0.140,0.020
803,0.110,-0.020
804,0.080,0.020
805,0.150,0.060
806,0.220,0.010
807,0.130,0.200
808,0.360,0.170
809,0.490,0.060
810,1.125,-0.350
811,1.760,-0.620
812,1.250,0.015
813,0.720,0.170
814,0.080,0.420
815,-0.130,0.740
816,0.060,1.010
817,-0.130,1.420
818,-0.070,1.630
819,-0.190,1.080
820,-0.380,0.440
821,-0.560,-0.060
822,-0.730,-0.150
823,-0.660,-0.090
824,-0.740,-0.160
825,-0.870,-0.160
826,-0.880,-0.150
827,-0.840,-0.190
828,-0.990,-0.140
829,-0.860,-0.230
830,-0.990,-0.190
831,-1.060,-0.200
832,-0.920,-0.270
833,-1.230,-0.320
834,-1.140,-0.350
835,-1.190,-0.360
836,-1.150,-0.440
837,-1.310,-0.410
838,-1.090,-0.460
839,-1.050,-0.460
840,-1.050,-0.430
841,-0.760,-0.410
842,-0.630,-0.370
843,-0.540,-0.310
844,-0.240,-0.220
845,-0.120,-0.180
846,-0.010,-0.080
847,0.220,-0.070
848,0.110,-0.010
849,0.210,0.030
850,0.210,0.020
851,0.190,0.030
852,0.100,0.090
853,0.200,0.050
854,0.060,0.040
855,0.040,0.090
856,0.020,0.060
857,-0.010,0.050
858,0.040,0.070
859,0.060,0.050
860,-0.020,0.070
861,0.090,0.080
862,0.120,0.110
863,0.330,0.070
864,0.060,0.150
865,0.190,0.110
866,0.360,0.130
867,0.230,0.260
868,0.380,0.360
869,0.460,0.330
870,0.530,0.310
871,0.570,0.200
872,0.550,0.080
873,0.380,0.110
874,0.180,0.100
875,0.200,0.020
876,-0.020,0.040
877,-0.010,0.090
878,0.190,0.020
879,0.040,0.120
880,-0.020,0.110
881,-0.020,0.060
882,-0.070,0.130
883,-0.030,0.100
884,-0.060,0.140
885,0.100,0.170
886,0.020,0.250
887,0.090,0.160
888,0.550,-0.060
889,1.020,-0.610
890,1.200,-0.230
891,0.810,0.405
892,0.170,0.210
893,-0.470,0.610
894,-0.170,0.910
895,-0.070,1.120
896,-0.360,1.560
897,-0.220,1.560
898,-0.270,0.920
899,-0.350,0.280
900,-0.660,0.000
901,-0.810,0.050
902,-0.570,-0.090
903,-0.610,-0.030
904,-0.710,-0.060
905,-0.720,-0.090
906,-0.730,-0.060
907,-0.770,-0.070
908,-0.850,-0.130
909,-0.870,-0.140
910,-0.980,-0.160
911,-1.000,-0.250
912,-1.100,-0.310
913,-1.080,-0.360
914,-1.050,-0.470
915,-1.020,-0.520
916,-1.020,-0.550
917,-1.010,-0.530
918,-0.750,-0.510
919,-0.520,-0.490
920,-0.350,-0.500
921,-0.180,-0.400
922,-0.140,-0.310
923,0.090,-0.250
924,0.040,-0.150
925,0.170,-0.070
926,0.100,-0.150
927,0.130,0.000
928,0.090,0.040
929,0.110,0.020
930,0.200,0.080
931,0.250,0.110
932,0.100,0.090
933,0.150,0.090
934,0.240,0.130
935,0.150,0.110
936,0.170,0.110
937,0.280,0.150
938,0.250,0.130
939,0.260,0.110
940,0.220,0.160
941,0.330,0.100
942,0.600,0.140
943,0.330,0.160
944,0.430,0.270
945,0.610,0.320
946,0.630,0.340
947,0.740,0.290
948,0.770,0.100
949,0.620,0.060
950,0.470,0.050
951,0.350,-0.010
952,0.250,-0.020
953,0.180,-0.040
954,0.030,-0.070
955,0.010,0.010
956,0.140,-0.010
957,-0.120,-0.070
958,0.150,0.040
959,-0.050,-0.030
960,0.040,0.010
961,0.020,-0.050
962,-0.020,-0.010
963,0.010,0.140
964,0.200,0.070
965,0.640,-0.150
966,1.210,-0.620
967,1.550,-0.420
968,1.070,0.215
969,0.430,0.030
970,-0.210,0.470
971,-0.660,0.750
972,-0.130,1.080
973,-0.520,1.490
974,-0.300,1.480
975,-0.100,0.840
976,-0.260,0.200
977,-0.480,-0.020
978,-0.580,-0.050
979,-0.450,-0.190
980,-0.930,-0.130
981,-0.620,-0.130
982,-0.750,-0.130
983,-0.670,-0.110
984,-0.690,-0.170
985,-0.810,-0.260
986,-1.070,-0.310
987,-1.060,-0.360
988,-1.090,-0.400
989,-1.210,-0.590
990,-1.220,-0.580
991,-1.330,-0.610
992,-1.450,-0.730
993,-1.180,-0.700
994,-1.100,-0.730
995,-1.000,-0.730
996,-0.940,-0.700
997,-0.580,-0.610
998,-0.500,-0.620
999,-0.300,-0.490
1000,-0.140,-0.440
1001,-0.010,-0.340
1002,-0.050,-0.300
1003,0.120,-0.230
1004,0.260,-0.150
1005,0.260,-0.090
1006,0.180,-0.060
1007,0.280,-0.040
1008,0.400,-0.030
1009,0.340,-0.010
1010,0.140,-0.010
1011,0.330,0.010
1012,0.270,0.020
1013,0.300,0.000
1014,0.200,0.050
1015,0.320,0.030
1016,0.380,0.010
1017,0.360,0.080
1018,0.380,0.030
1019,0.500,0.060
1020,0.460,0.130
1021,0.480,0.230
1022,0.480,0.180
1023,0.650,0.150
1024,0.590,0.090
1025,0.650,-0.060
1026,0.350,-0.040
1027,0.360,-0.040
1028,0.190,-0.070
1029,0.170,-0.090
1030,0.070,-0.090
1031,0.090,-0.140
1032,0.110,0.040
1033,0.200,0.000
1034,0.210,-0.040
1035,0.070,-0.060
1036,0.210,-0.020
1037,0.220,-0.050
1038,0.050,-0.050
1039,0.110,0.120
1040,0.170,-0.010
1041,0.570,-0.150
1042,1.090,-0.660
1043,1.660,-0.490
1044,1.020,0.145
1045,0.380,0.040
1046,-0.260,0.430
1047,-0.250,0.730
1048,-0.030,1.020
1049,-0.270,1.470
1050,-0.220,1.420
1051,-0.120,0.780
1052,-0.150,0.140
1053,-0.440,-0.100
1054,-0.420,-0.170
1055,-0.490,-0.150
1056,-0.390,-0.140
1057,-0.490,-0.170
1058,-0.520,-0.170
1059,-0.630,-0.210
1060,-0.720,-0.220
1061,-0.870,-0.270
1062,-0.980,-0.310
1063,-1.020,-0.360
1064,-1.150,-0.380
1065,-1.170,-0.430
1066,-1.210,-0.470
1067,-1.260,-0.560
1068,-1.200,-0.560
1069,-1.160,-0.610
1070,-1.070,-0.610
1071,-0.960,-0.580
1072,-0.690,-0.640
1073,-0.520,-0.500
1074,-0.340,-0.500
1075,-0.140,-0.410
1076,-0.050,-0.370
1077,0.120,-0.330
1078,0.130,-0.230
1079,0.280,-0.120
1080,0.340,-0.080
1081,0.440,-0.060
1082,0.140,-0.040
1083,0.260,0.000
1084,0.170,0.010
1085,0.260,0.010
1086,0.160,0.040
1087,0.150,0.070
1088,0.100,0.080
1089,0.170,0.090
1090,0.190,0.090
1091,0.080,0.070
1092,0.140,0.110
1093,0.180,0.090
1094,0.190,0.180
1095,0.300,0.200
1096,0.370,0.280
1097,0.390,0.370
1098,0.760,0.340
1099,0.900,0.160
1100,0.260,-0.020
1101,-0.120,-0.290
1102,-0.760,-0.840
1103,-1.400,-1.480
1104,-2.040,-2.120
1105,-2.680,-2.760
1106,-3.320,-2.350
1107,-3.960,-1.950
1108,-4.190,-1.660
1109,-4.040,-1.050
1110,-3.405,-0.670
1111,-2.770,-0.440
1112,-2.135,-0.370
1113,-1.600,-0.190
1114,-1.060,-0.030
1115,-0.480,0.240
1116,0.050,0.380
1117,0.410,0.400
1118,0.500,0.390
1119,0.410,0.500
1120,0.790,0.490
1121,0.900,0.580
1122,1.000,0.670
1123,1.200,0.750
1124,1.420,0.830
1125,1.570,0.920
1126,1.760,1.010
1127,1.890,1.080
1128,1.980,1.160
1129,2.080,1.160
1130,2.160,1.210
1131,2.170,1.250
1132,2.180,1.100
1133,2.190,1.050
1134,2.090,0.940
1135,1.920,0.850
1136,1.840,0.740
1137,1.680,0.640
1138,1.510,0.520
1139,1.390,0.460
1140,1.140,0.410
1141,1.010,0.320
1142,0.830,0.330
1143,0.860,0.300
1144,0.760,0.280
1145,0.680,0.270
1146,0.640,0.280
1147,0.650,0.240
1148,0.570,0.250
1149,0.560,0.280
1150,0.560,0.250
1151,0.580,0.220
1152,0.390,0.300
1153,0.540,0.280
1154,0.520,0.220
1155,0.460,0.310
1156,0.530,0.270
1157,0.220,0.230
1158,0.330,0.260
1159,0.340,0.250
1160,0.340,0.180
1161,0.140,0.280
1162,0.290,0.110
1163,0.110,0.140
1164,0.190,0.110
1165,0.160,0.100
1166,0.160,0.140
1167,0.410,0.120
1168,0.320,0.080
1169,0.280,0.130
1170,0.380,0.210
1171,0.500,0.310
1172,0.580,0.290
1173,0.690,0.290
1174,0.640,0.060
1175,0.670,0.030
1176,0.440,-0.010
1177,0.460,-0.060
1178,0.450,-0.050
1179,0.400,-0.080
1180,0.300,-0.060
1181,0.300,-0.050
1182,0.570,-0.060
1183,0.330,-0.010
1184,0.300,-0.060
1185,0.330,-0.050
1186,0.420,-0.040
1187,0.330,-0.010
1188,0.290,-0.040
1189,0.350,0.090
1190,0.390,0.050
1191,0.760,-0.090
1192,1.360,-0.690
1193,1.770,-0.700
1194,1.130,-0.065
1195,0.490,-0.040
1196,-0.150,0.340
1197,-0.310,0.630
1198,0.090,0.900
1199,-0.110,1.280
1200,0.060,1.380
1201,0.290,0.830
1202,-0.040,0.190
1203,-0.270,-0.150
1204,-0.130,-0.120
1205,-0.200,-0.240
1206,-0.400,-0.220
1207,-0.280,-0.290
1208,-0.540,-0.240
1209,-0.270,-0.290
1210,-0.460,-0.310
1211,-0.450,-0.340
1212,-0.660,-0.350
1213,-0.670,-0.430
1214,-0.730,-0.510
1215,-0.920,-0.460
1216,-0.910,-0.600
1217,-1.110,-0.580
1218,-0.970,-0.630
1219,-1.030,-0.660
1220,-0.930,-0.680
1221,-0.950,-0.670
1222,-0.820,-0.700
1223,-0.620,-0.660
1224,-0.490,-0.560
1225,-0.270,-0.520
1226,-0.100,-0.460
1227,0.010,-0.350
1228,0.240,-0.360
1229,0.230,-0.250
1230,0.380,-0.220
1231,0.590,-0.170
1232,0.430,-0.070
1233,0.530,-0.070
1234,0.600,-0.080
1235,0.290,-0.010
1236,0.480,-0.030
1237,0.360,0.030
1238,0.250,0.020
1239,0.410,0.060
1240,0.410,0.060
1241,0.280,0.090
1242,0.340,0.110
1243,0.380,0.070
1244,0.360,0.140
1245,0.380,0.130
1246,0.450,0.100
1247,0.570,0.180
1248,0.540,0.240
1249,0.550,0.260
1250,0.680,0.230
1251,0.780,0.130
1252,0.940,0.020
1253,0.950,-0.170
1254,1.240,-0.460
1255,1.380,-0.910
1256,0.740,-0.930
1257,0.100,-1.570
1258,-0.540,-1.840
1259,-1.180,-1.820
1260,-1.820,-1.490
1261,-2.460,-1.290
1262,-3.100,-1.100
1263,-3.040,-0.740
1264,-2.405,-0.470
1265,-1.770,-0.370
1266,-1.135,-0.140
1267,-0.620,-0.040
1268,-0.630,0.140
1269,-0.270,0.180
1270,-0.380,0.230
1271,-0.280,0.280
1272,-0.120,0.290
1273,-0.140,0.350
1274,-0.070,0.390
1275,0.000,0.470
1276,0.100,0.520
1277,0.260,0.560
1278,0.380,0.670
1279,0.590,0.710
1280,0.750,0.730
1281,0.770,0.770
1282,0.970,0.790
1283,1.160,0.780
1284,1.270,0.760
1285,1.330,0.730
1286,1.290,0.620
1287,1.320,0.590
1288,1.320,0.530
1289,1.180,0.410
1290,1.020,0.380
1291,1.020,0.350
1292,0.960,0.260
1293,0.690,0.250
1294,0.620,0.180
1295,0.480,0.190
1296,0.460,0.160
1297,0.480,0.160
1298,0.360,0.180
1299,0.410,0.140
1300,0.360,0.120
1301,0.350,0.160
1302,0.420,0.140
1303,0.460,0.160
1304,0.500,0.130
1305,0.460,0.150
1306,0.460,0.120
1307,0.550,0.150
1308,0.620,0.130
1309,0.520,0.130
1310,0.540,0.140
1311,0.660,0.170
1312,0.510,0.110
1313,0.520,0.120
1314,0.560,0.110
1315,0.460,0.080
1316,0.480,0.070
1317,0.430,0.100
1318,0.590,0.040
1319,0.450,0.120
1320,0.570,0.100
1321,0.440,0.090
1322,0.460,0.160
1323,0.530,0.260
1324,0.640,0.320
1325,0.610,0.360
1326,0.610,0.220
1327,0.700,0.100
1328,0.590,0.060
1329,0.460,0.090
1330,0.420,-0.050
1331,0.260,0.010
1332,0.210,-0.060
1333,0.180,0.010
1334,0.290,-0.010
1335,0.140,0.060
1336,0.310,0.020
1337,0.170,0.090
1338,0.240,0.050
1339,0.230,-0.010
1340,0.170,0.070
1341,0.230,0.080
1342,0.310,0.180
1343,0.370,0.140
1344,0.860,-0.130
1345,1.270,-0.740
1346,1.550,-0.420
1347,0.920,0.215
1348,0.280,0.110
1349,-0.240,0.610
1350,0.080,0.900
1351,0.020,1.210
1352,-0.160,1.700
1353,0.030,1.640
1354,-0.090,1.000
1355,-0.150,0.360
1356,-0.520,-0.060
1357,-0.500,-0.100
1358,-0.610,-0.180
1359,-0.780,-0.120
1360,-0.540,-0.200
1361,-0.850,-0.170
1362,-0.970,-0.190
1363,-0.870,-0.210
1364,-0.940,-0.270
1365,-1.070,-0.330
1366,-1.070,-0.340
1367,-1.030,-0.380
1368,-1.050,-0.420
1369,-1.270,-0.540
1370,-1.300,-0.520
1371,-1.310,-0.570
1372,-1.190,-0.600
1373,-1.130,-0.570
1374,-0.950,-0.590
1375,-1.020,-0.560
1376,-0.760,-0.440
1377,-0.540,-0.420
1378,-0.390,-0.330
1379,-0.270,-0.290
1380,-0.040,-0.240
1381,0.100,-0.160
1382,0.160,-0.150
1383,0.150,-0.060
1384,0.280,-0.070
1385,0.220,-0.020
1386,0.170,-0.020
1387,0.210,-0.010
1388,-0.010,0.050
1389,0.310,0.070
1390,-0.030,0.030
1391,-0.040,0.040
1392,0.210,0.070
1393,-0.040,0.040
1394,-0.010,0.030
1395,0.020,0.100
1396,0.160,0.010
1397,0.000,0.080
1398,0.220,0.040
1399,0.200,0.060
1400,0.160,0.150
1401,0.510,0.220
1402,0.500,0.230
1403,0.470,0.190
1404,0.600,0.030
1405,0.600,-0.020
1406,0.510,-0.090
1407,0.530,-0.060
1408,0.630,-0.190
1409,0.790,-0.620
1410,0.960,-0.990
1411,0.320,-1.110
1412,-0.320,-1.660
1413,-0.960,-2.250
1414,-1.600,-1.980
1415,-2.240,-1.580
1416,-2.880,-1.390
1417,-3.090,-1.130
1418,-3.070,-0.800
1419,-2.435,-0.540
1420,-1.800,-0.390
1421,-1.165,-0.210
1422,-0.630,-0.040
1423,-0.410,0.010
1424,-0.250,0.150
1425,-0.160,0.150
1426,-0.030,0.200
1427,-0.230,0.180
1428,-0.050,0.230
1429,-0.010,0.300
1430,0.180,0.350
1431,0.250,0.390
1432,0.260,0.400
1433,0.450,0.520
1434,0.630,0.500
1435,0.720,0.610
1436,1.100,0.620
1437,1.120,0.610
1438,1.170,0.650
1439,1.360,0.650
1440,1.450,0.620
1441,1.400,0.530
1442,1.350,0.500
1443,1.360,0.410
1444,1.290,0.320
1445,1.160,0.300
1446,1.120,0.320
1447,0.970,0.170
1448,0.940,0.170
1449,0.830,0.160
1450,0.710,0.130
1451,0.730,0.150
1452,0.650,0.110
1453,0.670,0.100
1454,0.560,0.140
1455,0.620,0.170
1456,0.540,0.130
1457,0.630,0.170
1458,0.540,0.150
1459,0.420,0.160
1460,0.530,0.180
1461,0.480,0.140
1462,0.550,0.130
1463,0.400,0.140
1464,0.470,0.140
1465,0.450,0.050
1466,0.260,0.110
1467,0.400,0.120
1468,0.310,0.060
1469,0.390,0.100
1470,0.310,0.050
1471,0.370,0.080
1472,0.370,0.080
1473,0.310,0.110
1474,0.390,0.030
1475,0.370,0.130
1476,0.430,0.180
1477,0.440,0.270
1478,0.580,0.270
1479,0.600,0.190
1480,0.630,0.090
1481,0.570,0.050
1482,0.520,0.060
1483,0.430,0.020
1484,0.260,-0.010
1485,0.230,-0.010
1486,0.150,-0.030
1487,0.120,0.000
1488,0.140,0.010
1489,0.040,-0.060
1490,-0.010,0.020
1491,-0.130,-0.020
1492,-0.150,-0.030
1493,-0.150,-0.020
1494,-0.120,0.000
1495,-0.200,0.210
1496,0.110,0.040
1497,0.230,-0.050
1498,0.865,-0.510
1499,1.500,-0.610
1500,0.910,0.025
1501,0.310,0.080
1502,-0.330,0.430
1503,-0.300,0.690
1504,-0.310,1.010
1505,-0.250,1.360
1506,-0.430,1.520
1507,-0.170,1.010
1508,-0.400,0.370
1509,-0.700,-0.070
1510,-0.830,-0.050
1511,-0.560,-0.100
1512,-0.880,-0.100
1513,-0.920,-0.100
1514,-0.910,-0.120
1515,-1.070,-0.140
1516,-1.070,-0.210
1517,-1.150,-0.290
1518,-1.480,-0.180
1519,-1.310,-0.300
1520,-1.410,-0.360
1521,-1.500,-0.380
1522,-1.530,-0.470
1523,-1.520,-0.530
1524,-1.660,-0.570
1525,-1.600,-0.630
1526,-1.500,-0.640
1527,-1.440,-0.610
1528,-1.230,-0.650
1529,-1.100,-0.580
1530,-0.740,-0.520
1531,-0.630,-0.490
1532,-0.460,-0.390
1533,-0.320,-0.350
1534,-0.170,-0.340
1535,-0.150,-0.220
1536,-0.030,-0.170
1537,0.020,-0.150
1538,-0.020,-0.060
1539,0.070,-0.020
1540,-0.010,0.000
1541,-0.060,-0.010
1542,0.030,0.060
1543,0.040,0.020
1544,-0.060,0.080
1545,0.020,0.060
1546,0.080,0.050
1547,0.070,0.100
1548,0.070,0.050
1549,-0.030,0.070
1550,0.170,0.110
1551,0.230,0.060
1552,0.170,0.040
1553,0.220,0.120
1554,0.250,0.250
1555,0.540,0.180
1556,0.320,0.260
1557,0.580,0.150
1558,0.620,-0.050
1559,0.600,0.000
1560,0.590,-0.380
1561,0.450,-0.840
1562,0.460,-0.980
1563,0.270,-0.860
1564,-0.370,-1.500
1565,-1.010,-1.950
1566,-1.650,-1.910
1567,-2.290,-1.560
1568,-2.930,-1.290
1569,-3.240,-1.100
1570,-2.930,-0.850
1571,-2.295,-0.480
1572,-1.660,-0.320
1573,-1.025,-0.070
1574,-0.420,-0.020
1575,-0.430,0.150
1576,-0.350,0.200
1577,-0.280,0.230
1578,-0.040,0.260
1579,-0.140,0.250
1580,-0.150,0.320
1581,-0.080,0.340
1582,-0.050,0.440
1583,0.050,0.460
1584,0.020,0.530
1585,0.240,0.530
1586,0.080,0.640
1587,0.350,0.670
1588,0.420,0.670
1589,0.630,0.730
1590,0.700,0.740
1591,0.690,0.660
1592,0.980,0.600
1593,0.960,0.650
1594,1.010,0.490
1595,1.030,0.450
1596,1.070,0.340
1597,0.850,0.230
1598,0.950,0.210
1599,0.750,0.160
1600,0.780,0.180
1601,0.680,0.110
1602,0.820,0.120
1603,0.570,0.080
1604,0.720,0.080
1605,0.640,0.150
1606,0.630,0.070
1607,0.530,0.050
1608,0.560,0.110
1609,0.580,0.090
1610,0.760,0.140
1611,0.480,0.100
1612,0.470,0.090
1613,0.550,0.130
1614,0.580,0.080
1615,0.440,0.100
1616,0.450,0.080
1617,0.470,0.090
1618,0.370,0.060
1619,0.380,0.120
1620,0.290,0.060
1621,0.360,0.040
1622,0.290,-0.010
1623,0.220,-0.030
1624,-0.020,-0.010
1625,0.230,-0.020
1626,0.100,-0.020
1627,0.110,-0.040
1628,0.170,0.050
1629,0.230,0.040
1630,0.190,0.190
1631,0.470,0.230
1632,0.390,0.210
1633,0.310,0.190
1634,0.600,0.050
1635,0.440,0.010
1636,0.380,-0.070
1637,0.190,-0.010
1638,0.120,-0.050
1639,-0.080,-0.080
1640,-0.050,-0.020
1641,-0.050,-0.040
1642,-0.120,-0.010
1643,0.020,-0.050
1644,-0.150,-0.010
1645,-0.200,-0.060
1646,-0.180,0.000
1647,-0.100,-0.030
1648,-0.180,-0.080
1649,-0.210,0.130
1650,0.100,0.050
1651,0.260,-0.080
1652,0.895,-0.600
1653,1.490,-0.600
1654,0.850,0.035
1655,0.210,-0.020
1656,-0.430,0.280
1657,-0.620,0.600
1658,-0.380,0.930
1659,-0.410,1.340
1660,-0.370,1.300
1661,-0.340,0.660
1662,-0.590,0.020
1663,-0.900,-0.160
1664,-0.900,-0.190
1665,-0.990,-0.200
1666,-0.980,-0.230
1667,-1.070,-0.220
1668,-1.120,-0.150
1669,-0.970,-0.240
1670,-1.190,-0.220
1671,-1.300,-0.320
1672,-1.410,-0.350
1673,-1.440,-0.290
1674,-1.370,-0.390
1675,-1.540,-0.460
1676,-1.520,-0.460
1677,-1.640,-0.460
1678,-1.550,-0.580
1679,-1.530,-0.540
1680,-1.420,-0.570
1681,-1.340,-0.600
1682,-1.310,-0.540
1683,-1.050,-0.610
1684,-0.900,-0.510
1685,-0.580,-0.470
1686,-0.690,-0.400
1687,-0.350,-0.340
1688,-0.140,-0.290
1689,-0.260,-0.220
1690,-0.020,-0.210
1691,-0.050,-0.150
1692,0.010,-0.070
1693,0.060,-0.060
1694,0.110,-0.040
1695,-0.060,-0.030
1696,0.000,-0.030
1697,0.020,0.050
1698,0.070,0.000
1699,0.140,0.010
1700,0.000,0.030
1701,0.060,-0.010
1702,0.010,0.020
1703,0.170,0.020
1704,0.170,0.020
1705,0.260,0.000
1706,0.260,0.050
1707,0.320,0.100
1708,0.480,0.180
1709,0.570,0.210
1710,0.670,0.200
1711,0.770,0.090
1712,0.770,-0.040
1713,0.680,-0.020
1714,0.540,-0.040
1715,0.470,-0.010
1716,0.380,-0.100
1717,0.230,-0.010
1718,0.310,0.000
1719,0.290,0.010
1720,0.210,0.010
1721,0.090,0.020
1722,0.040,-0.010
1723,0.010,-0.040
1724,0.050,0.010
1725,-0.030,-0.030
1726,-0.120,0.140
1727,0.060,0.060
1728,0.360,-0.040
1729,0.880,-0.530
1730,1.515,-0.760
1731,0.980,-0.125
1732,0.810,0.130
1733,0.170,0.380
1734,-0.300,0.650
1735,-0.150,1.010
1736,0.070,1.320
1737,-0.100,1.540
1738,-0.030,1.030
1739,-0.150,0.390
1740,-0.410,-0.090
1741,-0.620,-0.130
1742,-0.650,-0.120
1743,-0.560,-0.150
1744,-0.700,-0.190
1745,-0.670,-0.150
1746,-0.770,-0.230
1747,-0.860,-0.250
1748,-0.980,-0.270
1749,-1.030,-0.320
1750,-1.180,-0.380
1751,-1.290,-0.390
1752,-1.350,-0.470
1753,-1.430,-0.570
1754,-1.610,-0.610
1755,-1.480,-0.640
1756,-1.390,-0.670
1757,-1.410,-0.690
1758,-1.270,-0.680
1759,-1.130,-0.670
1760,-0.870,-0.600
1761,-0.620,-0.510
1762,-0.450,-0.500
1763,-0.330,-0.380
1764,-0.220,-0.360
1765,-0.270,-0.260
1766,-0.150,-0.190
1767,-0.040,-0.120
1768,-0.090,-0.120
1769,-0.110,-0.030
1770,-0.120,-0.010
1771,-0.140,0.000
1772,-0.170,0.040
1773,-0.260,0.060
1774,-0.220,0.080
1775,-0.160,0.160
1776,-0.120,0.110
1777,-0.080,0.110
1778,-0.170,0.160
1779,-0.120,0.100
1780,-0.070,0.110
1781,-0.110,0.130
1782,-0.100,0.120
1783,0.040,0.100
1784,0.000,0.250
1785,0.070,0.280
1786,0.130,0.250
1787,0.270,0.210
1788,0.360,0.060
1789,0.260,0.000
1790,0.190,0.030
1791,0.040,-0.020
1792,-0.110,-0.040
1793,-0.150,-0.040
1794,-0.180,-0.040
1795,-0.170,-0.060
1796,-0.200,0.000
1797,-0.210,-0.010
1798,-0.280,0.000
1799,-0.260,0.030
1800,-0.270,0.070
1801,-0.120,-0.020
1802,-0.320,0.050
1803,-0.230,0.180
1804,-0.130,0.090
1805,0.410,-0.160
1806,0.730,-0.750
1807,1.270,-0.500
1808,0.630,0.135
1809,-0.010,0.140
1810,-0.650,0.520
1811,-0.510,0.830
1812,-0.430,1.120
1813,-0.530,1.510
1814,-0.550,1.620
1815,-0.400,0.980
1816,-0.430,0.340
1817,-0.740,-0.080
1818,-0.900,-0.060
1819,-0.920,-0.110
1820,-0.820,-0.150
1821,-0.950,-0.090
1822,-0.990,-0.210
1823,-1.220,-0.110
1824,-0.880,-0.160
1825,-1.190,-0.180
1826,-1.170,-0.260
1827,-1.380,-0.220
1828,-1.320,-0.300
1829,-1.320,-0.400
1830,-1.660,-0.450
1831,-1.460,-0.500
1832,-1.570,-0.540
1833,-1.320,-0.590
1834,-1.260,-0.540
1835,-1.000,-0.640
1836,-0.900,-0.610
1837,-0.830,-0.590
1838,-0.450,-0.490
1839,-0.280,-0.440
1840,-0.350,-0.390
1841,0.030,-0.290
1842,0.050,-0.240
1843,0.140,-0.170
1844,0.250,-0.120
1845,0.310,-0.110
1846,0.230,-0.030
1847,0.360,0.010
1848,0.290,-0.010
1849,0.250,0.050
1850,0.260,-0.010
1851,0.270,0.050
1852,0.290,0.070
1853,0.260,0.110
1854,0.360,0.070
1855,0.210,0.030
1856,0.150,0.080
1857,0.390,0.060
1858,0.350,0.010
1859,0.440,0.130
1860,0.460,0.160
1861,0.630,0.240
1862,0.640,0.210
1863,0.850,0.150
1864,0.810,-0.010
1865,0.840,-0.060
1866,0.720,-0.040
1867,0.620,-0.090
1868,0.620,-0.090
1869,0.470,-0.040
1870,0.360,-0.090
1871,0.530,-0.120
1872,0.540,-0.030
1873,0.330,-0.080
1874,0.400,-0.040
1875,0.280,-0.090
1876,0.350,-0.090
1877,0.250,-0.100
1878,0.350,-0.010
1879,0.360,0.050
1880,0.360,0.030
1881,0.800,-0.130
1882,1.350,-0.570
1883,1.970,-0.590
1884,1.330,0.045
1885,0.690,-0.030
1886,0.050,0.360
1887,-0.350,0.690
1888,-0.170,0.980
1889,-0.210,1.390
1890,-0.230,1.490
1891,-0.130,0.940
1892,-0.370,0.300
1893,-0.340,-0.140
1894,-0.500,-0.170
1895,-0.490,-0.200
1896,-0.600,-0.160
1897,-0.490,-0.260
1898,-0.630,-0.150
1899,-0.680,-0.190
1900,-0.760,-0.230
1901,-0.880,-0.210
1902,-0.910,-0.240
1903,-1.050,-0.280
1904,-1.060,-0.300
1905,-1.190,-0.310
1906,-1.230,-0.340
1907,-1.220,-0.380
1908,-1.290,-0.430
1909,-1.230,-0.450
1910,-1.170,-0.500
1911,-1.090,-0.460
1912,-0.960,-0.530
1913,-0.780,-0.450
1914,-0.700,-0.400
1915,-0.470,-0.390
1916,-0.370,-0.290
1917,-0.230,-0.290
1918,-0.210,-0.230
1919,-0.170,-0.180
1920,-0.100,-0.160
1921,-0.060,-0.130
1922,-0.130,-0.050
1923,-0.040,-0.050
1924,-0.050,-0.030
1925,-0.060,-0.030
1926,-0.150,-0.010
1927,-0.240,-0.010
1928,-0.130,0.000
1929,-0.220,0.120
1930,0.050,0.010
1931,-0.190,0.050
1932,-0.080,0.070
1933,-0.010,0.040
1934,-0.110,0.090
1935,0.050,0.050
1936,0.070,0.170
1937,0.190,0.260
1938,0.370,0.290
1939,0.320,0.220
1940,0.410,0.220
1941,0.970,0.030
1942,0.340,0.000
1943,-0.160,-0.260
1944,-0.800,-0.650
1945,-1.440,-1.290
1946,-2.080,-1.930
1947,-2.720,-2.570
1948,-3.360,-2.480
1949,-4.000,-2.120
1950,-4.130,-1.850
1951,-4.340,-1.330
1952,-3.705,-0.860
1953,-3.070,-0.690
1954,-2.650,-0.540
1955,-2.210,-0.490
1956,-1.980,-0.210
1957,-1.345,0.020
1958,-0.710,0.270
1959,-0.075,0.380
1960,0.250,0.420
1961,0.450,0.480
1962,0.700,0.490
1963,0.730,0.510
1964,0.970,0.670
1965,1.290,0.710
1966,1.430,0.770
1967,1.570,0.840
1968,1.790,0.950
1969,2.010,1.010
1970,2.080,1.060
1971,2.230,1.100
1972,2.320,1.160
1973,2.390,1.180
1974,2.470,1.130
1975,2.480,1.070
1976,2.400,1.010
1977,2.340,0.910
1978,2.160,0.790
1979,2.000,0.680
1980,1.850,0.580
1981,1.600,0.490
1982,1.430,0.420
1983,1.230,0.380
1984,1.080,0.300
1985,0.960,0.320
1986,0.870,0.230
1987,0.720,0.230
1988,0.680,0.220
1989,0.610,0.230
1990,0.540,0.180
1991,0.520,0.210
1992,0.520,0.170
1993,0.530,0.200
1994,0.510,0.260
1995,0.590,0.210
1996,0.570,0.210
1997,0.650,0.240
1998,0.570,0.240
1999,0.630,0.190
2000,0.610,0.200
2001,0.610,0.170
2002,0.610,0.180
2003,0.620,0.160
2004,0.550,0.130
2005,0.520,0.140
2006,0.550,0.130
2007,0.490,0.130
2008,0.430,0.080
2009,0.420,0.100
2010,0.410,0.140
2011,0.480,0.160
2012,0.530,0.290
2013,0.610,0.340
2014,0.560,0.340
2015,0.630,0.250
2016,0.610,0.080
2017,0.540,0.040
2018,0.360,0.010
2019,0.230,0.000
2020,-0.080,-0.050
2021,0.110,-0.060
2022,-0.160,-0.030
2023,-0.040,-0.100
2024,-0.220,0.010
2025,-0.200,0.000
2026,-0.060,-0.010
2027,-0.140,0.020
2028,-0.010,-0.020
2029,-0.060,0.010
2030,0.090,0.050
2031,-0.130,0.160
2032,0.070,0.000
2033,0.530,-0.410
2034,1.165,-0.950
2035,0.880,-0.315
2036,0.670,0.320
2037,0.030,0.160
2038,-0.480,0.520
2039,-0.490,0.760
2040,-0.410,1.110
2041,-0.520,1.540
2042,-0.320,1.490
2043,-0.110,0.850
2044,-0.260,0.210
2045,-0.640,-0.010
2046,-0.620,-0.010
2047,-0.750,-0.110
2048,-0.790,-0.070
2049,-0.900,-0.100
2050,-0.790,-0.140
2051,-0.950,-0.130
2052,-0.920,-0.190
2053,-1.220,-0.280
2054,-1.300,-0.300
2055,-1.430,-0.380
2056,-1.350,-0.360
2057,-1.540,-0.480
2058,-1.550,-0.550
2059,-1.590,-0.620
2060,-1.630,-0.670
2061,-1.630,-0.710
2062,-1.390,-0.710
2063,-1.490,-0.750
2064,-1.130,-0.660
2065,-0.880,-0.680
2066,-0.950,-0.560
2067,-0.590,-0.540
2068,-0.390,-0.470
2069,-0.250,-0.380
2070,-0.080,-0.280
2071,0.020,-0.290
2072,0.050,-0.200
2073,0.390,-0.140
2074,0.190,-0.160
2075,0.220,-0.040
2076,0.120,-0.040
2077,0.490,-0.010
2078,0.220,0.040
2079,0.340,0.030
2080,0.230,-0.020
2081,0.290,0.010
2082,0.290,0.010
2083,0.330,0.000
2084,0.290,-0.010
2085,0.410,0.020
2086,0.310,0.010
2087,0.270,-0.030
2088,0.390,0.040
2089,0.450,0.130
2090,0.540,0.180
2091,0.650,0.160
2092,0.670,0.130
2093,0.940,-0.020
2094,1.120,-0.630
2095,1.190,-0.820
2096,1.130,-0.730
2097,0.490,-1.130
2098,-0.150,-1.770
2099,-0.790,-1.700
2100,-1.430,-1.540
2101,-2.070,-1.360
2102,-2.710,-1.180
2103,-2.930,-0.910
2104,-2.295,-0.620
2105,-1.660,-0.460
2106,-1.025,-0.250
2107,-0.760,-0.100
2108,-0.600,0.100
2109,-0.270,0.130
2110,-0.070,0.160
2111,-0.180,0.210
2112,-0.080,0.170
2113,-0.040,0.210
2114,0.040,0.300
2115,0.080,0.370
2116,0.290,0.360
2117,0.310,0.530
2118,0.530,0.570
2119,0.730,0.590
2120,0.770,0.690
2121,0.920,0.690
2122,1.070,0.710
2123,1.140,0.720
2124,1.270,0.670
2125,1.130,0.620
2126,1.450,0.600
2127,1.290,0.540
2128,1.300,0.450
2129,1.280,0.390
2130,1.180,0.350
2131,1.090,0.300
2132,0.970,0.250
2133,0.870,0.240
2134,0.830,0.180
2135,0.730,0.180
2136,0.660,0.150
2137,0.690,0.140
2138,0.600,0.180
2139,0.680,0.140
2140,0.680,0.120
2141,0.610,0.150
2142,0.660,0.150
2143,0.580,0.140
2144,0.630,0.150
2145,0.560,0.120
2146,0.610,0.110
2147,0.550,0.150
2148,0.590,0.120
2149,0.600,0.080
2150,0.390,0.080
2151,0.430,0.090
2152,0.370,0.050
2153,0.270,0.040
2154,0.230,0.000
2155,0.140,0.030
2156,0.180,0.010
2157,0.080,0.000
2158,0.000,0.010
2159,0.170,-0.020
2160,-0.050,0.070
2161,0.180,-0.020
2162,0.110,-0.020
2163,0.030,-0.020
2164,0.080,0.060
2165,0.210,0.130
2166,0.240,0.250
2167,0.250,0.240
2168,0.380,0.200
2169,0.460,0.100
2170,0.320,0.000
2171,0.310,0.010
2172,0.150,-0.050
2173,0.010,-0.030
2174,-0.070,-0.040
2175,-0.020,0.000
2176,0.060,-0.030
2177,0.040,0.060
2178,-0.020,0.030
2179,-0.050,-0.020
2180,-0.050,0.030
2181,-0.020,0.050
2182,-0.070,0.040
2183,-0.100,0.010
2184,-0.190,0.160
2185,0.100,0.060
2186,0.230,-0.070
2187,0.810,-0.660
2188,1.445,-0.750
2189,0.805,-0.115
2190,0.450,0.120
2191,-0.190,0.350
2192,-0.280,0.680
2193,-0.090,0.980
2194,-0.060,1.330
2195,-0.080,1.510
2196,0.070,0.980
2197,-0.200,0.340
2198,-0.590,-0.050
2199,-0.700,-0.030
2200,-0.800,-0.120
2201,-0.760,-0.130
2202,-0.870,-0.130
2203,-0.880,-0.160
2204,-0.950,-0.180
2205,-1.010,-0.150
2206,-1.060,-0.220
2207,-1.210,-0.230
2208,-1.180,-0.270
2209,-1.300,-0.320
2210,-1.320,-0.310
2211,-1.350,-0.380
2212,-1.450,-0.410
2213,-1.470,-0.430
2214,-1.270,-0.480
2215,-1.450,-0.480
2216,-1.150,-0.550
2217,-1.070,-0.530
2218,-0.990,-0.500
2219,-0.710,-0.470
2220,-0.520,-0.380
2221,-0.310,-0.380
2222,-0.280,-0.270
2223,-0.070,-0.190
2224,0.050,-0.220
2225,0.030,-0.080
2226,0.250,-0.050
2227,0.200,-0.040
2228,0.230,0.030
2229,0.320,0.050
2230,0.220,0.010
2231,0.140,0.070
2232,0.250,0.120
2233,0.270,0.070
2234,0.250,0.120
2235,0.290,0.130
2236,0.290,0.100
2237,0.360,0.090
2238,0.320,0.130
2239,0.370,0.090
2240,0.420,0.100
2241,0.400,0.100
2242,0.480,0.150
2243,0.500,0.270
2244,0.720,0.320
2245,0.790,0.290
2246,0.900,0.220
2247,0.910,0.050
2248,0.810,0.020
2249,0.710,0.030
2250,0.540,0.060
2251,0.520,0.010
2252,0.530,0.020
2253,0.480,0.010
2254,0.460,0.050
2255,0.320,0.050
2256,0.260,0.050
2257,0.320,0.060
2258,0.250,0.040
2259,0.220,0.070
2260,0.130,-0.010
2261,0.160,0.100
2262,0.190,0.200
2263,0.320,0.060
2264,0.930,-0.510
2265,1.430,-1.010
2266,1.050,-0.375
2267,0.800,0.260
2268,0.160,0.280
2269,-0.080,0.740
2270,0.160,1.040
2271,0.150,1.390
2272,-0.080,1.780
2273,0.150,1.420
2274,0.080,0.780
2275,-0.050,0.140
2276,-0.380,-0.090
2277,-0.350,-0.050
2278,-0.370,-0.110
2279,-0.520,-0.160
2280,-0.500,-0.070
2281,-0.430,-0.140
2282,-0.530,-0.160
2283,-0.670,-0.160
2284,-0.680,-0.230
2285,-0.850,-0.280
2286,-0.850,-0.320
2287,-1.100,-0.380
2288,-1.070,-0.450
2289,-1.020,-0.540
2290,-1.020,-0.560
2291,-1.060,-0.590
2292,-0.990,-0.600
2293,-0.920,-0.650
2294,-0.650,-0.600
2295,-0.470,-0.590
2296,-0.460,-0.550
2297,-0.050,-0.530
2298,-0.100,-0.390
2299,0.030,-0.350
2300,0.230,-0.310
2301,-0.060,-0.190
2302,0.280,-0.170
2303,0.210,-0.080
2304,0.270,-0.030
2305,0.100,-0.010
2306,0.230,0.040
2307,0.220,0.110
2308,0.200,0.130
2309,0.390,0.140
2310,0.250,0.140
2311,0.300,0.170
2312,0.340,0.150
2313,0.250,0.110
2314,0.420,0.110
2315,0.380,0.110
2316,0.500,0.080
2317,0.250,0.130
2318,0.400,0.210
2319,0.630,0.170
2320,0.400,0.270
2321,0.650,0.230
2322,0.730,0.200
2323,0.720,-0.020
2324,0.630,-0.040
2325,0.470,-0.110
2326,0.460,-0.120
2327,0.280,-0.100
2328,0.190,-0.110
2329,0.310,-0.140
2330,0.380,-0.090
2331,0.140,-0.060
2332,0.150,-0.080
2333,0.190,-0.100
2334,0.140,-0.060
2335,0.250,-0.080
2336,0.200,-0.050
2337,0.230,-0.090
2338,0.200,0.100
2339,0.310,0.020
2340,0.690,-0.130
2341,1.300,-0.590
2342,1.935,-0.520
2343,1.330,0.115
2344,0.690,0.010
2345,0.050,0.370
2346,-0.070,0.710
2347,0.190,0.910
2348,0.140,1.260
2349,0.100,1.340
2350,0.230,0.780
2351,-0.040,0.140
2352,-0.210,-0.110
2353,-0.350,-0.070
2354,-0.310,-0.180
2355,-0.530,-0.150
2356,-0.520,-0.230
2357,-0.610,-0.140
2358,-0.500,-0.200
2359,-0.780,-0.190
2360,-0.820,-0.270
2361,-0.820,-0.310
2362,-1.020,-0.260
2363,-0.960,-0.400
2364,-1.170,-0.430
2365,-1.200,-0.540
2366,-1.120,-0.540
2367,-1.060,-0.540
2368,-1.010,-0.640
2369,-1.040,-0.620
2370,-0.870,-0.630
2371,-0.660,-0.640
2372,-0.470,-0.590
2373,-0.270,-0.520
2374,0.020,-0.460
2375,0.120,-0.370
2376,0.280,-0.340
2377,0.370,-0.300
2378,0.400,-0.210
2379,0.460,-0.180
2380,0.490,-0.130
2381,0.410,-0.040
2382,0.560,0.000
2383,0.580,0.060
2384,0.570,0.040
2385,0.490,0.040
2386,0.490,0.050
2387,0.480,0.060
2388,0.440,0.050
2389,0.450,0.070
2390,0.500,0.060
2391,0.480,0.080
2392,0.500,0.070
2393,0.530,0.090
2394,0.640,0.120
2395,0.430,0.190
2396,0.770,0.240
2397,0.690,0.200
2398,0.910,0.160
2399,0.880,0.030
2400,0.820,-0.020
2401,0.700,-0.020
2402,0.680,-0.010
2403,0.520,-0.020
2404,0.510,-0.040
2405,0.520,0.020
2406,0.570,-0.020
2407,0.460,0.020
2408,0.490,0.040
2409,0.430,0.040
2410,0.450,-0.030
2411,0.390,0.030
2412,0.430,0.070
2413,0.420,0.080
2414,0.500,0.210
2415,0.450,0.100
2416,0.980,-0.140
2417,1.350,-0.680
2418,1.760,-0.320
2419,1.290,0.315
2420,0.650,0.210
2421,0.010,0.590
2422,-0.160,0.920
2423,0.030,1.250
2424,-0.140,1.700
2425,-0.240,1.570
2426,-0.110,0.930
2427,-0.250,0.290
2428,-0.360,-0.060
2429,-0.330,-0.130
2430,-0.450,-0.140
2431,-0.510,-0.170
2432,-0.430,-0.140
2433,-0.560,-0.170
2434,-0.590,-0.220
2435,-0.620,-0.210
2436,-0.770,-0.240
2437,-0.860,-0.290
2438,-0.940,-0.310
2439,-1.000,-0.340
2440,-1.080,-0.320
2441,-1.030,-0.410
2442,-1.110,-0.450
2443,-1.060,-0.480
2444,-1.050,-0.480
2445,-0.920,-0.520
2446,-0.820,-0.560
2447,-0.690,-0.520
2448,-0.540,-0.520
2449,-0.420,-0.470
2450,-0.260,-0.390
2451,-0.100,-0.410
2452,-0.180,-0.340
2453,0.020,-0.250
2454,0.070,-0.170
2455,0.170,-0.130
2456,0.180,-0.070
2457,0.140,-0.030
2458,0.250,-0.030
2459,0.200,0.020
2460,0.160,0.060
2461,0.270,0.010
2462,0.200,0.050
2463,0.170,0.060
2464,0.190,0.080
2465,0.150,0.090
2466,0.270,0.150
2467,0.260,0.120
2468,0.270,0.140
2469,0.280,0.190
2470,0.420,0.190
2471,0.360,0.320
2472,0.470,0.350
2473,0.520,0.300
2474,0.630,0.260
2475,0.740,0.130
2476,0.590,0.070
2477,0.450,0.070
2478,0.340,0.030
2479,0.220,0.040
2480,0.230,0.030
2481,0.150,0.070
2482,0.330,0.030
2483,0.210,0.080
2484,0.180,0.050
2485,0.120,0.020
2486,0.030,0.070
2487,0.180,0.090
2488,0.170,0.080
2489,0.070,0.170
2490,0.230,0.230
2491,0.320,0.160
2492,0.850,-0.350
2493,1.240,-0.850
2494,1.050,-0.215
2495,0.750,0.390
2496,0.110,0.270
2497,-0.310,0.630
2498,-0.060,0.930
2499,0.010,1.220
2500,0.080,1.610
2501,-0.040,1.500
2502,0.050,0.860
2503,0.140,0.220
2504,-0.500,-0.060
2505,-0.410,-0.030
2506,-0.260,-0.100
2507,-0.500,-0.100
2508,-0.410,-0.110
2509,-0.330,-0.160
2510,-0.580,-0.190
2511,-0.510,-0.220
2512,-0.620,-0.220
2513,-0.620,-0.300
2514,-0.680,-0.330
2515,-0.620,-0.390
2516,-0.790,-0.440
2517,-0.630,-0.460
2518,-0.610,-0.540
2519,-0.730,-0.560
2520,-0.660,-0.610
2521,-0.450,-0.650
2522,-0.490,-0.580
2523,-0.330,-0.600
2524,-0.250,-0.510
2525,-0.010,-0.500
2526,0.090,-0.420
2527,0.040,-0.380
2528,0.220,-0.260
2529,0.290,-0.230
2530,0.480,-0.190
2531,0.430,-0.130
2532,0.400,-0.050
2533,0.580,-0.050
2534,0.460,-0.020
2535,0.660,-0.020
2536,0.480,-0.020
2537,0.590,0.010
2538,0.550,0.010
2539,0.570,0.030
2540,0.560,-0.040
2541,0.620,0.060
2542,0.590,0.040
2543,0.730,0.040
2544,0.790,0.020
2545,0.720,0.080
2546,0.800,0.160
2547,0.940,0.250
2548,0.930,0.280
2549,0.870,0.220
2550,1.050,0.170
2551,1.090,-0.050
2552,0.820,0.000
2553,0.800,-0.070
2554,0.610,-0.070
2555,0.440,-0.050
2556,0.480,-0.030
2557,0.450,-0.100
2558,0.410,-0.010
2559,0.400,-0.030
2560,0.350,-0.050
2561,0.330,-0.010
2562,0.340,-0.040
2563,0.300,-0.020
2564,0.290,-0.020
2565,0.220,0.090
2566,0.430,0.120
2567,0.470,0.020
2568,0.930,-0.340
2569,1.520,-0.740
2570,1.490,-0.105
2571,1.220,0.160
2572,0.580,0.240
2573,-0.060,0.580
2574,-0.090,0.890
2575,0.180,1.110
2576,-0.100,1.490
2577,0.030,1.210
2578,-0.040,0.570
2579,-0.140,-0.010
2580,-0.490,-0.090
2581,-0.560,-0.110
2582,-0.490,-0.150
2583,-0.680,-0.180
2584,-0.600,-0.190
2585,-0.710,-0.240
2586,-0.820,-0.240
2587,-0.850,-0.320
2588,-0.990,-0.360
2589,-1.170,-0.430
2590,-1.220,-0.410
2591,-1.200,-0.490
2592,-1.340,-0.540
2593,-1.330,-0.630
2594,-1.370,-0.640
2595,-1.320,-0.650
2596,-1.290,-0.670
2597,-1.200,-0.650
2598,-1.100,-0.680
2599,-0.860,-0.610
2600,-0.760,-0.550
2601,-0.490,-0.450
2602,-0.360,-0.420
2603,-0.230,-0.340
2604,-0.220,-0.270
2605,-0.100,-0.250
2606,0.000,-0.160
2607,-0.070,-0.040
2608,0.150,-0.080
2609,0.090,0.050
2610,0.160,0.010
2611,0.040,0.050
2612,0.140,0.070
2613,0.060,0.070
2614,0.130,0.020
2615,0.070,0.110
2616,0.070,0.110
2617,0.190,0.080
2618,0.110,0.100
2619,0.220,0.100
2620,0.160,0.090
2621,0.180,0.130
2622,0.310,0.210
2623,0.420,0.270
2624,0.400,0.260
2625,0.670,0.180
2626,0.610,0.170
2627,0.770,-0.010
2628,0.460,0.000
2629,0.330,-0.050
2630,0.320,-0.010
2631,0.160,-0.070
2632,0.210,-0.140
2633,0.060,-0.030
2634,0.230,-0.070
2635,0.430,-0.060
2636,0.030,-0.070
2637,0.020,-0.090
2638,-0.070,-0.010
2639,0.210,-0.020
2640,0.110,-0.060
2641,0.100,0.080
2642,0.320,0.100
2643,0.590,-0.060
2644,1.030,-0.590
2645,1.665,-0.690
2646,1.190,-0.055
2647,0.620,0.030
2648,-0.020,0.370
2649,-0.590,0.790
2650,-0.070,1.090
2651,-0.250,1.510
2652,-0.210,1.640
2653,-0.200,1.080
2654,-0.220,0.440
2655,-0.220,-0.110
2656,-0.270,-0.160
2657,-0.450,-0.190
2658,-0.540,-0.200
2659,-0.370,-0.230
2660,-0.590,-0.190
2661,-0.560,-0.290
2662,-0.740,-0.250
2663,-0.730,-0.220
2664,-0.730,-0.310
2665,-0.840,-0.350
2666,-0.960,-0.350
2667,-0.910,-0.380
2668,-0.960,-0.490
2669,-1.070,-0.490
2670,-0.920,-0.570
2671,-0.920,-0.590
2672,-0.840,-0.580
2673,-0.720,-0.600
2674,-0.640,-0.640
2675,-0.420,-0.560
2676,-0.230,-0.520
2677,-0.180,-0.490
2678,-0.010,-0.360
2679,0.100,-0.310
2680,0.150,-0.270
2681,0.160,-0.210
2682,0.160,-0.180
2683,0.130,-0.140
2684,0.160,-0.040
2685,0.160,-0.020
2686,0.130,-0.010
2687,0.130,0.060
2688,0.000,0.040
2689,0.060,-0.020
2690,-0.020,0.060
2691,0.050,0.030
2692,0.020,0.010
2693,0.000,0.080
2694,0.130,0.080
2695,0.350,0.070
2696,0.320,0.110
2697,0.350,0.130
2698,0.300,0.180
2699,0.430,0.310
2700,0.530,0.270
2701,0.560,0.220
2702,0.660,0.170
2703,0.660,0.000
2704,0.480,0.020
2705,0.380,0.010
2706,0.200,0.070
2707,0.240,0.010
2708,0.180,0.040
2709,0.210,0.030
2710,0.180,0.050
2711,0.050,0.050
2712,0.030,0.060
2713,0.000,0.050
2714,0.060,0.060
2715,-0.040,0.000
2716,-0.120,0.010
2717,-0.080,0.160
2718,0.010,0.080
2719,0.270,-0.040
2720,0.770,-0.550
2721,1.405,-0.790
2722,0.765,-0.155
2723,0.620,0.120
2724,-0.020,0.410
2725,-0.260,0.710
2726,-0.110,1.000
2727,-0.120,1.340
2728,-0.160,1.530
2729,-0.060,0.990
2730,-0.320,0.350
2731,-0.760,-0.050
2732,-0.530,-0.150
2733,-0.830,-0.150
2734,-0.850,-0.190
2735,-0.770,-0.150
2736,-0.820,-0.190
2737,-0.960,-0.210
2738,-0.850,-0.190
2739,-0.940,-0.170
2740,-1.040,-0.260
2741,-1.160,-0.240
2742,-1.110,-0.370
2743,-1.320,-0.360
2744,-1.300,-0.400
2745,-1.270,-0.430
2746,-1.180,-0.510
2747,-1.210,-0.550
2748,-1.250,-0.570
2749,-0.980,-0.520
2750,-0.920,-0.530
2751,-0.800,-0.470
2752,-0.620,-0.420
2753,-0.460,-0.320
2754,-0.230,-0.290
2755,-0.200,-0.290
2756,-0.270,-0.170
2757,-0.060,-0.140
2758,0.050,-0.050
2759,0.030,-0.010
2760,0.020,0.080
2761,0.220,0.030
2762,0.070,0.030
2763,0.060,0.110
2764,0.130,0.040
2765,0.060,0.140
2766,0.160,0.120
2767,0.150,0.050
2768,0.050,0.130
2769,0.290,0.150
2770,0.280,0.160
2771,0.330,0.180
2772,0.400,0.200
2773,0.410,0.230
2774,0.600,0.380
2775,0.700,0.400
2776,0.780,0.370
2777,0.830,0.310
2778,0.930,0.140
2779,0.830,0.100
2780,0.670,0.120
2781,0.570,0.130
2782,0.520,0.090
2783,0.490,0.110
2784,0.450,0.100
2785,0.450,0.100
2786,0.300,0.180
2787,0.360,0.170
2788,0.240,0.140
2789,0.260,0.140
2790,0.180,0.130
2791,0.180,0.090
2792,0.170,0.120
2793,0.210,0.270
2794,0.370,0.130
2795,0.710,-0.090
2796,1.345,-0.660
2797,1.550,-0.230
2798,1.130,0.405
2799,0.490,0.240
2800,-0.070,0.630
2801,-0.040,1.000
2802,0.250,1.260
2803,-0.030,1.660
2804,-0.030,1.520
2805,0.070,0.880
2806,0.070,0.240
2807,-0.340,-0.070
2808,-0.420,-0.090
2809,-0.420,-0.130
2810,-0.460,-0.090
2811,-0.350,-0.120
2812,-0.480,-0.150
2813,-0.560,-0.190
2814,-0.670,-0.130
2815,-0.660,-0.240
2816,-0.780,-0.270
2817,-0.890,-0.310
2818,-0.940,-0.410
2819,-0.990,-0.420
2820,-1.010,-0.520
2821,-1.040,-0.580
2822,-0.960,-0.630
2823,-0.990,-0.650
2824,-0.770,-0.620
2825,-0.530,-0.640
2826,-0.440,-0.630
2827,-0.330,-0.620
2828,-0.350,-0.510
2829,0.010,-0.450
2830,0.000,-0.350
2831,-0.020,-0.260
2832,0.210,-0.220
2833,0.230,-0.150
2834,0.220,-0.070
2835,0.210,-0.010
2836,0.140,0.020
2837,0.190,0.040
2838,0.180,0.110
2839,0.230,0.080
2840,0.170,0.120
2841,0.230,0.170
2842,0.260,0.130
2843,0.290,0.110
2844,0.110,0.130
2845,0.180,0.090
2846,0.150,0.080
2847,-0.030,0.100
2848,0.340,0.090
2849,0.290,0.260
2850,0.340,0.310
2851,0.460,0.260
2852,0.560,0.220
2853,0.510,0.130
2854,0.710,0.020
2855,0.490,-0.030
2856,0.480,0.020
2857,0.460,-0.220
2858,0.480,-0.790
2859,0.520,-1.150
2860,0.790,-1.060
2861,0.200,-1.200
2862,-0.440,-1.840
2863,-1.080,-2.010
2864,-1.720,-1.790
2865,-2.360,-1.410
2866,-2.700,-1.120
2867,-2.770,-0.800
2868,-2.135,-0.510
2869,-1.500,-0.390
2870,-0.865,-0.170
2871,-0.730,0.040
2872,-0.270,0.050
2873,-0.320,0.220
2874,-0.220,0.240
2875,-0.190,0.290
2876,0.010,0.260
2877,-0.160,0.380
2878,-0.010,0.290
2879,-0.040,0.410
2880,0.130,0.430
2881,0.140,0.440
2882,0.270,0.530
2883,0.580,0.570
2884,0.460,0.550
2885,0.560,0.640
2886,0.890,0.660
2887,0.850,0.620
2888,0.860,0.640
2889,1.110,0.660
2890,1.060,0.570
2891,1.250,0.520
2892,1.230,0.460
2893,1.110,0.370
2894,1.060,0.250
2895,0.810,0.250
2896,0.930,0.180
2897,0.940,0.200
2898,0.820,0.120
2899,0.630,0.100
2900,0.800,0.070
2901,0.520,0.050
2902,0.620,0.040
2903,0.580,0.040
2904,0.510,0.060
2905,0.640,0.050
2906,0.610,0.060
2907,0.590,0.080
2908,0.690,0.060
2909,0.670,0.080
2910,0.700,0.070
2911,0.620,0.050
2912,0.660,0.060
2913,0.680,0.070
2914,0.630,0.050
2915,0.610,0.080
2916,0.680,0.110
2917,0.740,0.050
2918,0.400,0.080
2919,0.630,0.060
2920,0.570,0.020
2921,0.530,0.060
2922,0.550,0.050
2923,0.440,0.010
2924,0.460,0.030
2925,0.420,0.160
2926,0.580,0.220
2927,0.500,0.190
2928,0.550,0.170
2929,0.750,0.060
2930,0.710,-0.020
2931,0.570,-0.030
2932,0.480,-0.060
2933,0.370,-0.050
2934,0.340,0.000
2935,0.380,-0.070
2936,0.300,-0.060
2937,0.370,-0.030
2938,0.330,0.010
2939,0.310,-0.010
2940,0.280,0.010
2941,0.310,-0.020
2942,0.290,-0.030
2943,0.290,0.010
2944,0.270,0.090
2945,0.420,0.100
2946,0.470,0.060
2947,0.990,-0.490
2948,1.625,-0.760
2949,1.310,-0.125
2950,1.270,0.200
2951,0.630,0.250
2952,-0.010,0.680
2953,-0.160,0.940
2954,-0.160,1.320
2955,-0.290,1.640
2956,-0.230,1.100
2957,-0.450,0.460
2958,-0.370,-0.090
2959,-0.550,-0.110
2960,-0.420,-0.130
2961,-0.550,-0.150
2962,-0.500,-0.180
2963,-0.580,-0.180
2964,-0.600,-0.180
2965,-0.720,-0.200
2966,-0.850,-0.200
2967,-0.920,-0.240
2968,-0.950,-0.270
2969,-1.040,-0.290
2970,-1.150,-0.290
2971,-1.150,-0.360
2972,-1.240,-0.370
2973,-1.140,-0.410
2974,-1.130,-0.420
2975,-1.120,-0.450
2976,-1.040,-0.470
2977,-0.960,-0.510
2978,-0.750,-0.500
2979,-0.700,-0.430
2980,-0.490,-0.370
2981,-0.320,-0.340
2982,-0.140,-0.260
2983,-0.050,-0.250
2984,0.050,-0.220
2985,-0.030,-0.110
2986,0.180,-0.070
2987,0.210,0.010
2988,0.240,0.050
2989,0.270,0.020
2990,0.190,0.080
2991,0.150,0.070
2992,0.140,0.070
2993,0.070,0.070
2994,0.050,0.080
2995,0.080,0.130
2996,0.170,0.080
2997,0.130,0.110
2998,0.140,0.120
2999,0.230,0.110
3000,0.160,0.100
3001,0.220,0.080
3002,0.340,0.150
3003,0.360,0.250
3004,0.460,0.290
3005,0.500,0.310
3006,0.570,0.250
3007,1.070,0.030
3008,0.760,-0.080
3009,0.490,-0.720
3010,-0.150,-1.170
3011,-0.790,-1.660
3012,-1.430,-1.830
3013,-2.070,-2.470
3014,-2.710,-2.240
3015,-3.350,-1.940
3016,-3.990,-1.670
3017,-4.150,-1.230
3018,-3.520,-0.595
3019,-2.885,-0.360
3020,-2.250,-0.270
3021,-1.615,-0.130
3022,-0.980,0.110
3023,-0.345,0.260
3024,-0.030,0.330
3025,0.120,0.380
3026,0.260,0.370
3027,0.280,0.470
3028,0.440,0.430
3029,0.510,0.500
3030,0.640,0.580
3031,0.760,0.650
3032,1.030,0.760
3033,1.060,0.800
3034,1.330,0.890
3035,1.540,0.910
3036,1.550,0.990
3037,1.680,0.960
3038,1.770,1.000
3039,1.730,0.980
3040,1.820,0.880
3041,1.910,0.830
3042,1.750,0.750
3043,1.660,0.610
3044,1.620,0.540
3045,1.550,0.470
3046,1.320,0.330
3047,1.130,0.350
3048,1.210,0.260
3049,1.040,0.200
3050,0.760,0.250
3051,0.940,0.170
3052,0.690,0.160
3053,0.750,0.160
3054,0.750,0.200
3055,0.600,0.160
3056,0.710,0.210
3057,0.600,0.240
3058,0.620,0.210
3059,0.700,0.220
3060,0.570,0.130
3061,0.280,0.210
3062,0.710,0.120
3063,0.640,0.130
3064,0.490,0.080
3065,0.550,0.110
3066,0.580,0.130
3067,0.560,0.030
3068,0.480,0.070
3069,0.560,0.070
3070,0.590,0.060
3071,0.610,0.000
3072,0.520,0.050
3073,0.600,0.050
3074,0.580,0.020
3075,0.530,-0.010
3076,0.570,0.010
3077,0.570,-0.010
3078,0.670,0.020
3079,0.540,0.000
3080,0.570,0.120
3081,0.680,0.210
3082,0.800,0.270
3083,0.650,0.130
3084,0.810,0.220
3085,0.750,-0.020
3086,0.750,-0.030
3087,0.620,-0.080
3088,0.540,-0.140
3089,0.380,-0.080
3090,0.340,-0.080
3091,0.410,-0.130
3092,0.340,-0.040
3093,0.360,-0.010
3094,0.510,-0.080
3095,0.190,-0.110
3096,0.310,-0.090
3097,0.290,-0.050
3098,0.350,-0.140
3099,0.300,-0.050
3100,0.340,0.100
3101,0.460,-0.030
3102,0.830,-0.200
3103,1.400,-0.670
3104,1.680,-0.220
3105,1.200,0.180
3106,0.560,0.020
3107,-0.080,0.420
3108,-0.070,0.730
3109,0.190,0.940
3110,-0.130,1.360
3111,0.080,1.170
3112,-0.140,0.530
3113,-0.120,-0.040
3114,-0.620,-0.080
3115,-0.530,-0.130
3116,-0.560,-0.150
3117,-0.540,-0.150
3118,-0.660,-0.200
3119,-0.700,-0.220
3120,-0.720,-0.250
3121,-0.890,-0.260
3122,-0.880,-0.310
3123,-0.950,-0.340
3124,-1.050,-0.410
3125,-1.200,-0.480
3126,-1.250,-0.480
3127,-1.310,-0.550
3128,-1.420,-0.620
3129,-1.450,-0.640
3130,-1.270,-0.690
3131,-1.570,-0.700
3132,-1.300,-0.570
3133,-1.080,-0.650
3134,-0.930,-0.650
3135,-0.870,-0.590
3136,-0.640,-0.490
3137,-0.340,-0.420
3138,-0.210,-0.380
3139,-0.110,-0.320
3140,0.060,-0.260
3141,0.130,-0.180
3142,0.210,-0.200
3143,0.150,-0.140
3144,0.150,-0.050
3145,0.270,0.040
3146,0.380,0.000
3147,0.320,0.070
3148,0.370,0.040
3149,0.300,0.040
3150,0.250,0.040
3151,0.250,0.050
3152,0.320,0.060
3153,0.350,0.120
3154,0.300,0.060
3155,0.310,0.130
3156,0.400,0.100
3157,0.400,0.070
3158,0.410,0.050
3159,0.330,0.160
3160,0.410,0.240
3161,0.590,0.250
3162,0.710,0.140
3163,0.660,0.100
3164,0.850,-0.140
3165,1.050,-0.500
3166,1.070,-0.900
3167,0.440,-1.010
3168,-0.200,-1.530
3169,-0.840,-2.170
3170,-1.480,-1.980
3171,-2.120,-1.680
3172,-2.760,-1.400
3173,-3.320,-1.290
3174,-3.310,-0.880
3175,-2.675,-0.490
3176,-2.040,-0.360
3177,-1.405,-0.110
3178,-0.770,-0.020
3179,-0.220,0.180
3180,-0.030,0.260
3181,0.160,0.260
3182,0.100,0.310
3183,0.130,0.310
3184,0.120,0.380
3185,0.140,0.410
3186,0.260,0.490
3187,0.290,0.580
3188,0.430,0.630
3189,0.450,0.720
3190,0.440,0.720
3191,0.650,0.770
3192,0.680,0.860
3193,0.910,0.840
3194,0.960,0.830
3195,1.000,0.830
3196,1.110,0.780
3197,1.200,0.700
3198,1.150,0.680
3199,1.230,0.590
3200,1.110,0.530
3201,1.180,0.510
3202,1.100,0.350
3203,0.910,0.360
3204,0.930,0.270
3205,0.860,0.240
3206,0.780,0.210
3207,0.710,0.200
3208,0.700,0.210
3209,0.690,0.210
3210,0.630,0.180
3211,0.630,0.170
3212,0.580,0.200
3213,0.600,0.200
3214,0.550,0.230
3215,0.590,0.180
3216,0.490,0.210
3217,0.510,0.180
3218,0.270,0.170
3219,0.440,0.200
3220,0.370,0.210
3221,0.510,0.120
3222,0.250,0.150
3223,0.280,0.200
3224,0.310,0.110
3225,0.360,0.180
3226,0.170,0.150
3227,0.310,0.110
3228,0.210,0.140
3229,0.340,0.100
3230,0.180,0.040
3231,-0.010,0.070
3232,0.180,0.090
3233,0.040,0.070
3234,0.170,0.090
3235,0.040,0.060
3236,0.040,0.100
3237,0.090,0.230
3238,0.180,0.320
3239,0.210,0.340
3240,0.400,0.350
3241,0.450,0.220
3242,0.590,0.110
3243,0.350,0.060
3244,0.330,0.060
3245,0.320,0.010
3246,0.100,0.030
3247,0.130,0.000
3248,0.180,-0.090
3249,0.150,0.030
3250,0.060,-0.020
3251,0.090,-0.060
3252,-0.090,-0.090
3253,-0.060,-0.110
3254,0.020,-0.100
3255,-0.080,-0.140
3256,-0.080,0.020
3257,0.150,-0.040
3258,0.170,-0.170
3259,0.710,-0.720
3260,1.345,-0.780
3261,0.930,-0.145
3262,0.690,0.000
3263,0.050,0.160
3264,-0.560,0.550
3265,-0.450,0.850
3266,-0.350,1.190
3267,-0.480,1.470
3268,-0.340,1.020
3269,-0.400,0.380
3270,-0.530,-0.110
3271,-0.530,-0.180
3272,-0.870,-0.180
3273,-0.770,-0.190
3274,-0.790,-0.220
3275,-0.930,-0.270
3276,-0.830,-0.190
3277,-0.780,-0.270
3278,-1.010,-0.280
3279,-0.870,-0.270
3280,-1.100,-0.330
3281,-1.080,-0.370
3282,-1.070,-0.380
3283,-1.380,-0.410
3284,-1.150,-0.460
3285,-1.300,-0.510
3286,-1.280,-0.470
3287,-1.190,-0.620
3288,-1.210,-0.470
3289,-0.770,-0.550
3290,-1.140,-0.590
3291,-0.970,-0.440
3292,-0.420,-0.450
3293,-0.490,-0.450
3294,-0.310,-0.260
3295,-0.060,-0.270
3296,0.120,-0.150
3297,0.170,-0.100
3298,0.240,-0.030
3299,0.450,-0.180
3300,0.460,-0.180
3301,0.370,-0.100
3302,0.560,-0.220
3303,0.250,-0.130
3304,0.200,-0.080
3305,0.360,-0.130
3306,0.230,-0.120
3307,0.150,-0.060
3308,0.210,-0.070
3309,0.240,-0.050
3310,0.290,-0.060
3311,0.390,-0.070
3312,0.370,0.050
3313,0.420,0.000
3314,0.570,-0.010
3315,0.490,0.070
3316,0.610,-0.040
3317,1.130,-0.470
3318,1.720,-0.550
3319,1.370,0.085
3320,1.250,0.260
3321,0.610,0.690
3322,0.380,0.890
3323,0.290,0.980
3324,-0.350,0.770
3325,-0.940,0.370
3326,-1.290,-0.200
3327,-0.655,-0.150
3328,-0.550,-0.210
3329,-0.660,-0.230
3330,-0.640,-0.170
3331,-0.640,-0.180
3332,-0.690,-0.160
3333,-0.580,-0.180
3334,-0.760,-0.190
3335,-0.710,-0.210
3336,-0.810,-0.220
3337,-0.860,-0.250
3338,-1.050,-0.300
3339,-1.120,-0.320
3340,-1.010,-0.380
3341,-1.210,-0.470
3342,-1.130,-0.480
3343,-1.100,-0.460
3344,-0.940,-0.500
3345,-0.830,-0.540
3346,-0.520,-0.400
3347,-0.250,-0.480
3348,-0.220,-0.280
3349,0.040,-0.240
3350,0.200,-0.250
3351,0.210,-0.170
3352,0.330,-0.060
3353,0.290,-0.060
3354,0.220,-0.020
3355,0.240,-0.020
3356,0.160,-0.010
3357,0.060,0.040
3358,0.170,-0.010
3359,-0.020,0.020
3360,0.140,0.020
3361,0.040,0.040
3362,0.170,-0.010
3363,0.110,0.030
3364,0.220,0.030
3365,0.100,-0.040
3366,0.020,0.040
3367,0.230,0.020
3368,0.140,0.020
3369,0.070,0.030
3370,0.150,0.010
3371,0.080,-0.070
3372,-0.010,0.040
3373,0.030,0.050
3374,0.070,0.040
3375,0.100,0.100
3376,0.140,0.080
3377,0.160,0.040
3378,0.090,0.110
3379,0.210,0.120
3380,0.170,0.060
3381,0.120,0.090
3382,0.060,0.080
3383,0.160,-0.030
3384,-0.150,0.060
3385,0.060,0.040
3386,-0.040,0.020
3387,0.010,0.010
3388,-0.040,0.020
3389,-0.020,-0.010
3390,-0.090,0.020
3391,-0.060,0.020
3392,-0.030,-0.020
3393,-0.100,0.030
3394,-0.060,0.020
3395,-0.150,0.000
3396,-0.130,0.010
3397,-0.080,0.060
3398,-0.210,0.140
3399,-0.010,0.300
3400,0.060,0.290
3401,0.100,0.230
3402,0.190,0.070
3403,0.110,0.000
3404,-0.080,0.020
3405,-0.020,0.000
3406,-0.140,0.050
3407,0.020,0.160
3408,0.110,0.150
3409,0.290,0.030
3410,0.850,-0.470
3411,1.485,-0.790
3412,0.860,-0.155
3413,0.970,0.200
3414,0.330,0.360
3415,-0.090,0.720
3416,-0.130,0.980
3417,-0.020,1.300
3418,-0.220,1.660
3419,-0.050,1.290
3420,-0.130,0.650
3421,-0.450,0.090
3422,-0.460,-0.040
3423,-0.660,-0.030
3424,-0.650,-0.030
3425,-0.660,-0.040
3426,-0.690,-0.110
3427,-0.800,-0.070
3428,-0.810,-0.120
3429,-0.870,-0.120
3430,-0.840,-0.110
3431,-0.930,-0.230
3432,-0.990,-0.250
3433,-1.150,-0.310
3434,-1.080,-0.310
3435,-1.080,-0.370
3436,-1.160,-0.370
3437,-0.980,-0.430
3438,-1.010,-0.460
3439,-0.950,-0.430
3440,-0.680,-0.430
3441,-0.550,-0.410
3442,-0.240,-0.380
3443,-0.200,-0.330
3444,-0.010,-0.320
3445,0.210,-0.230
3446,0.280,-0.250
3447,0.480,-0.160
3448,0.330,-0.140
3449,0.500,-0.110
3450,0.450,-0.030
3451,0.480,0.010
3452,0.540,0.020
3453,0.580,0.080
3454,0.370,0.040
3455,0.400,0.110
3456,0.390,0.110
3457,0.360,0.150
3458,0.410,0.120
3459,0.370,0.130
3460,0.400,0.130
3461,0.530,0.130
3462,0.370,0.100
3463,0.360,0.070
3464,0.410,0.110
3465,0.600,0.080
3466,0.440,0.040
3467,0.460,0.050
3468,0.510,0.040
3469,0.740,0.040
3470,0.450,0.000
3471,0.680,0.000
3472,0.790,-0.380
3473,0.780,-0.610
3474,0.970,-0.890
3475,0.770,-0.770
3476,0.130,-1.410
3477,-0.510,-1.980
3478,-1.150,-1.760
3479,-1.790,-1.530
3480,-2.430,-1.320
3481,-2.820,-1.020
3482,-2.290,-0.700
3483,-1.655,-0.190
3484,-1.020,-0.110
3485,-0.385,0.130
3486,0.120,0.100
3487,0.070,0.170
3488,0.030,0.170
3489,-0.020,0.210
3490,-0.060,0.260
3491,0.010,0.220
3492,0.090,0.220
3493,0.010,0.340
3494,0.190,0.420
3495,0.290,0.430
3496,0.220,0.500
3497,0.570,0.540
3498,0.740,0.560
3499,0.710,0.650
3500,1.000,0.660
3501,1.160,0.660
3502,1.030,0.670
3503,1.100,0.660
3504,1.170,0.580
3505,1.350,0.610
3506,1.350,0.550
3507,1.210,0.490
3508,1.120,0.430
3509,1.030,0.390
3510,0.910,0.360
3511,0.950,0.330
3512,0.770,0.280
3513,0.670,0.240
3514,0.720,0.240
3515,0.550,0.210
3516,0.550,0.170
3517,0.510,0.190
3518,0.440,0.180
3519,0.480,0.190
3520,0.530,0.160
3521,0.460,0.160
3522,0.440,0.140
3523,0.550,0.120
3524,0.360,0.080
3525,0.400,0.100
3526,0.490,0.090
3527,0.520,0.080
3528,0.310,0.090
3529,0.440,0.080
3530,0.390,0.020
3531,0.350,0.060
3532,0.310,0.070
3533,0.470,-0.010
3534,0.320,0.040
3535,0.250,0.080
3536,0.200,-0.010
3537,0.220,0.030
3538,0.270,0.040
3539,0.180,0.010
3540,0.160,0.000
3541,0.240,0.040
3542,0.150,0.040
3543,0.130,0.000
3544,0.250,0.010
3545,0.120,0.050
3546,0.220,0.040
3547,0.260,0.020
3548,0.120,0.050
3549,0.240,0.020
3550,0.170,0.060
3551,0.110,0.030
3552,0.150,0.040
3553,0.150,0.010
3554,0.160,-0.060
3555,0.010,0.030
3556,0.090,-0.010
3557,0.130,-0.030
3558,0.050,-0.020
3559,0.050,-0.010
3560,0.010,0.050
3561,0.130,0.020
3562,0.100,-0.010
3563,0.000,0.020
3564,0.060,0.040
3565,0.040,0.010
3566,0.140,0.030
3567,0.110,0.030
3568,0.150,0.070
3569,0.330,0.150
3570,0.420,0.160
3571,0.320,0.180
3572,0.340,0.050
3573,0.310,0.010
3574,0.290,-0.030
3575,0.190,-0.050
3576,0.160,-0.040
3577,0.140,-0.070
3578,0.150,-0.090
3579,0.170,0.010
3580,0.380,0.030
3581,0.140,-0.010
3582,0.220,0.050
3583,0.250,0.070
3584,0.290,0.040
3585,0.310,0.050
3586,0.320,0.120
3587,0.340,0.220
3588,0.470,0.180
3589,0.950,-0.120
3590,1.320,-0.610
3591,1.720,-0.200
3592,1.160,0.410
3593,0.520,0.190
3594,-0.100,0.500
3595,0.030,0.800
3596,0.030,1.030
3597,-0.070,1.500
3598,0.030,1.450
3599,0.130,0.810
3600,-0.150,0.170
3601,-0.410,-0.010
3602,-0.430,-0.060
3603,-0.500,-0.100
3604,-0.530,-0.070
3605,-0.660,-0.150
3606,-0.650,-0.110
3607,-0.660,-0.150
3608,-0.690,-0.180
3609,-0.870,-0.170
3610,-0.690,-0.180
3611,-0.810,-0.240
3612,-0.890,-0.290
3613,-1.000,-0.300
3614,-0.960,-0.380
3615,-1.100,-0.400
3616,-1.090,-0.410
3617,-1.000,-0.490
3618,-0.990,-0.520
3619,-0.950,-0.590
3620,-1.070,-0.520
3621,-0.670,-0.550
3622,-0.520,-0.500
3623,-0.420,-0.500
3624,-0.290,-0.470
3625,-0.100,-0.360
3626,0.120,-0.340
3627,0.190,-0.270
3628,0.240,-0.180
3629,0.310,-0.150
3630,0.450,-0.090
3631,0.320,-0.080
3632,0.380,0.020
3633,0.580,0.030
3634,0.410,0.050
3635,0.320,0.060
3636,0.280,0.100
3637,0.440,0.130
3638,0.360,0.040
3639,0.250,0.060
3640,0.300,0.050
3641,0.350,0.090
3642,0.300,0.100
3643,0.300,0.090
3644,0.250,0.100
3645,0.430,0.080
3646,0.260,0.100
3647,0.390,0.090
3648,0.520,0.080
3649,0.600,0.120
3650,0.860,-0.320
3651,0.910,-0.640
3652,0.640,-0.610
3653,0.000,-0.790
3654,-0.640,-1.430
3655,-1.280,-1.620
3656,-1.920,-1.690
3657,-2.560,-1.520
3658,-3.200,-1.320
3659,-3.590,-1.150
3660,-2.955,-0.610
3661,-2.320,-0.430
3662,-1.685,-0.230
3663,-1.050,-0.030
3664,-0.570,0.130
3665,-0.310,0.130
3666,-0.320,0.180
3667,-0.380,0.240
3668,-0.200,0.220
3669,-0.230,0.280
3670,-0.090,0.350
3671,-0.160,0.290
3672,-0.150,0.400
3673,0.270,0.460
3674,0.180,0.510
3675,0.370,0.500
3676,0.540,0.630
3677,0.620,0.590
3678,0.860,0.650
3679,1.060,0.680
3680,1.250,0.630
3681,1.290,0.680
3682,1.390,0.560
3683,1.420,0.550
3684,1.210,0.500
3685,1.360,0.450
3686,1.210,0.320
3687,1.060,0.260
3688,1.080,0.250
3689,0.780,0.150
3690,0.590,0.220
3691,0.820,0.190
3692,0.510,0.200
3693,0.610,0.080
3694,0.420,0.160
3695,0.500,0.060
3696,0.340,0.090
3697,0.350,0.110
3698,0.350,0.000
3699,0.340,0.020
3700,0.210,0.140
3701,0.510,0.010
3702,0.430,0.030
3703,0.320,0.060
3704,0.390,0.010
3705,0.440,-0.030
3706,0.310,-0.010
3707,0.440,-0.010
3708,0.490,-0.070
3709,0.280,-0.020
3710,0.520,-0.030
3711,0.290,-0.090
3712,0.470,-0.090
3713,0.370,-0.110
3714,0.430,-0.050
3715,0.250,-0.060
3716,0.390,-0.020
3717,0.430,-0.060
3718,0.370,-0.070
3719,0.290,-0.030
3720,0.340,-0.050
3721,0.400,-0.010
3722,0.310,-0.030
3723,0.380,0.010
3724,0.260,0.020
3725,0.350,-0.040
3726,0.290,-0.080
3727,0.210,-0.040
3728,0.300,-0.080
3729,0.240,-0.090
3730,0.240,0.010
3731,0.410,0.070
3732,0.450,0.130
3733,0.450,0.160
3734,0.550,0.080
3735,0.530,-0.040
3736,0.370,-0.130
3737,0.360,-0.110
3738,0.340,-0.140
3739,0.280,-0.110
3740,0.310,-0.150
3741,0.370,-0.130
3742,0.410,-0.120
3743,0.180,-0.100
3744,0.250,-0.090
3745,0.350,-0.070
3746,0.180,-0.100
3747,0.280,-0.120
3748,0.250,-0.030
3749,0.250,-0.060
3750,0.270,0.020
3751,0.220,0.000
3752,0.855,-0.300
3753,1.450,-0.700
3754,1.710,-0.340
3755,1.250,0.090
3756,0.610,-0.030
3757,-0.030,0.390
3758,-0.330,0.680
3759,-0.090,0.890
3760,-0.490,1.380
3761,-0.460,1.240
3762,-0.190,0.600
3763,-0.190,-0.040
3764,-0.660,-0.130
3765,-0.530,-0.190
3766,-0.590,-0.200
3767,-0.740,-0.210
3768,-0.650,-0.220
3769,-0.770,-0.260
3770,-1.080,-0.230
3771,-0.880,-0.230
3772,-0.910,-0.240
3773,-1.120,-0.250
3774,-1.180,-0.250
3775,-1.180,-0.260
3776,-1.230,-0.320
3777,-1.250,-0.370
3778,-1.300,-0.380
3779,-1.390,-0.450
3780,-1.410,-0.470
3781,-1.370,-0.490
3782,-1.260,-0.550
3783,-1.200,-0.530
3784,-1.070,-0.550
3785,-0.810,-0.550
3786,-0.670,-0.500
3787,-0.460,-0.430
3788,-0.350,-0.430
3789,-0.170,-0.330
3790,-0.070,-0.280
3791,-0.050,-0.220
3792,0.050,-0.130
3793,0.040,-0.070
3794,0.170,-0.060
3795,0.010,0.040
3796,0.200,0.050
3797,0.110,0.030
3798,0.090,0.050
3799,0.040,0.050
3800,-0.030,0.070
3801,0.070,0.070
3802,0.090,0.110
3803,0.020,0.090
3804,0.070,0.070
3805,0.060,0.070
3806,0.090,0.060
3807,0.140,0.030
3808,0.080,0.140
3809,0.350,0.070
3810,0.280,0.190
3811,0.370,0.240
3812,0.400,0.240
3813,0.470,0.180
3814,0.290,0.110
3815,0.300,0.020
3816,0.230,0.040
3817,0.160,0.070
3818,0.070,-0.020
3819,0.020,0.030
3820,0.120,-0.010
3821,0.050,0.100
3822,0.060,0.090
3823,0.060,0.050
3824,-0.150,0.080
3825,0.080,0.040
3826,-0.070,0.130
3827,-0.020,0.020
3828,-0.130,0.040
3829,-0.030,0.240
3830,0.200,0.090
3831,0.240,0.090
3832,0.875,-0.430
3833,1.510,-0.750
3834,0.970,-0.115
3835,0.860,0.230
3836,0.220,0.380
3837,0.090,0.710
3838,0.180,1.080
3839,0.300,1.370
3840,0.170,1.640
3841,0.310,1.050
3842,0.120,0.410
3843,-0.150,0.040
3844,-0.320,-0.020
3845,-0.310,-0.040
3846,-0.380,-0.080
3847,-0.410,-0.040
3848,-0.440,-0.120
3849,-0.490,-0.110
3850,-0.420,-0.120
3851,-0.560,-0.230
3852,-0.770,-0.200
3853,-0.830,-0.250
3854,-1.080,-0.320
3855,-0.990,-0.330
3856,-1.210,-0.410
3857,-1.130,-0.510
3858,-1.250,-0.580
3859,-1.500,-0.620
3860,-1.100,-0.640
3861,-1.270,-0.630
3862,-1.080,-0.620
3863,-0.870,-0.610
3864,-0.510,-0.530
3865,-0.550,-0.470
3866,-0.330,-0.430
3867,-0.200,-0.320
3868,-0.040,-0.270
3869,0.100,-0.170
3870,0.230,-0.140
3871,0.100,-0.060
3872,0.340,-0.050
3873,0.250,-0.020
3874,0.370,0.030
3875,0.350,0.020
3876,0.290,0.030
3877,0.260,-0.010
3878,0.300,0.040
3879,0.400,0.070
3880,0.330,0.050
3881,0.310,0.030
3882,0.290,0.030
3883,0.300,0.050
3884,0.230,0.030
3885,0.290,0.070
3886,0.190,0.050
3887,0.300,0.070
3888,0.440,0.160
3889,0.410,0.230
3890,0.620,0.240
3891,0.400,0.170
3892,0.500,0.000
3893,0.230,-0.040
3894,0.240,0.000
3895,0.320,-0.030
3896,0.010,-0.070
3897,0.150,-0.040
3898,0.090,-0.090
3899,0.020,-0.060
3900,0.140,0.010
3901,-0.100,-0.050
3902,0.000,-0.030
3903,-0.060,-0.030
3904,-0.060,-0.070
3905,-0.040,-0.040
3906,0.070,0.010
3907,-0.050,0.180
3908,0.130,0.060
3909,0.550,-0.030
3910,1.150,-0.550
3911,1.785,-0.360
3912,1.145,0.275
3913,0.505,0.090
3914,-0.135,0.370
3915,-0.290,0.660
3916,-0.300,0.960
3917,-0.190,1.290
3918,0.090,1.350
3919,-0.100,0.780
3920,-0.330,0.140
3921,-0.730,-0.080
3922,-0.570,-0.140
3923,-0.790,-0.190
3924,-0.720,-0.180
3925,-0.910,-0.220
3926,-0.820,-0.240
3927,-1.010,-0.260
3928,-0.970,-0.280
3929,-1.130,-0.260
3930,-1.110,-0.330
3931,-1.280,-0.360
3932,-1.270,-0.350
3933,-1.360,-0.420
3934,-1.450,-0.470
3935,-1.390,-0.500
3936,-1.550,-0.470
3937,-1.310,-0.510
3938,-1.380,-0.580
3939,-1.210,-0.510
3940,-1.110,-0.530
3941,-0.770,-0.540
3942,-0.760,-0.470
3943,-0.470,-0.390
3944,-0.410,-0.330
3945,-0.010,-0.260
3946,-0.060,-0.210
3947,0.010,-0.150
3948,0.230,-0.150
3949,0.110,-0.090
3950,0.100,-0.080
3951,0.120,0.050
3952,0.160,-0.010
3953,0.080,0.010
3954,0.090,0.050
3955,-0.020,0.060
3956,0.070,0.050
3957,-0.030,0.050
3958,-0.020,0.130
3959,0.140,0.050
3960,0.020,0.080
3961,-0.020,0.040
3962,0.010,0.070
3963,0.260,0.100
3964,0.310,0.180
3965,0.380,0.210
3966,0.440,0.260
3967,0.540,0.170
3968,0.540,0.180
3969,0.440,0.100
3970,0.450,0.020
3971,0.410,0.050
3972,0.200,0.070
3973,0.260,0.040
3974,0.230,0.020
3975,0.180,0.060
3976,0.230,0.000
3977,0.170,0.040
3978,0.060,0.060
3979,0.140,0.050
3980,0.030,0.030
3981,0.060,0.100
3982,0.200,0.080
3983,0.130,0.140
3984,0.190,0.270
3985,0.250,0.190
3986,0.700,-0.030
3987,1.170,-0.510
3988,1.680,-0.220
3989,1.250,0.415
3990,0.610,0.210
3991,-0.030,0.550
3992,-0.250,0.780
3993,-0.140,1.070
3994,-0.290,1.470
3995,-0.180,1.400
3996,-0.100,0.760
3997,-0.320,0.120
3998,-0.670,-0.050
3999,-0.660,-0.090
4000,-0.800,-0.080
4001,-0.690,-0.130
4002,-0.790,-0.120
4003,-0.770,-0.130
4004,-0.870,-0.140
4005,-0.820,-0.120
4006,-0.830,-0.210
4007,-0.970,-0.190
4008,-1.040,-0.200
4009,-1.150,-0.310
4010,-1.140,-0.390
4011,-1.300,-0.380
4012,-1.340,-0.460
4013,-1.390,-0.560
4014,-1.250,-0.570
4015,-1.320,-0.590
4016,-1.170,-0.620
4017,-1.040,-0.600
4018,-0.820,-0.540
4019,-0.680,-0.550
4020,-0.590,-0.440
4021,-0.430,-0.360
4022,-0.270,-0.310
4023,-0.140,-0.260
4024,-0.130,-0.130
4025,0.080,-0.170
4026,0.000,0.020
4027,0.080,0.030
4028,-0.010,0.050
4029,0.240,0.040
4030,-0.120,0.120
4031,0.120,0.020
4032,-0.230,0.070
4033,-0.180,0.130
4034,0.000,0.050
4035,-0.100,0.150
4036,-0.050,0.160
4037,-0.040,0.170
4038,0.010,0.230
4039,0.120,0.240
4040,0.150,0.350
4041,0.370,0.420
4042,0.370,0.420
4043,0.500,0.340
4044,0.490,0.180
4045,0.360,0.170
4046,0.360,0.090
4047,0.070,0.180
4048,0.070,0.080
4049,-0.110,0.020
4050,-0.330,0.130
4051,-0.070,0.050
4052,-0.210,0.080
4053,-0.330,0.110
4054,-0.240,0.100
4055,-0.180,0.100
4056,-0.260,0.110
4057,-0.180,0.080
4058,-0.220,0.060
4059,-0.170,0.210
4060,-0.040,0.130
4061,0.250,-0.010
4062,0.840,-0.510
4063,1.430,-0.740
4064,0.790,-0.105
4065,0.290,0.210
4066,-0.350,0.480
4067,-0.530,0.820
4068,-0.490,1.130
4069,-0.380,1.510
4070,-0.490,1.700
4071,-0.530,1.120
4072,-0.760,0.480
4073,-0.860,-0.040
4074,-0.930,-0.060
4075,-0.860,-0.060
4076,-1.010,-0.060
4077,-0.900,-0.150
4078,-0.970,-0.040
4079,-0.890,-0.150
4080,-1.080,-0.120
4081,-1.050,-0.190
4082,-1.130,-0.210
4083,-1.350,-0.230
4084,-1.280,-0.230
4085,-1.460,-0.310
4086,-1.420,-0.370
4087,-1.350,-0.350
4088,-1.510,-0.400
4089,-1.400,-0.410
4090,-1.180,-0.390
4091,-1.180,-0.570
4092,-1.190,-0.470
4093,-0.950,-0.510
4094,-0.740,-0.460
4095,-0.450,-0.400
4096,-0.490,-0.280
4097,-0.350,-0.330
4098,-0.030,-0.260
4099,-0.100,-0.160
4100,0.030,-0.160
4101,0.120,-0.070
4102,0.040,-0.030
4103,-0.040,-0.040
4104,0.090,-0.030
4105,0.120,0.090
4106,0.230,0.030
4107,0.110,0.080
4108,0.230,0.030
4109,0.130,0.030
4110,0.160,0.030
4111,0.230,0.090
4112,0.330,0.050
4113,0.170,0.080
4114,0.510,0.140
4115,0.490,0.210
4116,0.550,0.320
4117,0.650,0.190
4118,0.750,0.210
4119,0.630,0.110
4120,0.630,-0.040
4121,0.720,-0.080
4122,0.420,-0.050
4123,0.510,-0.060
4124,0.170,-0.140
4125,0.180,-0.100
4126,0.190,-0.150
4127,0.230,-0.120
4128,0.070,-0.020
4129,0.240,-0.070
4130,0.100,-0.140
4131,0.090,-0.030
4132,0.140,-0.090
4133,0.110,-0.100
4134,0.200,0.070
4135,0.360,0.050
4136,0.600,-0.050
4137,1.200,-0.470
4138,1.830,-0.660
4139,1.450,-0.025
4140,0.830,0.020
4141,0.190,0.300
4142,-0.010,0.620
4143,0.010,0.900
4144,-0.030,1.300
4145,0.030,1.380
4146,0.090,0.800
4147,-0.110,0.160
4148,-0.510,-0.150
4149,-0.310,-0.200
4150,-0.600,-0.200
4151,-0.650,-0.220
4152,-0.580,-0.230
4153,-0.560,-0.240
4154,-0.730,-0.270
4155,-0.970,-0.240
4156,-0.670,-0.300
4157,-1.120,-0.320
4158,-1.060,-0.280
4159,-0.910,-0.400
4160,-1.020,-0.390
4161,-1.230,-0.460
4162,-1.430,-0.430
4163,-1.000,-0.560
4164,-1.180,-0.480
4165,-1.220,-0.580
4166,-0.970,-0.570
4167,-1.000,-0.520
4168,-0.700,-0.520
4169,-0.540,-0.500
4170,-0.320,-0.350
4171,-0.260,-0.300
4172,-0.140,-0.290
4173,0.030,-0.160
4174,0.090,-0.120
4175,0.070,-0.040
4176,0.250,-0.020
4177,0.140,0.010
4178,0.140,-0.020
4179,0.060,0.040
4180,0.120,0.010
4181,0.040,0.050
4182,-0.020,0.030
4183,0.110,0.010
4184,-0.040,0.030
4185,-0.050,0.030
4186,0.040,0.010
4187,-0.020,0.030
4188,0.040,0.080
4189,0.160,0.130
4190,0.120,0.190
4191,0.300,0.280
4192,0.290,0.260
4193,0.470,0.210
4194,0.450,0.110
4195,0.460,0.010
4196,0.250,0.010
4197,0.180,0.060
4198,0.100,0.020
4199,-0.010,0.030
4200,0.000,0.060
4201,0.060,0.060
4202,0.040,0.060
4203,-0.090,0.110
4204,-0.020,0.060
4205,-0.140,0.070
4206,-0.150,0.040
4207,-0.150,0.090
4208,0.000,0.090
4209,-0.100,0.180
4210,0.020,0.160
4211,0.170,0.130
4212,0.805,-0.330
4213,1.440,-0.550
4214,1.170,0.085
4215,0.980,0.220
4216,0.340,0.390
4217,-0.300,0.670
4218,-0.220,0.960
4219,0.000,1.200
4220,-0.310,1.450
4221,-0.210,1.110
4222,-0.210,0.470
4223,-0.560,-0.010
4224,-0.780,-0.080
4225,-0.770,-0.090
4226,-0.830,-0.100
4227,-0.760,-0.140
4228,-0.900,-0.120
4229,-0.860,-0.170
4230,-1.080,-0.120
4231,-0.870,-0.210
4232,-1.010,-0.180
4233,-1.020,-0.270
4234,-1.170,-0.320
4235,-1.200,-0.380
4236,-1.280,-0.410
4237,-1.330,-0.510
4238,-1.300,-0.560
4239,-1.320,-0.560
4240,-1.110,-0.640
4241,-1.040,-0.610
4242,-0.820,-0.550
4243,-0.370,-0.530
4244,-0.390,-0.460
4245,-0.020,-0.360
4246,0.070,-0.270
4247,0.210,-0.230
4248,0.320,-0.100
4249,0.410,-0.080
4250,0.420,-0.020
4251,0.450,0.070
4252,0.460,0.080
4253,0.440,0.140
4254,0.420,0.100
4255,0.340,0.130
4256,0.330,0.150
4257,0.310,0.150
4258,0.270,0.110
4259,0.230,0.130
4260,0.240,0.140
4261,0.280,0.160
4262,0.340,0.110
4263,0.260,0.230
4264,0.500,0.290
4265,0.640,0.350
4266,0.640,0.400
4267,0.800,0.330
4268,0.830,0.260
4269,0.910,0.130
4270,0.890,0.100
4271,0.760,0.040
4272,0.610,0.070
4273,0.660,0.020
4274,0.800,-0.160
4275,0.800,-0.770
4276,0.780,-1.070
4277,0.990,-0.970
4278,0.450,-1.340
4279,-0.190,-1.980
4280,-0.830,-2.140
4281,-1.470,-1.760
4282,-2.110,-1.430
4283,-2.630,-1.180
4284,-2.680,-0.860
4285,-2.080,-0.550
4286,-1.445,-0.370
4287,-0.810,-0.200
4288,-0.470,0.030
4289,-0.130,0.130
4290,-0.160,0.280
4291,-0.090,0.340
4292,0.030,0.350
4293,0.110,0.350
4294,-0.160,0.400
4295,-0.040,0.390
4296,0.020,0.500
4297,0.100,0.540
4298,0.180,0.570
4299,0.050,0.610
4300,0.030,0.680
4301,0.270,0.750
4302,0.330,0.790
4303,0.590,0.840
4304,0.550,0.840
4305,0.770,0.810
4306,0.980,0.770
4307,0.910,0.710
4308,1.030,0.690
4309,1.010,0.600
4310,1.040,0.560
4311,0.900,0.460
4312,0.930,0.390
4313,0.860,0.350
4314,0.530,0.310
4315,0.700,0.270
4316,0.570,0.270
4317,0.440,0.270
4318,0.340,0.170
4319,0.290,0.170
4320,0.290,0.160
4321,0.250,0.150
4322,0.300,0.130
4323,0.270,0.160
4324,0.230,0.140
4325,0.190,0.150
4326,0.310,0.190
4327,0.270,0.110
4328,0.350,0.100
4329,0.290,0.180
4330,0.460,0.120
4331,0.020,0.130
4332,0.470,0.130
4333,0.190,0.090
4334,0.300,0.080
4335,0.310,0.130
4336,0.230,0.130
4337,0.130,0.050
4338,0.390,0.150
4339,0.410,0.230
4340,0.350,0.330
4341,0.600,0.280
4342,0.480,0.210
4343,0.580,0.020
4344,0.580,-0.020
4345,0.470,0.030
4346,0.340,-0.030
4347,0.370,-0.070
4348,0.070,-0.070
4349,0.350,-0.060
4350,0.200,-0.010
4351,0.360,-0.040
4352,0.150,-0.010
4353,0.170,-0.040
4354,0.050,-0.030
4355,0.190,0.010
4356,0.260,-0.050
4357,-0.080,-0.060
4358,0.010,0.010
4359,0.250,0.080
4360,0.650,-0.110
4361,1.060,-0.600
4362,1.695,-0.600
4363,1.130,0.035
4364,0.670,-0.050
4365,0.030,0.260
4366,-0.240,0.570
4367,-0.050,0.900
4368,-0.220,1.320
4369,-0.150,1.380
4370,0.150,0.740
4371,-0.130,0.100
4372,-0.380,-0.140
4373,-0.330,-0.130
4374,-0.440,-0.170
4375,-0.430,-0.220
4376,-0.550,-0.200
4377,-0.490,-0.190
4378,-0.600,-0.210
4379,-0.540,-0.250
4380,-0.670,-0.230
4381,-0.750,-0.260
4382,-0.850,-0.330
4383,-0.870,-0.320
4384,-0.920,-0.370
4385,-1.010,-0.410
4386,-1.020,-0.430
4387,-0.990,-0.540
4388,-1.040,-0.540
4389,-1.100,-0.550
4390,-0.890,-0.640
4391,-0.800,-0.610
4392,-0.570,-0.590
4393,-0.330,-0.530
4394,-0.140,-0.530
4395,-0.010,-0.410
4396,0.170,-0.370
4397,0.280,-0.300
4398,0.480,-0.300
4399,0.370,-0.230
4400,0.600,-0.160
4401,0.500,-0.150
4402,0.560,-0.110
4403,0.540,-0.110
4404,0.670,-0.040
4405,0.510,-0.070
4406,0.570,-0.090
4407,0.580,0.000
4408,0.460,-0.030
4409,0.520,-0.060
4410,0.430,0.000
4411,0.470,-0.040
4412,0.470,-0.010
4413,0.410,-0.010
4414,0.300,-0.040
4415,0.270,-0.090
4416,0.430,-0.040
4417,0.450,-0.140
4418,0.600,-0.150
4419,0.510,-0.080
4420,0.490,-0.120
4421,0.410,-0.110
4422,0.330,-0.060
4423,0.965,-0.070
4424,0.680,-0.100
4425,0.330,-0.140
4426,-0.310,-0.470
4427,-0.950,-1.110
4428,-1.590,-1.750
4429,-2.230,-2.390
4430,-2.870,-2.900
4431,-3.510,-2.265
4432,-3.730,-1.870
4433,-3.710,-1.550
4434,-3.800,-1.130
4435,-3.165,-0.860
4436,-2.530,-0.710
4437,-1.895,-0.430
4438,-1.260,0.050
4439,-0.625,0.260
4440,0.010,0.410
4441,0.590,0.410
4442,0.640,0.420
4443,0.710,0.460
4444,0.840,0.460
4445,0.940,0.480
4446,0.990,0.520
4447,1.190,0.560
4448,1.300,0.600
4449,1.480,0.700
4450,1.570,0.730
4451,1.730,0.860
4452,1.910,0.930
4453,2.020,0.960
4454,2.090,1.000
4455,2.160,0.990
4456,2.120,1.020
4457,2.060,0.920
4458,2.010,0.870
4459,1.950,0.760
4460,1.780,0.690
4461,1.710,0.620
4462,1.510,0.530
4463,1.420,0.460
4464,1.210,0.370
4465,1.080,0.280
4466,0.880,0.220
4467,0.860,0.220
4468,0.840,0.150
4469,0.630,0.140
4470,0.670,0.150
4471,0.590,0.140
4472,0.530,0.130
4473,0.540,0.140
4474,0.470,0.180
4475,0.590,0.180
4476,0.490,0.170
4477,0.520,0.190
4478,0.530,0.180
4479,0.430,0.180
4480,0.550,0.200
4481,0.460,0.250
4482,0.510,0.190
4483,0.390,0.220
4484,0.480,0.260
4485,0.370,0.230
4486,0.430,0.270
4487,0.500,0.220
4488,0.380,0.360
4489,0.400,0.330
4490,0.540,0.210
4491,0.640,0.180
4492,0.570,0.020
4493,0.310,0.070
4494,0.320,0.080
4495,0.370,0.070
4496,0.360,0.090
4497,0.350,0.100
4498,0.340,0.070
4499,0.410,0.090
4500,0.340,0.300
4501,0.600,0.190
4502,0.760,0.000
4503,1.260,-0.550
4504,1.860,-0.590
4505,1.220,0.045
4506,0.700,0.200
4507,0.060,0.500
4508,0.020,0.820
4509,0.170,1.140
4510,0.170,1.550
4511,-0.020,1.640
4512,-0.050,1.060
4513,-0.050,0.420
4514,-0.170,-0.050
4515,-0.340,-0.040
4516,-0.300,-0.090
4517,-0.370,-0.110
4518,-0.340,-0.170
4519,-0.380,-0.170
4520,-0.570,-0.190
4521,-0.520,-0.200
4522,-0.750,-0.230
4523,-0.810,-0.270
4524,-0.910,-0.280
4525,-1.140,-0.460
4526,-1.180,-0.480
4527,-1.240,-0.550
4528,-1.330,-0.630
4529,-1.290,-0.630
4530,-1.030,-0.670
4531,-1.130,-0.670
4532,-0.910,-0.670
4533,-0.810,-0.680
4534,-0.490,-0.610
4535,-0.150,-0.600
4536,-0.160,-0.430
4537,0.080,-0.390
4538,0.210,-0.340
4539,0.370,-0.220
4540,0.330,-0.150
4541,0.510,-0.150
4542,0.410,-0.030
4543,0.560,0.000
4544,0.380,0.030
4545,0.560,0.010
4546,0.370,0.040
4547,0.430,0.040
4548,0.340,0.070
4549,0.230,0.020
4550,0.450,0.090
4551,0.350,0.070
4552,0.320,0.080
4553,0.320,0.060
4554,0.490,0.100
4555,0.320,0.110
4556,0.620,0.060
4557,0.370,0.100
4558,0.540,0.120
4559,0.650,0.100
4560,0.490,0.080
4561,0.510,0.060
4562,0.560,0.040
4563,0.590,0.080
4564,0.640,0.170
4565,0.780,0.110
4566,0.880,-0.260
4567,1.030,-0.510
4568,1.170,-0.470
4569,0.610,-0.900
4570,-0.030,-1.540
4571,-0.670,-1.540
4572,-1.310,-1.400
4573,-1.950,-1.240
4574,-2.590,-1.050
4575,-2.650,-0.640
4576,-2.015,-0.340
4577,-1.380,-0.220
4578,-0.745,0.030
4579,-0.400,0.080
4580,-0.120,0.140
4581,-0.260,0.240
4582,-0.080,0.240
4583,-0.100,0.300
4584,-0.080,0.300
4585,-0.220,0.310
4586,0.080,0.330
4587,-0.270,0.400
4588,0.000,0.440
4589,0.150,0.500
4590,0.140,0.550
4591,0.380,0.620
4592,0.350,0.580
4593,0.590,0.690
4594,0.700,0.660
4595,0.880,0.700
4596,0.980,0.670
4597,1.200,0.650
4598,1.190,0.590
4599,1.200,0.560
4600,1.260,0.500
4601,1.240,0.430
4602,1.190,0.400
4603,1.090,0.310
4604,0.980,0.280
4605,1.000,0.230
4606,0.880,0.190
4607,0.770,0.200
4608,0.780,0.200
4609,0.750,0.130
4610,0.520,0.130
4611,0.740,0.150
4612,0.410,0.140
4613,0.680,0.170
4614,0.560,0.150
4615,0.550,0.110
4616,0.450,0.090
4617,0.510,0.100
4618,0.490,0.140
4619,0.440,0.120
4620,0.500,0.180
4621,0.600,0.090
4622,0.390,0.170
4623,0.520,0.100
4624,0.380,0.100
4625,0.510,0.080
4626,0.320,0.090
4627,0.330,0.100
4628,0.430,0.010
4629,0.360,0.040
4630,0.310,0.100
4631,0.410,0.020
4632,0.190,0.040
4633,0.270,0.010
4634,0.230,0.050
4635,0.180,0.070
4636,0.250,0.060
4637,0.280,0.050
4638,0.250,0.100
4639,0.330,0.150
4640,0.390,0.210
4641,0.480,0.310
4642,0.570,0.260
4643,0.420,0.240
4644,0.550,0.100
4645,0.520,0.030
4646,0.450,0.000
4647,0.250,0.040
4648,0.260,0.010
4649,0.130,0.010
4650,0.270,0.070
4651,0.140,0.010
4652,0.180,0.050
4653,0.220,0.210
4654,0.290,0.070
4655,0.750,-0.080
4656,1.360,-0.480
4657,1.960,-0.240
4658,1.460,0.395
4659,0.820,0.120
4660,0.180,0.490
4661,-0.020,0.810
4662,0.140,1.050
4663,0.000,1.450
4664,-0.030,1.420
4665,0.180,0.830
4666,-0.100,0.190
4667,-0.510,-0.010
4668,-0.500,-0.060
4669,-0.630,-0.040
4670,-0.510,-0.100
4671,-0.650,-0.130
4672,-0.780,-0.160
4673,-0.780,-0.190
4674,-0.920,-0.150
4675,-0.970,-0.220
4676,-0.930,-0.310
4677,-1.260,-0.370
4678,-1.350,-0.320
4679,-1.350,-0.490
4680,-1.510,-0.490
4681,-1.500,-0.540
4682,-1.490,-0.550
4683,-1.550,-0.550
4684,-1.380,-0.610
4685,-1.190,-0.640
4686,-1.080,-0.560
4687,-0.930,-0.580
4688,-0.700,-0.430
4689,-0.320,-0.440
4690,-0.370,-0.330
4691,-0.120,-0.280
4692,0.020,-0.170
4693,0.170,-0.130
4694,0.170,-0.020
4695,0.280,0.070
4696,0.230,0.100
4697,0.300,0.120
4698,0.210,0.170
4699,-0.040,0.210
4700,0.060,0.110
4701,0.150,0.160
4702,0.230,0.090
4703,0.160,0.070
4704,-0.170,0.100
4705,0.060,0.150
4706,0.000,0.200
4707,0.100,0.200
4708,0.110,0.110
4709,0.090,0.150
4710,0.140,0.190
4711,0.200,0.100
4712,0.550,-0.150
4713,1.030,-0.560
4714,1.440,-0.040
4715,1.250,0.595
4716,0.610,0.460
4717,-0.030,0.410
4718,-0.670,0.300
4719,-1.310,-0.080
4720,-0.790,-0.070
4721,-0.870,-0.080
4722,-0.890,-0.100
4723,-0.910,-0.150
4724,-0.960,-0.100
4725,-0.990,-0.070
4726,-0.950,-0.070
4727,-1.030,-0.090
4728,-1.060,-0.060
4729,-1.070,-0.060
4730,-1.160,-0.100
4731,-1.260,-0.100
4732,-1.280,-0.130
4733,-1.370,-0.200
4734,-1.500,-0.150
4735,-1.430,-0.220
4736,-1.500,-0.240
4737,-1.440,-0.210
4738,-1.330,-0.220
4739,-1.140,-0.190
4740,-1.050,-0.140
4741,-0.740,-0.130
4742,-0.470,-0.070
4743,-0.390,-0.030
4744,-0.220,-0.010
4745,-0.180,0.050
4746,-0.060,0.050
4747,0.010,0.140
4748,0.090,0.100
4749,-0.070,0.140
4750,-0.040,0.110
4751,-0.070,0.090
4752,-0.060,0.140
4753,-0.080,0.190
4754,-0.030,0.140
4755,-0.260,0.240
4756,-0.080,0.220
4757,-0.190,0.220
4758,-0.170,0.320
4759,0.100,0.160
4760,0.140,0.090
4761,0.190,0.070
4762,0.070,0.070
4763,-0.110,-0.010
4764,-0.090,0.040
4765,-0.120,0.050
4766,0.070,0.060
4767,-0.010,0.070
4768,-0.020,0.200
4769,0.380,0.150
4770,0.310,0.040
4771,0.940,-0.490
4772,1.575,-0.760
4773,1.090,-0.125
4774,0.720,0.200
4775,0.080,0.430
4776,-0.500,0.800
4777,-0.160,1.120
4778,-0.120,1.480
4779,-0.510,1.810
4780,-0.530,1.400
4781,-0.340,0.760
4782,-0.340,0.120
4783,-0.730,-0.240
4784,-0.890,-0.190
4785,-0.530,-0.230
4786,-0.850,-0.230
4787,-0.850,-0.230
4788,-0.870,-0.270
4789,-0.870,-0.240
4790,-0.920,-0.260
4791,-1.040,-0.320
4792,-1.150,-0.360
4793,-1.180,-0.400
4794,-1.120,-0.400
4795,-0.980,-0.480
4796,-1.060,-0.630
4797,-1.150,-0.520
4798,-0.910,-0.620
4799,-0.990,-0.660
4800,-0.670,-0.660
4801,-0.570,-0.670
4802,-0.230,-0.650
4803,-0.140,-0.570
4804,-0.050,-0.470
4805,0.200,-0.460
4806,0.160,-0.350
4807,0.290,-0.330
4808,0.270,-0.260
4809,0.570,-0.130
4810,0.240,-0.090
4811,0.490,-0.020
4812,0.410,-0.030
4813,0.410,0.050
4814,0.010,0.010
4815,0.380,-0.050
4816,0.250,-0.090
4817,0.450,-0.130
4818,0.210,-0.070
4819,0.030,-0.130
4820,0.200,-0.050
4821,0.230,-0.010
4822,0.300,-0.090
4823,0.310,-0.060
4824,0.370,-0.120
4825,0.460,0.070
4826,0.430,-0.060
4827,0.810,-0.190
4828,1.445,-0.670
4829,1.640,-0.060
4830,1.540,0.420
4831,0.900,0.150
4832,0.260,0.520
4833,-0.150,0.820
4834,-0.060,1.100
4835,-0.220,1.430
4836,-0.070,1.200
4837,-0.210,0.580
4838,-0.170,-0.060
4839,-0.650,-0.130
4840,-0.600,-0.090
4841,-0.600,-0.180
4842,-0.720,-0.170
4843,-0.860,-0.180
4844,-0.720,-0.230
4845,-0.800,-0.250
4846,-1.000,-0.340
4847,-1.190,-0.320
4848,-1.190,-0.400
4849,-1.300,-0.440
4850,-1.420,-0.480
4851,-1.400,-0.520
4852,-1.450,-0.580
4853,-1.450,-0.630
4854,-1.300,-0.670
4855,-1.310,-0.740
4856,-1.180,-0.730
4857,-0.920,-0.660
4858,-0.770,-0.630
4859,-0.630,-0.590
4860,-0.490,-0.390
4861,-0.220,-0.370
4862,-0.270,-0.330
4863,-0.030,-0.240
4864,-0.060,-0.220
4865,-0.040,-0.160
4866,0.060,-0.110
4867,0.040,-0.080
4868,0.130,-0.060
4869,0.210,0.000
4870,0.020,-0.030
4871,0.210,-0.010
4872,0.250,0.000
4873,0.120,0.040
4874,0.300,-0.010
4875,0.240,0.020
4876,0.280,0.040
4877,0.320,0.070
4878,0.390,0.010
4879,0.320,0.090
4880,0.270,0.060
4881,0.180,0.140
4882,0.370,-0.010
4883,0.180,-0.140
4884,0.170,-0.090
4885,0.140,-0.110
4886,0.040,-0.070
4887,0.160,-0.130
4888,0.070,-0.070
4889,0.120,0.010
4890,0.230,0.040
4891,0.240,-0.020
4892,0.875,-0.340
4893,1.510,-0.690
4894,1.790,-0.055
4895,1.660,0.300
4896,1.020,0.200
4897,0.380,0.490
4898,0.140,0.770
4899,0.080,1.110
4900,-0.060,1.540
4901,0.090,1.310
4902,0.100,0.670
4903,0.000,0.030
4904,-0.310,-0.140
4905,-0.260,-0.120
4906,-0.290,-0.200
4907,-0.340,-0.210
4908,-0.380,-0.110
4909,-0.040,-0.260
4910,-0.500,-0.140
4911,-0.240,-0.240
4912,-0.460,-0.280
4913,-0.630,-0.310
4914,-0.650,-0.330
4915,-0.810,-0.350
4916,-0.740,-0.430
4917,-0.870,-0.460
4918,-0.830,-0.480
4919,-0.870,-0.510
4920,-0.710,-0.500
4921,-0.620,-0.520
4922,-0.540,-0.560
4923,-0.370,-0.530
4924,-0.340,-0.370
4925,0.030,-0.420
4926,0.080,-0.290
4927,0.270,-0.230
4928,0.320,-0.190
4929,0.360,-0.110
4930,0.420,-0.090
4931,0.450,-0.010
4932,0.580,0.020
4933,0.510,0.070
4934,0.460,0.100
4935,0.540,0.100
4936,0.400,0.130
4937,0.460,0.130
4938,0.460,0.160
4939,0.530,0.230
4940,0.550,0.210
4941,0.550,0.170
4942,0.360,0.250
4943,0.470,0.300
4944,0.530,0.140
4945,0.620,0.090
4946,0.720,0.030
4947,0.750,-0.030
4948,0.440,0.000
4949,0.490,-0.050
4950,0.420,0.070
4951,0.480,0.010
4952,0.400,0.050
4953,0.360,0.130
4954,0.430,0.150
4955,0.570,-0.080
4956,1.080,-0.500
4957,1.715,-0.510
4958,1.150,0.125
4959,0.540,0.260
4960,-0.100,0.640
4961,-0.290,0.900
4962,-0.410,1.250
4963,-0.360,1.660
4964,-0.520,1.760
4965,-0.490,1.140
4966,-0.290,0.500
4967,-0.280,-0.050
4968,-0.560,-0.010
4969,-0.490,-0.030
4970,-0.500,-0.060
4971,-0.510,-0.020
4972,-0.390,-0.020
4973,-0.580,-0.040
4974,-0.680,-0.080
4975,-0.580,-0.040
4976,-0.810,-0.170
4977,-0.960,-0.220
4978,-1.050,-0.280
4979,-1.110,-0.360
4980,-0.990,-0.420
4981,-1.150,-0.470
4982,-1.140,-0.590
4983,-1.140,-0.580
4984,-0.900,-0.650
4985,-0.860,-0.700
4986,-0.600,-0.620
4987,-0.560,-0.540
4988,-0.230,-0.560
4989,-0.210,-0.480
4990,-0.140,-0.320
4991,0.140,-0.350
4992,0.100,-0.230
4993,-0.060,-0.190
4994,0.180,-0.200
4995,0.130,-0.070
4996,0.170,-0.090
4997,0.140,-0.090
4998,0.240,-0.050
4999,0.180,-0.020
5000,0.260,0.060
5001,0.340,0.010
5002,0.310,0.110
5003,0.370,0.120
5004,0.350,0.170
5005,0.360,0.130
5006,0.530,0.000
5007,0.720,0.020
5008,0.560,-0.020
5009,0.490,0.030
5010,0.650,0.010
5011,0.400,0.020
5012,0.510,-0.010
5013,0.610,0.070
5014,0.510,0.070
5015,0.500,0.080
5016,0.500,-0.010
5017,1.040,-0.410
5018,1.675,-0.580
5019,1.620,0.055
5020,1.460,0.150
5021,0.820,0.230
5022,0.180,0.630
5023,-0.110,0.910
5024,0.120,1.200
5025,-0.190,1.390
5026,0.180,0.900
5027,0.000,0.260
5028,-0.130,-0.220
5029,-0.400,-0.190
5030,-0.190,-0.210
5031,-0.460,-0.250
5032,-0.420,-0.230
5033,-0.580,-0.280
5034,-0.360,-0.280
5035,-0.520,-0.290
5036,-0.640,-0.320
5037,-0.680,-0.390
5038,-0.750,-0.420
5039,-0.810,-0.480
5040,-0.730,-0.520
5041,-0.950,-0.590
5042,-0.790,-0.700
5043,-0.760,-0.650
5044,-0.570,-0.630
5045,-0.300,-0.680
5046,-0.170,-0.650
5047,-0.060,-0.580
5048,0.100,-0.520
5049,0.290,-0.450
5050,0.370,-0.390
5051,0.450,-0.320
5052,0.490,-0.250
5053,0.550,-0.230
5054,0.520,-0.160
5055,0.620,-0.070
5056,0.450,-0.070
5057,0.590,-0.070
5058,0.390,-0.010
5059,0.490,0.020
5060,0.390,0.020
5061,0.470,0.100
5062,0.470,0.100
5063,0.510,0.120
5064,0.490,0.150
5065,0.440,0.170
5066,0.490,0.100
5067,0.670,0.010
5068,0.800,-0.020
5069,0.600,-0.010
5070,0.690,0.010
5071,0.600,-0.050
5072,0.600,-0.040
5073,0.690,0.000
5074,0.620,0.000
5075,0.510,0.060
5076,0.660,0.080
5077,0.510,0.000
5078,1.110,-0.390
5079,1.745,-0.610
5080,1.720,0.025
5081,1.580,0.210
5082,0.940,0.350
5083,0.300,0.750
5084,-0.040,1.010
5085,-0.120,1.360
5086,-0.440,1.660
5087,-0.230,1.220
5088,-0.130,0.580
5089,-0.140,-0.060
5090,-0.230,-0.200
5091,-0.440,-0.170
5092,-0.500,-0.170
5093,-0.460,-0.230
5094,-0.580,-0.230
5095,-0.630,-0.260
5096,-0.840,-0.240
5097,-0.910,-0.260
5098,-0.940,-0.310
5099,-1.100,-0.340
5100,-1.160,-0.330
5101,-1.220,-0.390
5102,-1.210,-0.390
5103,-1.070,-0.390
5104,-1.070,-0.480
5105,-1.010,-0.480
5106,-0.890,-0.440
5107,-0.700,-0.490
5108,-0.570,-0.420
5109,-0.350,-0.440
5110,-0.200,-0.360
5111,-0.190,-0.310
5112,0.080,-0.260
5113,0.080,-0.210
5114,0.110,-0.160
5115,0.180,-0.090
5116,0.190,0.030
5117,0.330,0.020
5118,0.320,0.050
5119,0.260,0.140
5120,0.270,0.150
5121,0.160,0.080
5122,0.300,0.020
5123,0.330,0.020
5124,0.310,0.020
5125,0.080,0.010
5126,0.180,-0.040
5127,0.180,0.060
5128,0.270,0.050
5129,0.230,0.030
5130,0.320,0.060
5131,0.330,0.090
5132,0.370,0.140
5133,0.250,0.040
5134,0.690,-0.180
5135,1.180,-0.690
5136,1.550,-0.070
5137,1.120,0.565
5138,0.480,0.330
5139,-0.130,0.740
5140,0.080,0.980
5141,-0.170,1.340
5142,-0.150,1.720
5143,-0.180,1.560
5144,-0.080,0.920
5145,-0.060,0.280
5146,-0.520,-0.050
5147,-0.420,-0.040
5148,-0.530,-0.070
5149,-0.620,-0.120
5150,-0.780,-0.130
5151,-0.830,-0.120
5152,-0.740,-0.100
5153,-0.790,-0.230
5154,-1.020,-0.270
5155,-1.220,-0.330
5156,-1.040,-0.400
5157,-1.260,-0.450
5158,-1.090,-0.440
5159,-0.920,-0.590
5160,-0.990,-0.570
5161,-0.810,-0.560
5162,-0.570,-0.640
5163,-0.400,-0.570
5164,-0.240,-0.550
5165,0.050,-0.480
5166,0.220,-0.390
5167,0.330,-0.330
5168,0.390,-0.260
5169,0.550,-0.250
5170,0.570,-0.150
5171,0.590,-0.140
5172,0.630,-0.020
5173,0.620,0.010
5174,0.580,0.040
5175,0.620,0.090
5176,0.590,0.140
5177,0.660,0.160
5178,0.470,0.140
5179,0.390,0.260
5180,0.440,0.190
5181,0.650,0.110
5182,0.720,0.020
5183,0.660,-0.050
5184,0.360,0.020
5185,0.520,-0.010
5186,0.360,0.020
5187,0.660,0.060
5188,0.530,-0.010
5189,0.480,0.040
5190,0.610,0.110
5191,0.500,0.110
5192,0.700,-0.050
5193,1.260,-0.450
5194,1.895,-0.560
5195,1.680,0.075
5196,1.530,0.150
5197,0.890,0.430
5198,0.250,0.780
5199,0.190,1.140
5200,0.440,1.500
5201,0.010,1.640
5202,0.180,1.020
5203,0.190,0.380
5204,0.020,-0.120
5205,0.020,-0.160
5206,-0.240,-0.170
5207,-0.120,-0.220
5208,-0.270,-0.200
5209,-0.460,-0.210
5210,-0.470,-0.270
5211,-0.480,-0.290
5212,-0.800,-0.340
5213,-0.840,-0.360
5214,-0.950,-0.480
5215,-1.220,-0.490
5216,-0.940,-0.550
5217,-1.060,-0.580
5218,-0.940,-0.590
5219,-0.820,-0.770
5220,-0.780,-0.570
5221,-0.570,-0.700
5222,-0.320,-0.660
5223,-0.140,-0.620
5224,0.020,-0.520
5225,0.140,-0.550
5226,0.120,-0.380
5227,0.340,-0.300
5228,0.380,-0.200
5229,0.440,-0.120
5230,0.570,-0.030
5231,0.490,0.040
5232,0.550,0.110
5233,0.470,0.150
5234,0.680,0.060
5235,0.690,0.060
5236,0.650,0.040
5237,0.570,0.000
5238,0.450,0.080
5239,0.560,0.030
5240,0.370,0.120
5241,0.610,0.030
5242,0.580,0.040
5243,0.540,-0.030
5244,0.570,0.010
5245,0.550,0.080
5246,0.500,-0.040
5247,0.760,-0.110
5248,1.230,-0.600
5249,1.840,-0.260
5250,1.590,0.375
5251,0.950,0.070
5252,0.310,0.480
5253,-0.170,0.770
5254,0.000,1.060
5255,-0.160,1.480
5256,-0.170,1.450
5257,-0.130,0.840
5258,-0.130,0.200
5259,-0.340,-0.220
5260,-0.380,-0.190
5261,-0.530,-0.240
5262,-0.530,-0.240
5263,-0.590,-0.220
5264,-0.570,-0.280
5265,-0.730,-0.270
5266,-0.760,-0.310
5267,-0.840,-0.350
5268,-1.010,-0.400
5269,-1.130,-0.380
5270,-1.040,-0.470
5271,-1.100,-0.490
5272,-1.090,-0.560
5273,-1.130,-0.580
5274,-0.960,-0.570
5275,-0.660,-0.630
5276,-0.600,-0.620
5277,-0.430,-0.570
5278,-0.310,-0.430
5279,-0.010,-0.420
5280,0.070,-0.350
5281,0.160,-0.310
5282,0.280,-0.240
5283,0.200,-0.130
5284,0.350,-0.080
5285,0.490,-0.070
5286,0.430,-0.010
5287,0.500,0.090
5288,0.630,0.070
5289,0.510,0.120
5290,0.680,0.180
5291,0.560,0.120
5292,0.580,0.090
5293,0.770,0.010
5294,0.900,-0.050
5295,0.810,-0.030
5296,0.680,-0.020
5297,0.700,-0.070
5298,0.600,0.030
5299,0.880,0.000
5300,0.880,0.080
5301,0.960,-0.010
5302,0.880,0.090
5303,0.930,0.140
5304,0.980,0.020
5305,1.480,-0.340
5306,2.115,-0.590
5307,1.920,0.045
5308,1.780,0.330
5309,1.140,0.400
5310,0.500,0.780
5311,0.260,1.120
5312,0.320,1.390
5313,-0.020,1.720
5314,0.020,1.300
5315,0.060,0.660
5316,-0.120,0.020
5317,-0.320,-0.150
5318,-0.320,-0.160
5319,-0.420,-0.150
5320,-0.530,-0.190
5321,-0.690,-0.200
5322,-0.720,-0.170
5323,-0.720,-0.220
5324,-0.940,-0.250
5325,-0.980,-0.250
5326,-1.160,-0.290
5327,-1.180,-0.350
5328,-1.220,-0.430
5329,-1.230,-0.480
5330,-1.150,-0.500
5331,-1.030,-0.550
5332,-1.100,-0.510
5333,-0.700,-0.540
5334,-0.500,-0.570
5335,-0.390,-0.460
5336,-0.130,-0.430
5337,0.050,-0.370
5338,0.180,-0.310
5339,0.240,-0.240
5340,0.280,-0.210
5341,0.290,-0.110
5342,0.440,-0.060
5343,0.360,0.030
5344,0.450,0.120
5345,0.380,0.090
5346,0.410,0.130
5347,0.170,0.280
5348,0.340,0.250
5349,0.360,0.160
5350,0.460,0.130
5351,0.560,0.070
5352,0.480,0.050
5353,0.250,0.100
5354,0.430,0.060
5355,0.360,0.120
5356,0.410,0.080
5357,0.410,-0.010
5358,0.110,0.100
5359,0.460,0.110
5360,0.430,0.190
5361,0.360,0.110
5362,0.840,-0.290
5363,1.380,-0.640
5364,1.050,-0.005
5365,1.100,0.360
5366,0.460,0.480
5367,-0.170,0.770
5368,-0.180,1.060
5369,-0.180,1.400
5370,-0.430,1.690
5371,-0.450,1.330
5372,-0.330,0.690
5373,-0.610,0.050
5374,-0.590,-0.040
5375,-0.540,-0.110
5376,-0.720,-0.100
5377,-0.820,-0.160
5378,-0.840,-0.210
5379,-0.990,-0.200
5380,-0.990,-0.260
5381,-1.130,-0.240
5382,-0.950,-0.310
5383,-1.320,-0.370
5384,-1.320,-0.490
5385,-1.370,-0.510
5386,-1.280,-0.560
5387,-1.310,-0.630
5388,-1.220,-0.630
5389,-1.070,-0.650
5390,-0.950,-0.670
5391,-0.750,-0.620
5392,-0.530,-0.660
5393,-0.470,-0.560
5394,-0.100,-0.470
5395,-0.110,-0.410
5396,-0.030,-0.350
5397,0.120,-0.260
5398,0.160,-0.210
5399,0.140,-0.110
5400,0.210,-0.010
5401,0.270,0.000
5402,0.300,0.030
5403,0.230,0.050
5404,0.310,0.040
5405,0.340,0.050
5406,0.280,0.110
5407,0.290,0.140
5408,0.410,0.120
5409,0.420,0.200
5410,0.450,0.170
5411,0.520,0.140
5412,0.350,0.250
5413,0.640,0.200
5414,0.640,0.050
5415,0.660,-0.010
5416,0.540,-0.110
5417,0.450,-0.140
5418,0.730,-0.110
5419,0.450,-0.450
5420,0.860,-0.840
5421,0.660,-0.860
5422,0.860,-0.800
5423,0.220,-1.440
5424,-0.420,-2.030
5425,-0.640,-2.190
5426,-0.600,-1.860
5427,-0.360,-1.225
5428,-0.640,-0.590
5429,-0.480,-0.150
5430,-0.310,0.010
5431,-0.320,0.010
5432,0.010,0.090
5433,0.020,0.080
5434,-0.220,0.080
5435,0.190,0.090
5436,-0.210,0.180
5437,0.100,0.160
5438,-0.080,0.150
5439,-0.030,0.240
5440,-0.110,0.260
5441,-0.010,0.270
5442,0.010,0.380
5443,-0.150,0.350
5444,-0.070,0.460
5445,0.200,0.430
5446,0.110,0.450
5447,0.240,0.440
5448,0.170,0.450
5449,0.400,0.380
5450,0.350,0.350
5451,0.610,0.360
5452,0.590,0.220
5453,0.430,0.190
5454,0.780,0.140
5455,0.700,0.070
5456,0.640,0.030
5457,0.700,0.000
5458,0.690,0.050
5459,0.800,0.020
5460,0.670,-0.020
5461,0.760,0.030
5462,0.750,0.010
5463,0.790,0.000
5464,0.650,-0.010
5465,0.740,0.020
5466,0.640,0.120
5467,0.740,0.090
5468,0.870,0.090
5469,0.690,0.150
5470,0.660,0.190
5471,0.690,0.150
5472,0.600,0.070
5473,0.800,0.030
5474,0.690,-0.070
5475,0.620,-0.090
5476,0.340,-0.130
5477,0.440,-0.140
5478,0.390,-0.020
5479,0.450,-0.110
5480,0.290,-0.090
5481,0.430,-0.080
5482,0.470,0.000
5483,0.440,-0.030
5484,0.550,-0.070
5485,1.185,-0.490
5486,1.820,-0.490
5487,1.510,0.145
5488,1.090,0.010
5489,0.450,0.320
5490,-0.170,0.630
5491,0.200,0.910
5492,0.030,1.260
5493,-0.140,1.430
5494,0.110,0.880
5495,-0.060,0.240
5496,-0.430,-0.040
5497,-0.530,-0.060
5498,-0.560,-0.110
5499,-0.570,-0.100
5500,-0.690,-0.080
5501,-0.680,-0.170
5502,-0.860,-0.130
5503,-0.900,-0.190
5504,-1.050,-0.270
5505,-1.300,-0.280
5506,-1.390,-0.430
5507,-1.720,-0.440
5508,-1.550,-0.530
5509,-1.710,-0.590
5510,-1.530,-0.630
5511,-1.490,-0.720
5512,-1.440,-0.680
5513,-1.140,-0.720
5514,-0.900,-0.640
5515,-0.680,-0.650
5516,-0.540,-0.630
5517,-0.330,-0.530
5518,-0.210,-0.370
5519,0.090,-0.450
5520,-0.120,-0.340
5521,0.200,-0.280
5522,0.120,-0.220
5523,0.210,-0.100
5524,0.180,-0.070
5525,0.210,-0.030
5526,0.290,-0.010
5527,0.200,0.050
5528,0.250,0.060
5529,0.250,0.130
5530,0.350,0.150
5531,0.240,0.130
5532,0.310,0.180
5533,0.320,0.180
5534,0.310,0.230
5535,0.320,0.140
5536,0.460,0.040
5537,0.540,0.010
5538,0.610,-0.020
5539,0.320,-0.010
5540,0.330,-0.030
5541,0.290,0.010
5542,0.330,0.020
5543,0.290,0.050
5544,0.260,0.100
5545,0.360,0.200
5546,0.300,0.120
5547,0.580,-0.060
5548,1.120,-0.500
5549,1.755,-0.210
5550,1.300,0.425
5551,0.660,0.220
5552,0.020,0.530
5553,-0.190,0.840
5554,-0.080,1.150
5555,-0.110,1.550
5556,-0.160,1.550
5557,-0.020,0.910
5558,-0.120,0.270
5559,-0.510,0.070
5560,-0.270,-0.050
5561,-0.650,-0.060
5562,-0.600,-0.050
5563,-0.590,-0.060
5564,-0.700,-0.100
5565,-0.750,-0.110
5566,-0.840,-0.140
5567,-0.890,-0.210
5568,-0.960,-0.190
5569,-1.090,-0.280
5570,-1.080,-0.320
5571,-1.160,-0.350
5572,-1.100,-0.430
5573,-1.130,-0.550
5574,-1.000,-0.560
5575,-1.010,-0.460
5576,-0.650,-0.520
5577,-0.540,-0.580
5578,-0.500,-0.490
5579,-0.270,-0.410
5580,-0.080,-0.370
5581,0.040,-0.280
5582,0.070,-0.240
5583,0.130,-0.200
5584,0.110,-0.090
5585,0.250,-0.080
5586,0.230,0.050
5587,0.350,0.110
5588,0.430,0.090
5589,0.360,0.190
5590,0.360,0.220
5591,0.490,0.160
5592,0.270,0.320
5593,0.360,0.300
5594,0.480,0.230
5595,0.600,0.200
5596,0.660,0.130
5597,0.490,0.120
5598,0.480,0.130
5599,0.370,0.130
5600,0.470,0.140
5601,0.530,0.160
5602,0.520,0.180
5603,0.520,0.120
5604,0.480,0.210
5605,0.470,0.170
5606,0.220,0.090
5607,0.810,-0.280
5608,1.445,-0.690
5609,1.290,-0.055
5610,1.140,0.440
5611,0.500,0.610
5612,-0.140,0.940
5613,-0.280,1.340
5614,-0.120,1.710
5615,-0.360,1.980
5616,-0.410,1.380
5617,-0.380,0.740
5618,-0.280,0.100
5619,-0.550,-0.040
5620,-0.660,-0.080
5621,-0.610,-0.100
5622,-0.650,-0.150
5623,-0.900,-0.120
5624,-0.900,-0.160
5625,-1.070,-0.130
5626,-1.160,-0.180
5627,-1.250,-0.210
5628,-1.330,-0.190
5629,-1.330,-0.260
5630,-1.340,-0.250
5631,-1.280,-0.310
5632,-1.130,-0.310
5633,-1.080,-0.440
5634,-1.040,-0.380
5635,-0.760,-0.460
5636,-0.410,-0.500
5637,-0.460,-0.490
5638,-0.320,-0.460
5639,-0.080,-0.410
5640,-0.080,-0.380
5641,0.050,-0.360
5642,0.050,-0.250
5643,0.170,-0.220
5644,-0.060,-0.150
5645,0.170,-0.150
5646,0.120,-0.030
5647,0.050,-0.030
5648,0.250,-0.020
5649,0.090,0.000
5650,0.180,0.060
5651,0.140,0.010
5652,0.220,0.120
5653,0.290,0.080
5654,0.250,0.060
5655,0.260,0.110
5656,0.300,0.170
5657,0.250,0.160
5658,0.560,0.060
5659,0.460,0.020
5660,0.590,-0.040
5661,0.370,-0.050
5662,0.440,0.000
5663,0.280,-0.030
5664,0.400,0.060
5665,0.390,0.020
5666,0.410,0.020
5667,0.330,0.170
5668,0.370,0.050
5669,0.420,-0.050
5670,1.055,-0.430
5671,1.690,-0.490
5672,1.430,0.145
5673,0.920,0.050
5674,0.280,0.390
5675,-0.360,0.730
5676,-0.190,1.010
5677,-0.130,1.380
5678,-0.310,1.420
5679,-0.200,0.840
5680,-0.260,0.200
5681,-0.450,-0.160
5682,-0.610,-0.150
5683,-0.750,-0.180
5684,-0.910,-0.270
5685,-0.790,-0.240
5686,-1.030,-0.260
5687,-0.790,-0.330
5688,-1.220,-0.280
5689,-1.220,-0.340
5690,-1.230,-0.380
5691,-1.220,-0.420
5692,-1.360,-0.460
5693,-1.310,-0.500
5694,-1.350,-0.520
5695,-1.120,-0.560
5696,-1.030,-0.650
5697,-0.960,-0.530
5698,-0.680,-0.660
5699,-0.490,-0.640
5700,-0.380,-0.530
5701,0.020,-0.490
5702,0.060,-0.440
5703,0.180,-0.450
5704,0.090,-0.310
5705,0.490,-0.270
5706,0.350,-0.170
5707,0.480,-0.120
5708,0.490,-0.120
5709,0.520,-0.020
5710,0.540,-0.010
5711,0.440,0.000
5712,0.500,0.020
5713,0.480,0.030
5714,0.400,0.010
5715,0.450,0.060
5716,0.490,0.090
5717,0.500,0.040
5718,0.480,0.080
5719,0.550,0.030
5720,0.510,0.130
5721,0.530,0.120
5722,0.630,-0.040
5723,0.650,-0.090
5724,0.650,-0.020
5725,0.790,-0.080
5726,0.450,-0.050
5727,0.510,-0.060
5728,0.430,-0.050
5729,0.510,-0.020
5730,0.520,-0.040
5731,0.460,0.080
5732,0.440,-0.010
5733,0.610,-0.020
5734,1.230,-0.460
5735,1.865,-0.510
5736,1.670,0.125
5737,1.170,0.140
5738,0.530,0.480
5739,-0.110,0.770
5740,-0.240,1.130
5741,-0.220,1.480
5742,-0.360,1.620
5743,-0.300,0.980
5744,-0.340,0.340
5745,-0.490,-0.100
5746,-0.570,-0.220
5747,-0.760,-0.160
5748,-0.740,-0.190
5749,-0.800,-0.180
5750,-0.830,-0.220
5751,-0.890,-0.170
5752,-0.980,-0.240
5753,-1.270,-0.260
5754,-1.250,-0.250
5755,-1.540,-0.300
5756,-1.530,-0.370
5757,-1.680,-0.360
5758,-1.680,-0.420
5759,-1.510,-0.450
5760,-1.480,-0.410
5761,-1.250,-0.470
5762,-1.100,-0.410
5763,-0.810,-0.320
5764,-0.400,-0.390
5765,-0.360,-0.310
5766,-0.150,-0.180
5767,0.050,-0.190
5768,0.070,-0.170
5769,0.200,-0.130
5770,0.160,-0.110
5771,0.170,-0.070
5772,0.050,-0.020
5773,0.240,0.020
5774,0.170,0.060
5775,0.110,0.090
5776,0.130,0.090
5777,0.180,0.080
5778,0.130,0.180
5779,0.190,0.180
5780,0.260,0.210
5781,0.220,0.230
5782,0.190,0.360
5783,0.240,0.210
5784,0.420,0.150
5785,0.400,0.090
5786,0.380,0.010
5787,0.220,0.030
5788,0.180,-0.020
5789,0.280,0.020
5790,0.200,0.050
5791,0.140,0.050
5792,0.250,0.060
5793,0.220,0.110
5794,0.250,0.140
5795,0.180,0.040
5796,0.760,-0.270
5797,1.395,-0.600
5798,1.360,0.035
5799,1.250,0.370
5800,0.610,0.480
5801,-0.030,0.770
5802,-0.170,1.100
5803,-0.050,1.380
5804,-0.320,1.640
5805,-0.280,1.290
5806,-0.250,0.650
5807,-0.460,0.010
5808,-0.710,-0.040
5809,-0.670,-0.060
5810,-0.820,-0.100
5811,-0.860,-0.090
5812,-1.070,-0.120
5813,-1.050,-0.080
5814,-1.070,-0.140
5815,-1.320,-0.160
5816,-1.350,-0.180
5817,-1.420,-0.230
5818,-1.640,-0.270
5819,-1.570,-0.370
5820,-1.510,-0.410
5821,-1.510,-0.410
5822,-1.310,-0.450
5823,-1.160,-0.500
5824,-0.990,-0.500
5825,-0.740,-0.470
5826,-0.440,-0.450
5827,-0.210,-0.390
5828,-0.010,-0.360
5829,0.120,-0.270
5830,0.230,-0.240
5831,0.340,-0.160
5832,0.400,-0.050
5833,0.530,0.020
5834,0.560,0.060
5835,0.610,0.140
5836,0.580,0.140
5837,0.610,0.250
5838,0.700,0.220
5839,0.660,0.220
5840,0.630,0.230
5841,0.640,0.230
5842,0.570,0.220
5843,0.610,0.200
5844,0.640,0.150
5845,0.360,0.220
5846,0.590,0.300
5847,0.640,0.240
5848,0.610,0.230
5849,0.540,0.250
5850,0.400,0.280
5851,0.420,0.190
5852,0.560,0.070
5853,0.590,0.090
5854,0.610,0.080
5855,0.450,0.070
5856,0.450,0.090
5857,0.510,0.160
5858,0.660,0.090
5859,0.600,0.150
5860,0.580,0.190
5861,0.670,0.250
5862,0.720,0.120
5863,1.140,-0.340
5864,1.775,-0.720
5865,1.250,-0.085
5866,1.050,0.370
5867,0.410,0.560
5868,-0.050,0.920
5869,0.050,1.240
5870,-0.100,1.620
5871,-0.220,1.930
5872,-0.140,1.370
5873,-0.200,0.730
5874,-0.110,0.090
5875,-0.620,-0.080
5876,-0.430,-0.100
5877,-0.660,-0.070
5878,-0.740,-0.110
5879,-0.750,-0.090
5880,-0.830,-0.090
5881,-0.920,-0.180
5882,-0.980,-0.160
5883,-1.100,-0.150
5884,-1.160,-0.270
5885,-1.440,-0.330
5886,-1.270,-0.290
5887,-1.300,-0.400
5888,-1.290,-0.440
5889,-1.210,-0.460
5890,-1.150,-0.510
5891,-1.060,-0.550
5892,-0.800,-0.490
5893,-0.550,-0.480
5894,-0.230,-0.400
5895,-0.190,-0.320
5896,0.020,-0.280
5897,0.220,-0.210
5898,0.410,-0.090
5899,0.430,-0.070
5900,0.450,-0.050
5901,0.470,0.070
5902,0.440,0.030
5903,0.570,0.030
5904,0.440,0.040
5905,0.520,0.090
5906,0.540,0.100
5907,0.590,0.130
5908,0.460,0.120
5909,0.450,0.130
5910,0.490,0.120
5911,0.360,0.180
5912,0.210,0.160
5913,0.580,0.090
5914,0.660,0.050
5915,0.590,0.000
5916,0.560,-0.070
5917,0.410,-0.020
5918,0.380,-0.050
5919,0.390,0.050
5920,0.370,0.040
5921,0.470,0.050
5922,0.460,0.060
5923,0.410,0.090
5924,0.310,0.060
5925,0.910,-0.180
5926,1.360,-0.550
5927,1.790,0.085
5928,1.710,0.410
5929,1.070,0.210
5930,0.430,0.610
5931,-0.140,0.880
5932,-0.120,1.210
5933,-0.140,1.490
5934,-0.070,1.300
5935,0.120,0.660
5936,-0.080,0.020
5937,-0.490,-0.090
5938,-0.580,-0.150
5939,-0.510,-0.220
5940,-0.660,-0.140
5941,-0.690,-0.180
5942,-0.780,-0.120
5943,-0.920,-0.200
5944,-1.000,-0.200
5945,-1.160,-0.270
5946,-1.390,-0.300
5947,-1.510,-0.320
5948,-1.450,-0.420
5949,-1.390,-0.450
5950,-1.520,-0.460
5951,-1.330,-0.590
5952,-1.280,-0.590
5953,-0.890,-0.580
5954,-0.820,-0.640
5955,-0.540,-0.580
5956,-0.320,-0.580
5957,-0.270,-0.530
5958,0.010,-0.430
5959,0.190,-0.400
5960,0.180,-0.310
5961,0.410,-0.240
5962,0.470,-0.190
5963,0.530,-0.140
5964,0.590,-0.070
5965,0.680,-0.010
5966,0.600,-0.030
5967,0.640,0.030
5968,0.650,0.080
5969,0.770,0.130
5970,0.750,0.120
5971,0.680,0.160
5972,0.690,0.150
5973,0.440,0.280
5974,0.660,0.180
5975,0.840,0.080
5976,0.790,0.060
5977,0.800,0.030
5978,0.580,0.030
5979,0.660,-0.030
5980,0.490,0.000
5981,0.650,0.020
5982,0.470,0.050
5983,0.570,0.050
5984,0.610,0.140
5985,0.610,0.180
5986,0.630,0.050
5987,1.180,-0.300
5988,1.815,-0.410
5989,1.950,0.225
5990,1.770,0.250
5991,1.130,0.440
5992,0.490,0.740
5993,0.170,1.100
5994,0.380,1.430
5995,-0.020,1.690
5996,0.120,1.110
5997,0.020,0.470
5998,0.050,-0.070
5999,-0.320,-0.100
6000,-0.310,-0.090
6001,-0.380,-0.120
6002,-0.400,-0.160
6003,-0.600,-0.160
6004,-0.740,-0.190
6005,-0.760,-0.240
6006,-1.030,-0.250
6007,-1.100,-0.320
6008,-1.280,-0.420
6009,-1.480,-0.380
6010,-1.470,-0.490
6011,-1.470,-0.560
6012,-1.390,-0.550
6013,-1.330,-0.540
6014,-1.030,-0.650
6015,-1.020,-0.550
6016,-0.570,-0.550
6017,-0.350,-0.500
6018,-0.260,-0.420
6019,0.010,-0.340
6020,0.120,-0.290
6021,0.190,-0.180
6022,0.280,-0.110
6023,0.250,-0.030
6024,0.390,0.040
6025,0.310,0.110
6026,0.370,0.160
6027,0.370,0.180
6028,0.400,0.320
6029,0.600,0.290
6030,0.450,0.390
6031,0.480,0.360
6032,0.500,0.330
6033,0.450,0.360
6034,0.280,0.410
6035,0.390,0.300
6036,0.620,0.250
6037,0.640,0.140
6038,0.590,0.100
6039,0.360,0.110
6040,0.440,0.110
6041,0.360,0.190
6042,0.490,0.180
6043,0.500,0.200
6044,0.470,0.210
6045,0.500,0.230
6046,0.460,0.270
6047,0.510,0.140
6048,1.010,-0.250
6049,1.640,-0.520
6050,1.380,0.115
6051,1.410,0.400
6052,0.770,0.540
6053,0.130,0.860
6054,-0.190,1.180
6055,-0.050,1.580
6056,-0.370,1.800
6057,-0.440,1.320
6058,-0.380,0.680
6059,-0.390,0.040
6060,-0.630,-0.010
6061,-0.630,-0.040
6062,-0.820,-0.020
6063,-0.770,-0.020
6064,-0.760,-0.050
6065,-0.990,-0.040
6066,-0.980,-0.070
6067,-1.170,-0.120
6068,-1.270,-0.200
6069,-1.500,-0.160
6070,-1.420,-0.250
6071,-1.570,-0.350
6072,-1.580,-0.310
6073,-1.410,-0.380
6074,-1.320,-0.420
6075,-1.100,-0.480
6076,-1.140,-0.430
6077,-0.780,-0.450
6078,-0.430,-0.440
6079,-0.290,-0.370
6080,0.000,-0.370
6081,-0.040,-0.300
6082,0.160,-0.230
6083,0.260,-0.210
6084,0.240,-0.040
6085,0.400,-0.030
6086,0.440,0.010
6087,0.390,0.050
6088,0.520,0.100
6089,0.460,0.210
6090,0.580,0.200
6091,0.550,0.160
6092,0.520,0.170
6093,0.490,0.170
6094,0.680,0.200
6095,0.690,0.160
6096,0.700,0.200
6097,0.740,0.180
6098,0.840,0.170
6099,0.620,0.180
6100,0.730,0.270
6101,0.720,0.160
6102,0.830,0.040
6103,0.750,0.060
6104,0.860,-0.010
6105,0.440,0.040
6106,0.510,-0.010
6107,0.440,0.050
6108,0.500,0.060
6109,0.480,0.060
6110,0.560,0.090
6111,0.450,0.190
6112,0.570,0.120
6113,1.000,-0.170
6114,1.635,-0.520
6115,2.060,0.115
6116,1.730,0.480
6117,1.090,0.300
6118,0.450,0.620
6119,0.010,0.960
6120,0.090,1.280
6121,-0.040,1.690
6122,0.050,1.430
6123,0.110,0.790
6124,0.060,0.150
6125,-0.250,-0.100
6126,-0.220,-0.030
6127,-0.360,-0.070
6128,-0.280,-0.130
6129,-0.510,-0.150
6130,-0.660,-0.170
6131,-0.560,-0.160
6132,-0.690,-0.260
6133,-1.180,-0.210
6134,-1.070,-0.320
6135,-1.180,-0.410
6136,-1.220,-0.430
6137,-1.470,-0.520
6138,-0.990,-0.550
6139,-1.150,-0.560
6140,-1.020,-0.670
6141,-0.790,-0.580
6142,-0.530,-0.680
6143,-0.480,-0.620
6144,-0.160,-0.490
6145,0.120,-0.520
6146,0.280,-0.380
6147,0.240,-0.340
6148,0.430,-0.220
6149,0.340,-0.210
6150,0.500,-0.120
6151,0.460,-0.030
6152,0.500,0.020
6153,0.550,0.080
6154,0.520,0.090
6155,0.570,0.120
6156,0.530,0.110
6157,0.420,0.160
6158,0.480,0.130
6159,0.540,0.120
6160,0.440,0.130
6161,0.550,0.130
6162,0.550,0.100
6163,0.680,0.140
6164,0.680,0.110
6165,0.550,0.100
6166,0.690,0.060
6167,0.550,0.000
6168,0.630,0.050
6169,0.530,0.050
6170,0.560,-0.020
6171,0.590,0.050
6172,0.490,0.020
6173,0.470,0.020
6174,0.420,0.060
6175,0.300,0.120
6176,0.270,0.090
6177,0.430,-0.070
6178,0.410,-0.060
6179,0.520,-0.130
6180,0.290,-0.120
6181,0.120,-0.130
6182,0.270,-0.120
6183,0.190,-0.030
6184,0.320,-0.010
6185,0.280,0.020
6186,0.420,-0.010
6187,0.620,-0.080
6188,1.150,-0.500
6189,1.785,-0.480
6190,1.430,0.155
6191,0.790,0.020
6192,0.150,0.410
6193,-0.300,0.670
6194,-0.130,0.940
6195,-0.310,1.330
6196,-0.150,1.410
6197,-0.170,0.910
6198,-0.180,0.270
6199,-0.580,-0.080
6200,-0.640,-0.180
6201,-0.780,-0.140
6202,-0.880,-0.180
6203,-0.880,-0.200
6204,-1.100,-0.130
6205,-1.140,-0.190
6206,-1.250,-0.230
6207,-1.370,-0.230
6208,-1.500,-0.170
6209,-1.490,-0.300
6210,-1.730,-0.260
6211,-1.610,-0.410
6212,-1.810,-0.390
6213,-1.660,-0.500
6214,-1.690,-0.480
6215,-1.430,-0.540
6216,-1.320,-0.510
6217,-1.070,-0.530
6218,-0.890,-0.520
6219,-0.590,-0.490
6220,-0.400,-0.340
6221,-0.030,-0.330
6222,0.110,-0.250
6223,0.240,-0.180
6224,0.420,-0.150
6225,0.330,-0.100
6226,0.430,-0.010
6227,0.500,-0.010
6228,0.460,0.070
6229,0.560,0.060
6230,0.430,0.020
6231,0.550,0.080
6232,0.500,0.120
6233,0.480,0.070
6234,0.500,0.120
6235,0.450,0.080
6236,0.440,0.070
6237,0.400,0.060
6238,0.360,0.090
6239,0.530,0.080
6240,0.460,0.070
6241,0.480,0.080
6242,0.530,0.080
6243,0.390,0.090
6244,0.520,0.070
6245,0.510,0.060
6246,0.480,0.040
6247,0.430,0.090
6248,0.470,0.070
6249,0.440,0.110
6250,0.480,0.090
6251,0.550,0.090
6252,0.280,0.210
6253,0.440,0.200
6254,0.540,0.040
6255,0.670,0.000
6256,0.500,-0.010
6257,0.460,-0.120
6258,0.340,-0.060
6259,0.310,-0.050
6260,0.220,0.000
6261,0.480,0.000
6262,0.390,0.130
6263,0.380,0.090
6264,0.550,-0.030
6265,0.920,-0.460
6266,1.520,-0.790
6267,1.480,-0.155
6268,1.080,0.260
6269,0.440,0.310
6270,-0.200,0.660
6271,-0.360,1.010
6272,-0.290,1.330
6273,-0.590,1.660
6274,-0.580,1.210
6275,-0.440,0.570
6276,-0.550,-0.070
6277,-0.750,-0.190
6278,-0.690,-0.230
6279,-0.810,-0.210
6280,-0.870,-0.240
6281,-1.050,-0.290
6282,-1.080,-0.280
6283,-1.130,-0.300
6284,-1.440,-0.320
6285,-1.460,-0.370
6286,-1.670,-0.390
6287,-1.710,-0.390
6288,-1.800,-0.460
6289,-1.770,-0.460
6290,-1.720,-0.540
6291,-1.610,-0.500
6292,-1.480,-0.560
6293,-1.400,-0.540
6294,-1.070,-0.580
6295,-0.770,-0.620
6296,-0.640,-0.570
6297,-0.360,-0.530
6298,-0.220,-0.560
6299,-0.180,-0.480
6300,-0.140,-0.460
6301,-0.060,-0.380
6302,0.050,-0.400
6303,-0.030,-0.280
6304,0.170,-0.160
6305,0.210,-0.200
6306,0.130,-0.160
6307,-0.030,-0.110
6308,0.180,-0.150
6309,-0.180,-0.090
6310,0.010,-0.060
6311,0.020,-0.010
6312,0.110,-0.030
6313,0.060,-0.020
6314,0.020,-0.070
6315,-0.030,0.020
6316,0.030,0.020
6317,0.210,-0.150
6318,0.410,-0.200
6319,0.280,-0.220
6320,0.200,-0.320
6321,0.080,-0.180
6322,0.210,-0.180
6323,0.260,-0.170
6324,0.400,-0.200
6325,0.140,-0.040
6326,0.440,0.010
6327,0.460,-0.060
6328,0.570,-0.170
6329,1.205,-0.720
6330,1.790,-0.480
6331,1.150,0.155
6332,0.510,-0.080
6333,-0.130,0.370
6334,-0.310,0.610
6335,-0.200,0.980
6336,-0.200,1.310
6337,-0.350,1.320
6338,-0.270,0.730
6339,-0.270,0.090
6340,-0.430,-0.350
6341,-1.050,-0.310
6342,-0.680,-0.420
6343,-1.070,-0.350
6344,-1.080,-0.370
6345,-0.980,-0.460
6346,-1.010,-0.430
6347,-1.450,-0.430
6348,-1.430,-0.460
6349,-1.480,-0.520
6350,-1.580,-0.580
6351,-1.530,-0.610
6352,-1.490,-0.620
6353,-1.520,-0.720
6354,-1.640,-0.790
6355,-1.280,-0.750
6356,-1.380,-0.820
6357,-1.040,-0.810
6358,-0.700,-0.760
6359,-0.790,-0.710
6360,-0.180,-0.710
6361,-0.240,-0.630
6362,-0.070,-0.590
6363,-0.120,-0.410
6364,0.420,-0.380
6365,0.200,-0.340
6366,0.320,-0.200
6367,0.470,-0.230
6368,0.260,-0.250
6369,0.530,-0.140
6370,0.400,-0.150
6371,0.300,-0.100
6372,0.490,-0.110
6373,0.330,-0.070
6374,0.480,-0.100
6375,0.280,-0.090
6376,0.490,-0.060
6377,0.600,-0.090
6378,0.600,-0.060
6379,0.430,-0.070
6380,0.500,-0.060
6381,0.770,-0.050
6382,0.680,-0.040
6383,0.600,-0.090
6384,0.690,-0.070
6385,0.590,-0.050
6386,0.440,-0.070
6387,0.480,-0.060
6388,0.410,-0.050
6389,0.600,-0.060
6390,0.360,-0.040
6391,0.390,0.000
6392,0.400,-0.020
6393,0.260,-0.020
6394,0.460,0.060
6395,0.320,0.040
6396,0.250,0.110
6397,0.160,0.150
6398,0.360,-0.080
6399,0.370,-0.070
6400,0.420,-0.140
6401,0.170,-0.110
6402,0.140,-0.100
6403,0.100,-0.030
6404,0.180,-0.060
6405,0.240,0.030
6406,0.290,0.110
6407,0.430,-0.040
6408,0.740,-0.180
6409,1.375,-0.560
6410,1.690,-0.020
6411,1.390,0.270
6412,0.750,0.160
6413,0.110,0.490
6414,-0.170,0.890
6415,-0.060,1.130
6416,-0.410,1.520
6417,-0.230,1.260
6418,-0.370,0.620
6419,-0.190,-0.020
6420,-0.730,-0.150
6421,-0.680,-0.110
6422,-0.800,-0.170
6423,-0.770,-0.150
6424,-0.970,-0.190
6425,-0.990,-0.210
6426,-1.190,-0.240
6427,-1.340,-0.250
6428,-1.210,-0.250
6429,-1.390,-0.270
6430,-1.450,-0.310
6431,-1.600,-0.400
6432,-1.720,-0.430
6433,-1.640,-0.550
6434,-1.640,-0.560
6435,-1.620,-0.580
6436,-1.440,-0.590
6437,-1.190,-0.640
6438,-0.950,-0.570
6439,-0.690,-0.570
6440,-0.480,-0.520
6441,-0.160,-0.410
6442,0.050,-0.330
6443,0.100,-0.310
6444,0.190,-0.250
6445,0.280,-0.160
6446,0.300,-0.140
6447,0.260,-0.030
6448,0.350,-0.050
6449,0.280,0.050
6450,0.320,0.130
6451,0.340,0.170
6452,0.270,0.160
6453,0.330,0.210
6454,0.290,0.200
6455,0.200,0.150
6456,0.260,0.160
6457,0.260,0.180
6458,0.290,0.130
6459,0.070,0.200
6460,0.450,0.150
6461,0.290,0.120
6462,0.240,0.140
6463,0.340,0.120
6464,0.350,0.130
6465,0.230,0.150
6466,0.490,0.100
6467,0.550,0.080
6468,0.100,-0.040
6469,-0.540,-0.270
6470,-1.180,-0.910
6471,-1.820,-1.550
6472,-2.460,-2.190
6473,-3.100,-2.830
6474,-3.740,-2.410
6475,-4.380,-2.120
6476,-4.540,-1.810
6477,-4.270,-1.240
6478,-3.635,-0.880
6479,-3.100,-0.640
6480,-2.480,-0.520
6481,-2.130,-0.230
6482,-1.495,-0.030
6483,-0.940,0.360
6484,-0.305,0.550
6485,0.280,0.530
6486,0.360,0.600
6487,0.510,0.640
6488,0.550,0.670
6489,0.700,0.750
6490,0.800,0.890
6491,1.020,1.020
6492,1.260,1.170
6493,1.420,1.220
6494,1.620,1.140
6495,1.670,1.100
6496,1.640,1.120
6497,1.780,1.140
6498,1.870,1.120
6499,1.820,1.120
6500,1.870,1.080
6501,1.740,1.020
6502,1.710,0.920
6503,1.590,0.820
6504,1.440,0.750
6505,1.280,0.680
6506,1.230,0.610
6507,1.040,0.500
6508,0.910,0.410
6509,0.850,0.370
6510,0.880,0.370
6511,0.730,0.300
6512,0.630,0.270
6513,0.670,0.280
6514,0.670,0.270
6515,0.530,0.210
6516,0.740,0.300
6517,0.730,0.260
6518,0.690,0.280
6519,0.780,0.300
6520,0.760,0.280
6521,0.910,0.260
6522,0.690,0.230
6523,0.800,0.250
6524,0.720,0.210
6525,0.750,0.190
6526,0.530,0.250
6527,0.720,0.150
6528,0.800,0.220
6529,0.580,0.180
6530,0.570,0.170
6531,0.480,0.170
6532,0.560,0.200
6533,0.470,0.110
6534,0.530,0.140
6535,0.530,0.070
6536,0.060,0.030
6537,0.400,0.030
6538,0.250,0.100
6539,0.450,0.020
6540,0.090,0.060
6541,0.440,0.060
6542,0.350,0.050
6543,0.420,0.060
6544,0.350,0.030
6545,0.450,0.060
6546,0.330,0.030
6547,0.390,0.090
6548,0.390,0.060
6549,0.490,0.030
6550,0.430,0.060
6551,0.490,0.040
6552,0.350,0.030
6553,0.550,0.020
6554,0.430,0.030
6555,0.630,0.000
6556,0.300,0.020
6557,0.480,-0.020
6558,0.560,0.050
6559,0.610,0.050
6560,0.300,0.010
6561,0.400,0.000
6562,0.430,0.000
6563,0.310,-0.020
6564,0.380,0.070
6565,0.310,-0.010
6566,0.370,0.000
6567,0.160,0.010
6568,0.370,-0.010
6569,0.180,0.070
6570,0.420,-0.030
6571,0.340,0.050
6572,0.460,0.000
6573,0.200,-0.060
6574,0.240,-0.020
6575,0.110,0.000
6576,0.300,0.010
6577,0.280,0.010
6578,0.240,0.130
6579,0.380,0.150
6580,0.360,0.250
6581,0.440,0.250
6582,0.410,0.280
6583,0.330,0.200
6584,0.310,0.140
6585,0.310,0.170
6586,0.210,0.070
6587,0.190,0.170
6588,0.310,0.130
6589,0.410,-0.020
6590,1.000,-0.390
6591,1.635,-0.590
6592,0.995,0.045
6593,0.750,0.060
6594,0.110,0.370
6595,-0.290,0.640
6596,-0.250,0.950
6597,-0.440,1.400
6598,-0.380,1.410
6599,-0.250,0.770
6600,-0.460,0.130
6601,-0.930,-0.170
6602,-0.970,-0.170
6603,-1.050,-0.170
6604,-1.060,-0.220
6605,-1.230,-0.260
6606,-1.240,-0.230
6607,-1.340,-0.260
6608,-1.420,-0.310
6609,-1.520,-0.300
6610,-1.600,-0.330
6611,-1.670,-0.360
6612,-1.800,-0.370
6613,-1.880,-0.400
6614,-1.880,-0.420
6615,-1.910,-0.460
6616,-1.980,-0.450
6617,-1.730,-0.480
6618,-1.700,-0.460
6619,-1.540,-0.460
6620,-1.420,-0.440
6621,-1.130,-0.390
6622,-0.870,-0.380
6623,-0.580,-0.350
6624,-0.510,-0.260
6625,-0.240,-0.240
6626,-0.010,-0.190
6627,0.060,-0.180
6628,0.080,-0.080
6629,0.310,-0.050
6630,0.270,0.010
6631,0.310,0.060
6632,0.360,0.090
6633,0.240,0.130
6634,0.370,0.080
6635,0.280,0.160
6636,0.370,0.090
6637,0.250,0.090
6638,0.320,0.100
6639,0.360,0.040
6640,0.430,0.120
6641,0.680,0.050
6642,0.590,0.110
6643,0.670,-0.010
6644,0.600,0.010
6645,0.580,0.020
6646,0.730,-0.040
6647,0.790,0.000
6648,0.830,-0.440
6649,0.470,-1.080
6650,-0.170,-1.660
6651,-0.810,-2.140
6652,-1.450,-2.110
6653,-2.000,-1.980
6654,-2.640,-1.660
6655,-3.090,-1.420
6656,-3.280,-1.130
6657,-3.120,-0.740
6658,-2.485,-0.380
6659,-1.850,-0.250
6660,-1.215,0.060
6661,-0.580,0.170
6662,0.055,0.390
6663,0.330,0.560
6664,0.440,0.530
6665,0.290,0.560
6666,0.400,0.490
6667,0.310,0.430
6668,0.310,0.520
6669,0.320,0.620
6670,0.530,0.640
6671,0.740,0.710
6672,0.710,0.790
6673,0.970,0.870
6674,1.000,0.910
6675,1.140,0.950
6676,1.200,0.910
6677,1.270,0.950
6678,1.340,0.920
6679,1.400,0.830
6680,1.380,0.760
6681,1.330,0.740
6682,1.360,0.610
6683,1.200,0.580
6684,1.220,0.470
6685,1.070,0.450
6686,1.030,0.340
6687,0.900,0.380
6688,1.050,0.280
6689,0.820,0.260
6690,0.710,0.280
6691,0.710,0.210
6692,0.590,0.270
6693,0.560,0.220
6694,0.660,0.200
6695,0.380,0.170
6696,0.420,0.240
6697,0.490,0.130
6698,0.310,0.140
6699,0.390,0.160
6700,0.450,0.140
6701,0.400,0.140
6702,0.320,0.050
6703,0.360,0.080
6704,0.350,0.110
6705,0.400,0.040
6706,0.270,0.040
6707,0.220,0.040
6708,0.190,0.060
6709,0.260,0.040
6710,0.150,0.070
6711,0.320,0.080
6712,0.210,0.080
6713,0.170,0.080
6714,0.180,0.140
6715,0.250,0.130
6716,0.290,0.140
6717,0.250,0.070
6718,0.260,0.030
6719,0.240,0.090
6720,0.200,0.100
6721,0.280,0.010
6722,0.180,0.010
6723,0.240,-0.020
6724,0.230,-0.030
6725,0.050,-0.060
6726,0.390,-0.100
6727,0.030,-0.150
6728,0.120,-0.160
6729,0.130,-0.140
6730,0.110,-0.220
6731,0.130,-0.140
6732,0.010,-0.160
6733,0.020,-0.170
6734,0.190,-0.160
6735,0.130,-0.170
6736,0.080,-0.200
6737,0.130,-0.100
6738,-0.040,-0.140
6739,0.130,-0.130
6740,0.050,-0.170
6741,0.100,-0.120
6742,0.130,-0.120
6743,0.100,-0.070
6744,0.150,-0.080
6745,0.270,-0.010
6746,0.160,0.120
6747,0.360,0.130
6748,0.520,0.130
6749,0.520,0.040
6750,0.560,-0.130
6751,0.400,-0.130
6752,0.260,-0.130
6753,0.410,-0.180
6754,0.230,-0.180
6755,0.230,-0.110
6756,0.230,-0.200
6757,0.320,-0.130
6758,0.200,-0.160
6759,0.100,-0.130
6760,0.200,-0.100
6761,0.260,-0.080
6762,0.120,-0.150
6763,0.140,-0.030
6764,0.390,-0.010
6765,0.270,-0.060
6766,0.905,-0.520
6767,1.540,-0.800
6768,1.240,-0.165
6769,0.870,-0.120
6770,0.230,0.110
6771,-0.240,0.420
6772,-0.120,0.670
6773,-0.030,1.060
