'sample interval','ECG1','ECG2'
'0.004 sec','mV','mV'
0,-1.285,0.240
1,0.420,0.280
2,1.350,0.410
3,-0.470,0.470
4,-1.550,0.350
5,0.200,0.395
6,1.360,0.495
7,-0.275,0.485
8,-1.640,0.400
9,-0.135,0.390
10,1.470,0.505
11,0.290,0.540
12,-1.570,0.415
13,-0.620,0.355
14,1.270,0.395
15,0.550,0.470
16,-1.530,0.345
17,-1.130,0.205
18,0.915,0.250
19,0.675,0.310
20,-1.445,0.210
21,-1.305,0.055
22,0.765,0.060
23,0.715,0.140
24,-1.410,0.050
25,-1.450,-0.105
26,0.630,-0.105
27,0.605,-0.015
28,-1.465,-0.060
29,-1.440,-0.190
30,0.685,-0.130
31,0.760,-0.080
32,-1.375,-0.100
33,-1.530,-0.195
34,0.545,-0.170
35,0.715,-0.090
36,-1.315,-0.120
37,-1.605,-0.210
38,0.445,-0.160
39,1.015,-0.055
40,-0.910,-0.070
41,-1.765,-0.210
42,0.100,-0.180
43,1.190,-0.060
44,-0.480,-0.075
45,-1.885,-0.195
46,-0.375,-0.205
47,1.140,-0.110
48,-0.195,-0.025
49,-1.830,-0.150
50,-0.585,-0.195
51,1.140,-0.090
52,0.155,-0.035
53,-1.685,-0.125
54,-0.800,-0.180
55,1.065,-0.120
56,0.220,-0.030
57,-1.675,-0.130
58,-0.965,-0.210
59,1.010,-0.120
60,0.420,-0.055
61,-1.580,-0.060
62,-1.025,-0.160
63,0.945,-0.110
64,0.495,-0.030
65,-1.530,-0.090
66,-1.280,-0.160
67,0.785,-0.105
68,0.725,-0.020
69,-1.320,-0.105
70,-1.495,-0.210
71,0.570,-0.165
72,0.985,-0.060
73,-1.015,-0.075
74,-1.750,-0.210
75,0.155,-0.205
76,1.015,-0.070
77,-0.875,-0.055
78,-1.800,-0.200
79,0.005,-0.200
80,1.120,-0.090
81,-0.515,-0.070
82,-1.850,-0.240
83,-0.245,-0.200
84,1.165,-0.110
85,-0.235,-0.080
86,-1.795,-0.215
87,-0.455,-0.250
88,1.110,-0.150
89,-0.150,-0.070
90,-1.745,-0.145
91,-0.420,-0.250
92,1.130,-0.130
93,-0.130,-0.100
94,-1.760,-0.190
95,-0.525,-0.225
96,1.145,-0.125
97,-0.045,-0.095
98,-1.705,-0.210
99,-0.505,-0.200
100,1.210,-0.120
101,0.105,-0.070
102,-1.640,-0.170
103,-0.575,-0.145
104,1.235,0.015
105,0.245,0.120
106,-1.635,0.050
107,-0.750,0.040
108,1.260,0.110
109,0.705,0.115
110,-1.385,0.000
111,-0.990,-0.175
112,1.050,-0.115
113,0.840,-0.095
114,-1.290,-0.240
115,-1.420,-0.350
116,0.670,-0.310
117,0.880,-0.160
118,-1.200,-0.155
119,-1.500,-0.285
120,0.530,-0.270
121,0.845,-0.155
122,-1.225,-0.140
123,-1.655,-0.250
124,0.350,-0.255
125,0.820,-0.180
126,-1.185,-0.175
127,-1.710,-0.320
128,0.330,-0.300
129,0.875,-0.190
130,-1.090,-0.175
131,-1.690,-0.310
132,0.280,-0.305
133,0.885,-0.185
134,-1.045,-0.225
135,-1.750,-0.295
136,0.175,-0.280
137,1.020,-0.135
138,-0.870,0.050
139,-1.855,0.135
140,0.040,0.225
141,1.590,0.315
142,0.375,0.380
143,-0.855,0.540
144,0.720,0.110
145,2.395,-0.585
146,1.375,-1.195
147,-0.930,-1.590
148,-0.605,-1.960
149,0.845,-2.170
150,-0.265,-2.265
151,-2.320,-2.665
152,-1.430,-2.605
153,0.730,-1.840
154,0.275,-1.150
155,-1.625,-0.735
156,-1.000,-0.445
157,0.925,-0.120
158,0.315,0.035
159,-1.645,-0.045
160,-1.105,-0.110
161,0.885,-0.050
162,0.415,0.015
163,-1.620,-0.025
164,-1.345,-0.130
165,0.760,-0.045
166,0.755,0.035
167,-1.355,-0.010
168,-1.610,-0.095
169,0.435,-0.060
170,1.020,0.045
171,-0.930,0.050
172,-1.895,-0.105
173,-0.115,-0.055
174,1.180,0.065
175,-0.370,0.090
176,-1.910,-0.020
177,-0.550,-0.015
178,1.105,0.060
179,0.070,0.120
180,-1.770,0.050
181,-0.775,-0.020
182,1.090,0.130
183,0.375,0.200
184,-1.620,0.125
185,-0.960,0.025
186,1.005,0.145
187,0.520,0.235
188,-1.500,0.240
189,-1.005,0.145
190,1.025,0.220
191,0.725,0.370
192,-1.360,0.340
193,-1.195,0.285
194,0.940,0.340
195,1.060,0.460
196,-1.000,0.440
197,-1.275,0.395
198,0.745,0.440
199,1.290,0.555
200,-0.665,0.535
201,-1.435,0.460
202,0.465,0.515
203,1.475,0.610
204,-0.315,0.620
205,-1.530,0.525
206,0.085,0.520
207,1.495,0.605
208,0.020,0.620
209,-1.570,0.510
210,-0.300,0.435
211,1.350,0.500
212,0.240,0.530
213,-1.590,0.365
214,-0.590,0.265
215,1.165,0.310
216,0.145,0.345
217,-1.720,0.205
218,-0.865,0.080
219,1.030,0.095
220,0.270,0.135
221,-1.695,0.035
222,-1.020,-0.065
223,0.990,-0.025
224,0.505,0.035
225,-1.550,-0.070
226,-1.265,-0.165
227,0.810,-0.135
228,0.650,-0.035
229,-1.435,-0.110
230,-1.420,-0.200
231,0.675,-0.170
232,0.850,-0.040
233,-1.250,-0.085
234,-1.650,-0.235
235,0.420,-0.185
236,1.075,-0.080
237,-0.885,-0.050
238,-1.885,-0.215
239,-0.050,-0.180
240,1.215,-0.080
241,-0.345,-0.045
242,-1.830,-0.170
243,-0.290,-0.200
244,1.210,-0.070
245,-0.150,-0.025
246,-1.865,-0.125
247,-0.710,-0.200
248,1.115,-0.115
249,0.265,-0.025
250,-1.675,-0.100
251,-1.025,-0.200
252,1.020,-0.130
253,0.680,-0.040
254,-1.410,-0.090
255,-1.415,-0.215
256,0.680,-0.160
257,0.805,-0.030
258,-1.240,-0.065
259,-1.605,-0.180
260,0.405,-0.185
261,0.960,-0.065
262,-0.990,-0.065
263,-1.735,-0.215
264,0.145,-0.160
265,1.140,-0.065
266,-0.635,-0.065
267,-1.890,-0.200
268,-0.250,-0.215
269,1.200,-0.120
270,-0.120,-0.075
271,-1.835,-0.150
272,-0.710,-0.240
273,1.125,-0.140
274,0.295,-0.060
275,-1.685,-0.140
276,-1.180,-0.235
277,0.855,-0.175
278,0.645,-0.070
279,-1.440,-0.120
280,-1.475,-0.210
281,0.630,-0.195
282,1.010,-0.065
283,-1.015,-0.070
284,-1.580,-0.180
285,0.370,-0.205
286,0.985,-0.050
287,-0.970,-0.060
288,-1.700,-0.195
289,0.195,-0.195
290,1.020,-0.060
291,-0.805,-0.085
292,-1.710,-0.190
293,0.170,-0.165
294,1.190,-0.060
295,-0.565,-0.070
296,-1.675,-0.160
297,0.065,-0.170
298,1.285,-0.015
299,-0.320,0.070
300,-1.700,-0.025
301,-0.245,-0.020
302,1.360,0.100
303,0.205,0.215
304,-1.590,0.055
305,-0.670,-0.050
306,1.220,-0.035
307,0.550,-0.005
308,-1.520,-0.125
309,-1.190,-0.300
310,0.890,-0.305
311,0.860,-0.190
312,-1.230,-0.210
313,-1.395,-0.295
314,0.655,-0.275
315,0.905,-0.160
316,-1.210,-0.185
317,-1.635,-0.260
318,0.390,-0.235
319,0.785,-0.145
320,-1.220,-0.165
321,-1.595,-0.290
322,0.460,-0.245
323,0.950,-0.140
324,-1.055,-0.180
325,-1.645,-0.295
326,0.315,-0.285
327,0.945,-0.165
328,-0.985,-0.200
329,-1.720,-0.300
330,0.215,-0.270
331,1.095,-0.160
332,-0.770,-0.130
333,-1.920,-0.175
334,-0.255,0.020
335,1.185,0.355
336,-0.135,0.400
337,-1.445,0.220
338,0.125,0.360
339,2.145,0.570
340,1.605,0.000
341,-0.050,-0.845
342,0.665,-1.455
343,1.805,-1.700
344,0.360,-1.970
345,-1.945,-2.445
346,-1.585,-2.630
347,0.550,-2.480
348,-0.055,-2.105
349,-1.940,-1.675
350,-1.005,-1.045
351,1.040,-0.495
352,0.330,-0.135
353,-1.625,-0.065
354,-0.960,-0.100
355,0.940,-0.005
356,0.250,0.050
357,-1.700,-0.030
358,-1.155,-0.090
359,0.885,-0.045
360,0.490,0.055
361,-1.530,-0.010
362,-1.235,-0.095
363,0.825,-0.035
364,0.820,0.080
365,-1.295,0.040
366,-1.615,-0.100
367,0.420,0.005
368,1.030,0.105
369,-0.920,0.085
370,-1.705,-0.025
371,0.220,-0.020
372,1.155,0.090
373,-0.635,0.145
374,-1.790,0.000
375,-0.100,-0.005
376,1.120,0.105
377,-0.490,0.155
378,-1.760,0.055
379,-0.160,0.070
380,1.250,0.185
381,-0.155,0.205
382,-1.555,0.145
383,-0.110,0.130
384,1.265,0.275
385,-0.180,0.315
386,-1.645,0.230
387,-0.215,0.190
388,1.315,0.350
389,0.005,0.415
390,-1.555,0.340
391,-0.250,0.355
392,1.425,0.495
393,0.320,0.545
394,-1.430,0.435
395,-0.330,0.425
396,1.425,0.535
397,0.525,0.605
398,-1.360,0.510
399,-0.540,0.430
400,1.380,0.505
401,0.765,0.590
402,-1.315,0.550
403,-0.875,0.440
404,1.130,0.460
405,0.855,0.530
406,-1.255,0.450
407,-1.275,0.300
408,0.790,0.300
409,1.035,0.395
410,-1.030,0.335
411,-1.415,0.140
412,0.570,0.115
413,0.995,0.175
414,-1.045,0.105
415,-1.650,-0.030
416,0.280,-0.060
417,0.935,-0.005
418,-0.950,-0.020
419,-1.675,-0.170
420,0.230,-0.170
421,1.035,-0.070
422,-0.830,-0.105
423,-1.745,-0.240
424,0.130,-0.225
425,1.065,-0.125
426,-0.740,-0.105
427,-1.765,-0.255
428,0.015,-0.235
429,1.190,-0.165
430,-0.465,-0.115
431,-1.840,-0.240
432,-0.365,-0.250
433,1.185,-0.145
434,-0.070,-0.065
435,-1.765,-0.145
436,-0.700,-0.225
437,1.250,-0.110
438,0.580,-0.040
439,-1.455,-0.055
440,-0.945,0.045
441,1.025,0.390
442,0.735,0.605
443,-1.395,0.630
444,-1.470,0.140
445,0.390,-0.585
446,0.265,-1.645
447,-1.865,-2.920
448,-2.195,-3.455
449,0.005,-3.820
450,0.565,-4.275
451,-1.305,-4.920
452,-1.570,-5.110
453,0.680,-4.755
454,1.030,-4.285
455,-1.010,-3.785
456,-1.725,-3.225
457,0.220,-2.520
458,0.560,-2.110
459,-1.515,-2.115
460,-2.220,-2.110
461,-0.070,-1.685
462,0.685,-1.365
463,-1.155,-1.140
464,-2.000,-1.075
465,-0.030,-0.765
466,1.115,-0.475
467,-0.525,-0.255
468,-1.690,-0.130
469,0.015,0.050
470,1.330,0.265
471,-0.155,0.355
472,-1.715,0.315
473,-0.375,0.345
474,1.245,0.475
475,0.060,0.540
476,-1.650,0.450
477,-0.520,0.435
478,1.185,0.535
479,0.130,0.605
480,-1.545,0.560
481,-0.300,0.545
482,1.330,0.650
483,0.075,0.740
484,-1.525,0.665
485,-0.220,0.685
486,1.350,0.815
487,0.090,0.920
488,-1.455,0.865
489,-0.150,0.850
490,1.530,0.990
491,0.385,1.175
492,-1.260,1.170
493,-0.100,1.230
494,1.660,1.405
495,0.665,1.560
496,-1.050,1.565
497,-0.065,1.535
498,1.815,1.645
499,1.120,1.785
500,-0.895,1.750
501,-0.390,1.635
502,1.605,1.705
503,1.220,1.795
504,-0.815,1.810
505,-0.630,1.740
506,1.360,1.795
507,1.265,1.870
508,-0.860,1.745
509,-0.765,1.550
510,1.170,1.540
511,0.980,1.530
512,-1.115,1.360
513,-1.085,1.120
514,0.935,1.025
515,0.830,1.020
516,-1.230,0.830
517,-1.245,0.630
518,0.775,0.575
519,0.780,0.565
520,-1.280,0.425
521,-1.450,0.250
522,0.570,0.225
523,0.820,0.255
524,-1.205,0.160
525,-1.675,0.015
526,0.020,0.005
527,0.255,0.020
528,-0.495,-0.025
529,-0.640,0.010
530,-0.055,-0.045
531,0.095,-0.140
532,-0.545,-0.140
533,-0.785,-0.060
534,-0.200,-0.110
535,0.120,-0.180
536,-0.420,-0.225
537,-0.770,-0.150
538,-0.250,-0.135
539,0.135,-0.205
540,-0.345,-0.255
541,-0.780,-0.160
542,-0.355,-0.195
543,0.090,-0.230
544,-0.315,-0.250
545,-0.765,-0.190
546,-0.370,-0.185
547,0.110,-0.250
548,-0.280,-0.255
549,-0.770,-0.220
550,-0.435,-0.150
551,0.115,-0.210
552,-0.200,-0.260
553,-0.775,-0.215
554,-0.505,-0.150
555,0.095,-0.195
556,-0.115,-0.260
557,-0.740,-0.220
558,-0.570,-0.185
559,0.060,-0.205
560,-0.010,-0.255
561,-0.690,-0.230
562,-0.670,-0.160
563,-0.035,-0.185
564,0.065,-0.240
565,-0.585,-0.225
566,-0.730,-0.185
567,-0.135,-0.175
568,0.115,-0.270
569,-0.425,-0.240
570,-0.770,-0.180
571,-0.230,-0.180
572,0.140,-0.225
573,-0.310,-0.260
574,-0.720,-0.180
575,-0.295,-0.165
576,0.140,-0.230
577,-0.235,-0.255
578,-0.715,-0.215
579,-0.295,-0.180
580,0.135,-0.255
581,-0.260,-0.280
582,-0.720,-0.235
583,-0.265,-0.170
584,0.190,-0.270
585,-0.265,-0.270
586,-0.750,-0.235
587,-0.325,-0.180
588,0.100,-0.255
589,-0.245,-0.305
590,-0.770,-0.250
591,-0.335,-0.200
592,0.160,-0.280
593,-0.225,-0.310
594,-0.740,-0.225
595,-0.420,-0.205
596,0.160,-0.290
597,-0.040,-0.325
598,-0.705,-0.255
599,-0.565,-0.220
600,0.100,-0.250
601,0.055,-0.325
602,-0.580,-0.270
603,-0.620,-0.210
604,0.025,-0.250
605,0.100,-0.340
606,-0.510,-0.340
607,-0.675,-0.200
608,-0.075,-0.215
609,0.105,-0.315
610,-0.495,-0.315
611,-0.685,-0.225
612,-0.110,-0.220
613,0.080,-0.290
614,-0.510,-0.305
615,-0.680,-0.255
616,-0.070,-0.245
617,0.140,-0.285
618,-0.480,-0.300
619,-0.635,-0.250
620,-0.020,-0.260
621,0.135,-0.325
622,-0.490,-0.290
623,-0.685,-0.245
624,-0.060,-0.245
625,0.180,-0.300
626,-0.420,-0.290
627,-0.700,-0.245
628,-0.170,-0.240
629,0.195,-0.285
630,-0.255,-0.290
631,-0.705,-0.255
632,-0.300,-0.195
633,0.175,-0.270
634,-0.155,-0.335
635,-0.710,-0.270
636,-0.430,-0.260
637,0.155,-0.300
638,-0.060,-0.300
639,-0.685,-0.275
640,-0.475,-0.205
641,0.115,-0.270
642,-0.105,-0.295
643,-0.685,-0.270
644,-0.510,-0.225
645,0.125,-0.245
646,-0.060,-0.325
647,-0.635,-0.260
648,-0.495,-0.220
649,0.100,-0.250
650,-0.030,-0.340
651,-0.630,-0.295
652,-0.560,-0.255
653,0.050,-0.285
654,0.030,-0.340
655,-0.600,-0.320
656,-0.650,-0.270
657,-0.045,-0.240
658,0.160,-0.345
659,-0.440,-0.325
660,-0.735,-0.270
661,-0.185,-0.240
662,0.180,-0.310
663,-0.345,-0.360
664,-0.755,-0.270
665,-0.330,-0.240
666,0.150,-0.310
667,-0.235,-0.350
668,-0.750,-0.320
669,-0.415,-0.255
670,0.160,-0.305
671,-0.120,-0.350
672,-0.680,-0.300
673,-0.455,-0.225
674,0.135,-0.290
675,-0.075,-0.345
676,-0.665,-0.310
677,-0.500,-0.200
678,0.125,-0.245
679,-0.040,-0.290
680,-0.640,-0.255
681,-0.465,-0.215
682,0.160,-0.205
683,0.065,-0.215
684,-0.550,-0.145
685,-0.475,-0.105
686,0.125,-0.080
687,0.235,-0.125
688,-0.410,-0.100
689,-0.475,-0.105
690,0.160,-0.170
691,0.250,-0.260
692,-0.430,-0.295
693,-0.620,-0.300
694,-0.035,-0.395
695,0.200,-0.455
696,-0.370,-0.435
697,-0.690,-0.330
698,-0.185,-0.345
699,0.150,-0.380
700,-0.375,-0.420
701,-0.785,-0.305
702,-0.345,-0.265
703,0.060,-0.370
704,-0.380,-0.420
705,-0.830,-0.385
706,-0.385,-0.325
707,0.090,-0.410
708,-0.320,-0.440
709,-0.790,-0.390
710,-0.415,-0.345
711,0.110,-0.430
712,-0.275,-0.425
713,-0.820,-0.405
714,-0.500,-0.345
715,0.010,-0.375
716,-0.385,-0.315
717,-0.885,-0.045
718,-0.350,0.190
719,0.395,0.150
720,0.455,0.060
721,0.265,0.340
722,0.860,0.485
723,1.715,-0.190
724,1.525,-0.975
725,0.300,-1.310
726,-0.325,-1.490
727,-0.125,-1.820
728,-0.470,-2.030
729,-1.280,-2.390
730,-1.255,-2.445
731,-0.380,-2.065
732,-0.140,-1.635
733,-0.640,-1.220
734,-0.715,-0.735
735,-0.135,-0.365
736,0.060,-0.265
737,-0.535,-0.240
738,-0.820,-0.180
739,-0.240,-0.160
740,0.070,-0.220
741,-0.490,-0.235
742,-0.790,-0.160
743,-0.260,-0.155
744,0.040,-0.220
745,-0.510,-0.205
746,-0.790,-0.160
747,-0.245,-0.150
748,0.090,-0.180
749,-0.430,-0.195
750,-0.780,-0.140
751,-0.270,-0.110
752,0.110,-0.180
753,-0.395,-0.190
754,-0.825,-0.130
755,-0.335,-0.045
756,0.145,-0.155
757,-0.235,-0.165
758,-0.770,-0.070
759,-0.415,-0.035
760,0.150,-0.105
761,-0.110,-0.140
762,-0.730,-0.065
763,-0.560,0.010
764,0.095,-0.025
765,0.030,-0.030
766,-0.595,0.020
767,-0.590,0.080
768,0.070,0.065
769,0.130,0.050
770,-0.520,0.075
771,-0.630,0.195
772,0.005,0.205
773,0.165,0.170
774,-0.425,0.160
775,-0.555,0.300
776,0.050,0.340
777,0.275,0.295
778,-0.280,0.360
779,-0.505,0.375
780,0.075,0.445
781,0.355,0.360
782,-0.190,0.365
783,-0.510,0.425
784,0.020,0.465
785,0.415,0.390
786,-0.025,0.395
787,-0.470,0.440
788,-0.040,0.475
789,0.495,0.410
790,0.150,0.360
791,-0.445,0.405
792,-0.200,0.445
793,0.400,0.380
794,0.220,0.270
795,-0.420,0.265
796,-0.390,0.295
797,0.230,0.220
798,0.245,0.125
799,-0.410,0.120
800,-0.550,0.160
801,0.050,0.110
802,0.195,0.000
803,-0.430,-0.040
804,-0.645,0.010
805,-0.040,0.005
806,0.200,-0.100
807,-0.400,-0.140
808,-0.665,-0.100
809,-0.120,-0.100
810,0.180,-0.170
811,-0.375,-0.175
812,-0.745,-0.170
813,-0.215,-0.155
814,0.180,-0.225
815,-0.260,-0.225
816,-0.720,-0.175
817,-0.285,-0.125
818,0.220,-0.205
819,-0.135,-0.240
820,-0.695,-0.180
821,-0.450,-0.150
822,0.180,-0.200
823,0.050,-0.250
824,-0.600,-0.205
825,-0.625,-0.145
826,0.055,-0.180
827,0.150,-0.240
828,-0.475,-0.235
829,-0.635,-0.165
830,-0.015,-0.180
831,0.175,-0.235
832,-0.410,-0.250
833,-0.685,-0.150
834,-0.080,-0.155
835,0.225,-0.195
836,-0.305,-0.235
837,-0.710,-0.180
838,-0.195,-0.145
839,0.200,-0.215
840,-0.240,-0.245
841,-0.715,-0.210
842,-0.330,-0.160
843,0.170,-0.215
844,-0.215,-0.250
845,-0.730,-0.210
846,-0.390,-0.195
847,0.200,-0.235
848,-0.045,-0.310
849,-0.680,-0.285
850,-0.510,-0.230
851,0.110,-0.210
852,0.055,-0.320
853,-0.605,-0.280
854,-0.645,-0.230
855,0.025,-0.240
856,0.150,-0.315
857,-0.490,-0.310
858,-0.680,-0.255
859,-0.060,-0.245
860,0.160,-0.350
861,-0.450,-0.350
862,-0.740,-0.255
863,-0.160,-0.265
864,0.170,-0.315
865,-0.370,-0.365
866,-0.720,-0.285
867,-0.240,-0.260
868,0.185,-0.335
869,-0.300,-0.370
870,-0.725,-0.290
871,-0.255,-0.230
872,0.205,-0.320
873,-0.225,-0.310
874,-0.650,-0.230
875,-0.130,-0.120
876,0.290,-0.165
877,-0.160,-0.165
878,-0.595,-0.080
879,-0.060,-0.030
880,0.390,-0.140
881,-0.065,-0.190
882,-0.605,-0.185
883,-0.240,-0.185
884,0.225,-0.330
885,-0.145,-0.475
886,-0.680,-0.410
887,-0.345,-0.380
888,0.195,-0.410
889,-0.110,-0.445
890,-0.735,-0.400
891,-0.545,-0.340
892,0.040,-0.360
893,-0.110,-0.415
894,-0.770,-0.400
895,-0.690,-0.355
896,-0.040,-0.405
897,-0.030,-0.440
898,-0.675,-0.470
899,-0.720,-0.395
900,-0.100,-0.405
901,0.020,-0.460
902,-0.600,-0.440
903,-0.710,-0.390
904,-0.090,-0.370
905,0.075,-0.430
906,-0.550,-0.410
907,-0.735,-0.365
908,-0.190,-0.300
909,-0.080,-0.170
910,-0.575,0.040
911,-0.585,0.130
912,0.280,0.080
913,0.920,0.195
914,0.745,0.365
915,0.855,-0.205
916,1.530,-0.945
917,1.445,-1.525
918,0.180,-1.790
919,-0.740,-2.115
920,-0.705,-2.320
921,-0.480,-2.520
922,-0.780,-2.740
923,-1.185,-2.610
924,-0.675,-1.855
925,0.055,-1.290
926,-0.115,-0.890
927,-0.720,-0.495
928,-0.590,-0.210
929,-0.005,-0.210
930,-0.175,-0.290
931,-0.750,-0.220
932,-0.620,-0.165
933,0.040,-0.210
934,-0.080,-0.285
935,-0.725,-0.260
936,-0.615,-0.180
937,0.000,-0.215
938,-0.080,-0.240
939,-0.710,-0.210
940,-0.635,-0.150
941,-0.010,-0.180
942,-0.065,-0.210
943,-0.665,-0.225
944,-0.635,-0.140
945,0.000,-0.120
946,0.030,-0.200
947,-0.610,-0.170
948,-0.680,-0.100
949,-0.020,-0.085
950,0.120,-0.150
951,-0.530,-0.125
952,-0.715,-0.070
953,-0.100,-0.055
954,0.165,-0.090
955,-0.340,-0.110
956,-0.730,0.005
957,-0.220,0.025
958,0.210,-0.015
959,-0.215,-0.035
960,-0.645,0.080
961,-0.205,0.115
962,0.290,0.090
963,-0.125,0.075
964,-0.585,0.160
965,-0.215,0.235
966,0.305,0.215
967,-0.075,0.210
968,-0.560,0.240
969,-0.125,0.310
970,0.350,0.275
971,-0.085,0.245
972,-0.540,0.345
973,-0.090,0.375
974,0.390,0.325
975,-0.025,0.275
976,-0.535,0.315
977,-0.135,0.335
978,0.375,0.280
979,0.000,0.235
980,-0.570,0.250
981,-0.260,0.250
982,0.250,0.200
983,-0.050,0.095
984,-0.640,0.115
985,-0.430,0.110
986,0.145,0.005
987,-0.080,-0.105
988,-0.715,-0.080
989,-0.535,-0.065
990,0.095,-0.140
991,-0.080,-0.190
992,-0.695,-0.195
993,-0.575,-0.170
994,0.025,-0.225
995,-0.095,-0.290
996,-0.720,-0.285
997,-0.560,-0.240
998,0.065,-0.265
999,-0.120,-0.345
1000,-0.700,-0.335
1001,-0.555,-0.260
1002,0.075,-0.315
1003,-0.105,-0.340
1004,-0.715,-0.305
1005,-0.535,-0.230
1006,0.095,-0.275
1007,-0.055,-0.325
1008,-0.670,-0.305
1009,-0.550,-0.255
1010,0.060,-0.265
1011,-0.030,-0.320
1012,-0.695,-0.285
1013,-0.585,-0.225
1014,0.070,-0.260
1015,0.015,-0.340
1016,-0.630,-0.300
1017,-0.615,-0.250
1018,0.025,-0.285
1019,0.060,-0.345
1020,-0.585,-0.290
1021,-0.660,-0.235
1022,-0.040,-0.275
1023,0.060,-0.315
1024,-0.530,-0.330
1025,-0.700,-0.260
1026,-0.135,-0.280
1027,0.120,-0.335
1028,-0.465,-0.360
1029,-0.760,-0.295
1030,-0.205,-0.280
1031,0.125,-0.355
1032,-0.410,-0.330
1033,-0.760,-0.270
1034,-0.225,-0.275
1035,0.150,-0.345
1036,-0.365,-0.330
1037,-0.760,-0.305
1038,-0.265,-0.270
1039,0.160,-0.355
1040,-0.355,-0.355
1041,-0.775,-0.290
1042,-0.305,-0.290
1043,0.145,-0.365
1044,-0.300,-0.360
1045,-0.775,-0.295
1046,-0.335,-0.275
1047,0.155,-0.305
1048,-0.155,-0.350
1049,-0.730,-0.315
1050,-0.445,-0.275
1051,0.130,-0.300
1052,-0.105,-0.375
1053,-0.710,-0.310
1054,-0.575,-0.240
1055,0.070,-0.295
1056,0.015,-0.345
1057,-0.630,-0.285
1058,-0.605,-0.220
1059,0.080,-0.255
1060,0.205,-0.280
1061,-0.455,-0.210
1062,-0.565,-0.110
1063,0.050,-0.060
1064,0.225,-0.110
1065,-0.330,-0.075
1066,-0.460,-0.015
1067,0.120,-0.060
1068,0.250,-0.230
1069,-0.385,-0.230
1070,-0.585,-0.220
1071,0.015,-0.335
1072,0.165,-0.495
1073,-0.510,-0.450
1074,-0.630,-0.380
1075,0.000,-0.370
1076,0.115,-0.420
1077,-0.530,-0.425
1078,-0.715,-0.380
1079,-0.145,-0.330
1080,0.040,-0.380
1081,-0.570,-0.415
1082,-0.815,-0.330
1083,-0.235,-0.390
1084,0.070,-0.455
1085,-0.475,-0.495
1086,-0.815,-0.395
1087,-0.270,-0.400
1088,0.115,-0.415
1089,-0.365,-0.480
1090,-0.805,-0.425
1091,-0.340,-0.355
1092,0.105,-0.395
1093,-0.350,-0.460
1094,-0.840,-0.320
1095,-0.455,-0.110
1096,0.085,0.060
1097,-0.165,0.095
1098,-0.320,0.100
1099,0.540,0.310
1100,1.315,0.345
1101,1.210,-0.365
1102,0.950,-1.075
1103,0.975,-1.515
1104,0.630,-1.835
1105,-0.390,-2.240
1106,-1.280,-2.560
1107,-0.960,-2.570
1108,-0.270,-2.595
1109,-0.655,-2.245
1110,-0.980,-1.535
1111,-0.335,-0.970
1112,0.110,-0.650
1113,-0.380,-0.365
1114,-0.875,-0.205
1115,-0.455,-0.155
1116,0.065,-0.195
1117,-0.255,-0.250
1118,-0.835,-0.205
1119,-0.535,-0.135
1120,0.055,-0.200
1121,-0.200,-0.220
1122,-0.765,-0.195
1123,-0.480,-0.150
1124,0.055,-0.225
1125,-0.135,-0.205
1126,-0.750,-0.210
1127,-0.485,-0.115
1128,0.070,-0.170
1129,-0.195,-0.225
1130,-0.760,-0.165
1131,-0.470,-0.115
1132,0.100,-0.170
1133,-0.215,-0.190
1134,-0.765,-0.145
1135,-0.415,-0.110
1136,0.135,-0.090
1137,-0.170,-0.140
1138,-0.730,-0.070
1139,-0.465,-0.020
1140,0.115,-0.040
1141,-0.070,-0.085
1142,-0.720,0.000
1143,-0.520,0.045
1144,0.140,0.025
1145,0.090,0.005
1146,-0.535,0.040
1147,-0.550,0.140
1148,0.105,0.165
1149,0.220,0.120
1150,-0.385,0.135
1151,-0.575,0.230
1152,0.050,0.250
1153,0.315,0.200
1154,-0.220,0.225
1155,-0.530,0.330
1156,0.050,0.350
1157,0.390,0.295
1158,-0.120,0.270
1159,-0.465,0.320
1160,0.020,0.370
1161,0.405,0.315
1162,-0.085,0.290
1163,-0.490,0.330
1164,-0.010,0.335
1165,0.365,0.280
1166,-0.165,0.210
1167,-0.610,0.260
1168,-0.165,0.250
1169,0.285,0.125
1170,-0.235,0.060
1171,-0.705,0.090
1172,-0.295,0.075
1173,0.180,-0.050
1174,-0.205,-0.165
1175,-0.765,-0.135
1176,-0.440,-0.100
1177,0.125,-0.225
1178,-0.170,-0.300
1179,-0.805,-0.290
1180,-0.575,-0.240
1181,0.035,-0.320
1182,-0.075,-0.415
1183,-0.695,-0.385
1184,-0.595,-0.335
1185,0.025,-0.360
1186,0.015,-0.445
1187,-0.620,-0.465
1188,-0.690,-0.370
1189,-0.105,-0.355
1190,0.065,-0.445
1191,-0.520,-0.415
1192,-0.675,-0.370
1193,-0.125,-0.395
1194,0.110,-0.430
1195,-0.485,-0.390
1196,-0.735,-0.335
1197,-0.165,-0.315
1198,0.085,-0.410
1199,-0.470,-0.400
1200,-0.715,-0.345
1201,-0.140,-0.320
1202,0.095,-0.405
1203,-0.500,-0.390
1204,-0.715,-0.345
1205,-0.125,-0.335
1206,0.045,-0.410
1207,-0.545,-0.415
1208,-0.735,-0.315
1209,-0.155,-0.350
1210,0.085,-0.365
1211,-0.465,-0.425
1212,-0.765,-0.320
1213,-0.215,-0.325
1214,0.130,-0.405
1215,-0.380,-0.425
1216,-0.790,-0.350
1217,-0.335,-0.375
1218,0.090,-0.410
1219,-0.345,-0.435
1220,-0.825,-0.410
1221,-0.440,-0.350
1222,0.105,-0.390
1223,-0.230,-0.400
1224,-0.785,-0.400
1225,-0.470,-0.330
1226,0.100,-0.405
1227,-0.210,-0.465
1228,-0.785,-0.415
1229,-0.470,-0.370
1230,0.055,-0.415
1231,-0.260,-0.435
1232,-0.800,-0.400
1233,-0.425,-0.375
1234,0.100,-0.420
1235,-0.245,-0.470
1236,-0.790,-0.440
1237,-0.475,-0.385
1238,0.075,-0.450
1239,-0.260,-0.455
1240,-0.815,-0.420
1241,-0.550,-0.335
1242,0.070,-0.430
1243,-0.080,-0.475
1244,-0.695,-0.435
1245,-0.620,-0.365
1246,0.045,-0.375
1247,0.000,-0.370
1248,-0.590,-0.295
1249,-0.605,-0.225
1250,0.005,-0.210
1251,0.125,-0.260
1252,-0.390,-0.195
1253,-0.530,-0.145
1254,0.055,-0.190
1255,0.255,-0.355
1256,-0.355,-0.385
1257,-0.640,-0.380
1258,-0.120,-0.440
1259,0.125,-0.560
1260,-0.435,-0.535
1261,-0.680,-0.470
1262,-0.105,-0.445
1263,0.115,-0.520
1264,-0.515,-0.535
1265,-0.805,-0.455
1266,-0.265,-0.385
1267,-0.030,-0.460
1268,-0.615,-0.495
1269,-0.885,-0.460
1270,-0.295,-0.450
1271,0.045,-0.530
1272,-0.460,-0.520
1273,-0.865,-0.430
1274,-0.375,-0.440
1275,0.095,-0.500
1276,-0.345,-0.530
1277,-0.845,-0.485
1278,-0.515,-0.420
1279,0.055,-0.475
1280,-0.245,-0.500
1281,-0.870,-0.435
1282,-0.750,-0.270
1283,-0.105,-0.080
1284,-0.070,0.015
1285,-0.420,0.040
1286,-0.025,0.085
1287,0.985,0.290
1288,1.325,0.320
1289,1.035,-0.335
1290,0.980,-0.950
1291,0.915,-1.395
1292,0.240,-1.670
1293,-0.840,-2.040
1294,-1.270,-2.290
1295,-0.735,-2.395
1296,-0.450,-2.505
1297,-0.960,-2.245
1298,-0.925,-1.615
1299,-0.075,-1.145
1300,0.090,-0.795
1301,-0.595,-0.450
1302,-0.750,-0.235
1303,-0.150,-0.220
1304,0.035,-0.305
1305,-0.545,-0.305
1306,-0.840,-0.230
1307,-0.270,-0.250
1308,0.070,-0.320
1309,-0.410,-0.335
1310,-0.805,-0.215
1311,-0.360,-0.225
1312,0.130,-0.260
1313,-0.225,-0.305
1314,-0.775,-0.230
1315,-0.475,-0.170
1316,0.090,-0.245
1317,-0.180,-0.265
1318,-0.775,-0.210
1319,-0.540,-0.165
1320,0.085,-0.205
1321,-0.045,-0.230
1322,-0.635,-0.190
1323,-0.545,-0.155
1324,0.040,-0.155
1325,-0.020,-0.180
1326,-0.660,-0.170
1327,-0.580,-0.090
1328,0.025,-0.085
1329,0.085,-0.155
1330,-0.530,-0.115
1331,-0.540,-0.020
1332,0.105,-0.010
1333,0.140,-0.070
1334,-0.470,-0.025
1335,-0.565,0.055
1336,0.075,0.090
1337,0.235,0.055
1338,-0.365,0.060
1339,-0.560,0.165
1340,0.045,0.185
1341,0.340,0.145
1342,-0.225,0.160
1343,-0.545,0.245
1344,-0.030,0.275
1345,0.340,0.220
1346,-0.100,0.210
1347,-0.530,0.265
1348,-0.105,0.310
1349,0.415,0.235
1350,0.035,0.195
1351,-0.520,0.250
1352,-0.240,0.285
1353,0.335,0.195
1354,0.070,0.155
1355,-0.545,0.185
1356,-0.365,0.170
1357,0.190,0.115
1358,-0.020,-0.010
1359,-0.635,-0.010
1360,-0.475,0.000
1361,0.100,-0.015
1362,-0.040,-0.160
1363,-0.700,-0.130
1364,-0.605,-0.180
1365,-0.005,-0.240
1366,-0.075,-0.330
1367,-0.690,-0.290
1368,-0.640,-0.230
1369,-0.025,-0.285
1370,0.020,-0.355
1371,-0.620,-0.360
1372,-0.695,-0.275
1373,-0.105,-0.285
1374,0.065,-0.365
1375,-0.505,-0.375
1376,-0.780,-0.305
1377,-0.245,-0.300
1378,0.125,-0.385
1379,-0.360,-0.350
1380,-0.825,-0.330
1381,-0.415,-0.285
1382,0.090,-0.335
1383,-0.220,-0.360
1384,-0.765,-0.300
1385,-0.495,-0.240
1386,0.070,-0.305
1387,-0.105,-0.360
1388,-0.705,-0.295
1389,-0.535,-0.310
1390,0.080,-0.295
1391,-0.060,-0.355
1392,-0.700,-0.345
1393,-0.605,-0.270
1394,0.035,-0.310
1395,-0.010,-0.370
1396,-0.665,-0.340
1397,-0.630,-0.305
1398,-0.005,-0.300
1399,0.020,-0.365
1400,-0.600,-0.380
1401,-0.755,-0.305
1402,-0.135,-0.285
1403,0.115,-0.365
1404,-0.430,-0.425
1405,-0.795,-0.340
1406,-0.335,-0.295
1407,0.165,-0.370
1408,-0.220,-0.425
1409,-0.825,-0.355
1410,-0.570,-0.300
1411,0.050,-0.390
1412,-0.065,-0.410
1413,-0.710,-0.425
1414,-0.655,-0.350
1415,-0.040,-0.350
1416,0.025,-0.420
1417,-0.610,-0.430
1418,-0.775,-0.370
1419,-0.175,-0.370
1420,0.075,-0.465
1421,-0.510,-0.430
1422,-0.795,-0.385
1423,-0.270,-0.365
1424,0.085,-0.440
1425,-0.390,-0.465
1426,-0.820,-0.390
1427,-0.415,-0.340
1428,0.115,-0.400
1429,-0.260,-0.430
1430,-0.810,-0.385
1431,-0.520,-0.320
1432,0.065,-0.365
1433,-0.085,-0.425
1434,-0.720,-0.385
1435,-0.675,-0.305
1436,0.000,-0.345
1437,0.100,-0.410
1438,-0.500,-0.345
1439,-0.680,-0.205
1440,-0.140,-0.165
1441,0.230,-0.220
1442,-0.255,-0.220
1443,-0.610,-0.135
1444,-0.200,-0.095
1445,0.280,-0.235
1446,-0.060,-0.300
1447,-0.660,-0.325
1448,-0.480,-0.270
1449,0.100,-0.435
1450,-0.060,-0.550
1451,-0.720,-0.510
1452,-0.625,-0.415
1453,-0.015,-0.425
1454,-0.030,-0.485
1455,-0.720,-0.465
1456,-0.715,-0.435
1457,-0.130,-0.395
1458,-0.090,-0.430
1459,-0.745,-0.475
1460,-0.800,-0.415
1461,-0.160,-0.455
1462,-0.065,-0.505
1463,-0.705,-0.495
1464,-0.835,-0.445
1465,-0.205,-0.480
1466,-0.030,-0.520
1467,-0.615,-0.515
1468,-0.850,-0.420
1469,-0.255,-0.435
1470,0.020,-0.500
1471,-0.515,-0.515
1472,-0.905,-0.430
1473,-0.475,-0.320
1474,-0.100,-0.175
1475,-0.435,0.010
1476,-0.665,0.095
1477,0.050,0.090
1478,0.900,0.160
1479,0.915,0.400
1480,0.750,-0.080
1481,1.155,-0.775
1482,1.280,-1.385
1483,0.255,-1.705
1484,-0.845,-1.965
1485,-1.025,-2.215
1486,-0.675,-2.340
1487,-0.705,-2.635
1488,-1.165,-2.535
1489,-0.885,-1.880
1490,-0.070,-1.290
1491,-0.125,-0.940
1492,-0.770,-0.480
1493,-0.665,-0.200
1494,-0.075,-0.210
1495,-0.170,-0.300
1496,-0.770,-0.225
1497,-0.680,-0.155
1498,-0.075,-0.210
1499,-0.150,-0.270
1500,-0.755,-0.220
1501,-0.700,-0.180
1502,-0.080,-0.205
1503,-0.045,-0.240
1504,-0.665,-0.225
1505,-0.730,-0.140
1506,-0.110,-0.160
1507,0.020,-0.250
1508,-0.620,-0.230
1509,-0.815,-0.150
1510,-0.245,-0.130
1511,0.040,-0.215
1512,-0.530,-0.190
1513,-0.800,-0.130
1514,-0.255,-0.080
1515,0.120,-0.175
1516,-0.390,-0.165
1517,-0.785,-0.065
1518,-0.290,-0.075
1519,0.140,-0.120
1520,-0.350,-0.105
1521,-0.770,-0.045
1522,-0.315,-0.010
1523,0.150,-0.045
1524,-0.245,-0.030
1525,-0.695,0.045
1526,-0.275,0.115
1527,0.240,0.115
1528,-0.135,0.065
1529,-0.630,0.175
1530,-0.245,0.250
1531,0.295,0.240
1532,0.020,0.200
1533,-0.545,0.280
1534,-0.275,0.360
1535,0.325,0.320
1536,0.175,0.280
1537,-0.470,0.325
1538,-0.400,0.390
1539,0.230,0.365
1540,0.285,0.325
1541,-0.350,0.335
1542,-0.510,0.410
1543,0.095,0.405
1544,0.325,0.335
1545,-0.265,0.295
1546,-0.635,0.295
1547,-0.135,0.275
1548,0.245,0.215
1549,-0.240,0.150
1550,-0.740,0.150
1551,-0.370,0.145
1552,0.145,0.045
1553,-0.260,-0.050
1554,-0.805,-0.065
1555,-0.425,-0.060
1556,0.095,-0.115
1557,-0.280,-0.240
1558,-0.795,-0.190
1559,-0.425,-0.185
1560,0.095,-0.205
1561,-0.200,-0.300
1562,-0.775,-0.260
1563,-0.520,-0.210
1564,0.070,-0.260
1565,-0.125,-0.315
1566,-0.750,-0.295
1567,-0.630,-0.240
1568,0.005,-0.290
1569,-0.045,-0.345
1570,-0.680,-0.320
1571,-0.710,-0.225
1572,-0.070,-0.235
1573,0.075,-0.310
1574,-0.535,-0.290
1575,-0.735,-0.275
1576,-0.130,-0.205
1577,0.155,-0.290
1578,-0.425,-0.310
1579,-0.760,-0.250
1580,-0.280,-0.235
1581,0.110,-0.295
1582,-0.375,-0.290
1583,-0.745,-0.255
1584,-0.260,-0.260
1585,0.145,-0.285
1586,-0.345,-0.335
1587,-0.735,-0.240
1588,-0.235,-0.220
1589,0.105,-0.250
1590,-0.360,-0.310
1591,-0.770,-0.245
1592,-0.270,-0.255
1593,0.125,-0.280
1594,-0.305,-0.280
1595,-0.760,-0.245
1596,-0.330,-0.250
1597,0.105,-0.270
1598,-0.330,-0.320
1599,-0.800,-0.280
1600,-0.405,-0.215
1601,0.115,-0.280
1602,-0.175,-0.330
1603,-0.760,-0.320
1604,-0.510,-0.255
1605,0.090,-0.290
1606,-0.075,-0.310
1607,-0.715,-0.285
1608,-0.625,-0.225
1609,0.000,-0.275
1610,-0.040,-0.320
1611,-0.685,-0.320
1612,-0.640,-0.275
1613,-0.025,-0.260
1614,0.015,-0.335
1615,-0.625,-0.325
1616,-0.640,-0.280
1617,-0.065,-0.255
1618,0.010,-0.365
1619,-0.625,-0.315
1620,-0.675,-0.280
1621,-0.085,-0.275
1622,0.005,-0.350
1623,-0.580,-0.350
1624,-0.655,-0.240
1625,-0.035,-0.265
1626,0.100,-0.320
1627,-0.505,-0.285
1628,-0.605,-0.135
1629,0.000,-0.125
1630,0.190,-0.145
1631,-0.390,-0.120
1632,-0.565,-0.010
1633,0.045,-0.005
1634,0.295,-0.140
1635,-0.255,-0.170
1636,-0.650,-0.170
1637,-0.240,-0.225
1638,0.145,-0.390
1639,-0.320,-0.490
1640,-0.730,-0.440
1641,-0.350,-0.345
1642,0.135,-0.415
1643,-0.180,-0.425
1644,-0.775,-0.400
1645,-0.530,-0.370
1646,-0.005,-0.365
1647,-0.225,-0.385
1648,-0.805,-0.360
1649,-0.650,-0.355
1650,-0.055,-0.370
1651,-0.155,-0.460
1652,-0.765,-0.440
1653,-0.650,-0.355
1654,-0.065,-0.380
1655,-0.105,-0.445
1656,-0.740,-0.445
1657,-0.700,-0.350
1658,-0.060,-0.390
1659,-0.060,-0.435
1660,-0.695,-0.435
1661,-0.775,-0.335
1662,-0.215,-0.280
1663,-0.140,-0.100
1664,-0.605,0.085
1665,-0.570,0.195
1666,0.315,0.115
1667,0.880,0.240
1668,0.735,0.205
1669,0.755,-0.445
1670,1.385,-1.145
1671,1.430,-1.670
1672,0.285,-1.970
1673,-0.755,-2.325
1674,-0.865,-2.485
1675,-0.585,-2.645
1676,-0.730,-2.800
1677,-1.200,-2.660
1678,-0.900,-1.890
1679,-0.065,-1.250
1680,-0.075,-0.855
1681,-0.740,-0.425
1682,-0.710,-0.220
1683,-0.110,-0.235
1684,-0.105,-0.270
1685,-0.740,-0.260
1686,-0.735,-0.200
1687,-0.120,-0.190
1688,-0.070,-0.275
1689,-0.685,-0.260
1690,-0.750,-0.160
1691,-0.130,-0.195
1692,-0.015,-0.225
1693,-0.590,-0.220
1694,-0.765,-0.150
1695,-0.170,-0.160
1696,0.010,-0.220
1697,-0.590,-0.250
1698,-0.845,-0.080
1699,-0.265,-0.115
1700,0.095,-0.140
1701,-0.405,-0.175
1702,-0.805,-0.130
1703,-0.385,-0.075
1704,0.120,-0.105
1705,-0.205,-0.140
1706,-0.770,-0.075
1707,-0.550,0.000
1708,0.075,-0.050
1709,-0.080,-0.065
1710,-0.700,-0.010
1711,-0.550,0.020
1712,0.075,0.040
1713,0.035,0.015
1714,-0.585,0.050
1715,-0.520,0.125
1716,0.100,0.170
1717,0.105,0.120
1718,-0.515,0.180
1719,-0.470,0.300
1720,0.170,0.285
1721,0.195,0.260
1722,-0.405,0.300
1723,-0.415,0.370
1724,0.205,0.350
1725,0.230,0.320
1726,-0.380,0.355
1727,-0.440,0.420
1728,0.160,0.440
1729,0.320,0.375
1730,-0.265,0.345
1731,-0.515,0.420
1732,0.030,0.420
1733,0.350,0.355
1734,-0.175,0.315
1735,-0.625,0.310
1736,-0.255,0.340
1737,0.200,0.230
1738,-0.160,0.135
1739,-0.735,0.130
1740,-0.455,0.150
1741,0.090,0.040
1742,-0.105,-0.055
1743,-0.725,-0.035
1744,-0.600,-0.040
1745,-0.010,-0.075
1746,-0.100,-0.225
1747,-0.705,-0.210
1748,-0.685,-0.190
1749,-0.095,-0.210
1750,-0.120,-0.265
1751,-0.705,-0.245
1752,-0.670,-0.225
1753,-0.030,-0.285
1754,-0.115,-0.335
1755,-0.715,-0.310
1756,-0.710,-0.230
1757,-0.070,-0.270
1758,-0.040,-0.320
1759,-0.645,-0.340
1760,-0.760,-0.275
1761,-0.130,-0.250
1762,0.050,-0.315
1763,-0.540,-0.305
1764,-0.780,-0.240
1765,-0.230,-0.220
1766,0.115,-0.300
1767,-0.410,-0.295
1768,-0.810,-0.230
1769,-0.350,-0.195
1770,0.120,-0.305
1771,-0.265,-0.315
1772,-0.790,-0.255
1773,-0.475,-0.235
1774,0.075,-0.250
1775,-0.180,-0.300
1776,-0.770,-0.270
1777,-0.570,-0.235
1778,0.040,-0.245
1779,-0.130,-0.305
1780,-0.735,-0.265
1781,-0.630,-0.230
1782,-0.010,-0.270
1783,-0.090,-0.325
1784,-0.705,-0.310
1785,-0.665,-0.250
1786,-0.020,-0.285
1787,-0.075,-0.330
1788,-0.690,-0.370
1789,-0.705,-0.280
1790,-0.060,-0.285
1791,-0.030,-0.350
1792,-0.655,-0.360
1793,-0.710,-0.250
1794,-0.085,-0.320
1795,-0.010,-0.360
1796,-0.630,-0.350
1797,-0.760,-0.260
1798,-0.155,-0.275
1799,0.070,-0.315
1800,-0.505,-0.335
1801,-0.800,-0.300
1802,-0.310,-0.260
1803,0.100,-0.295
1804,-0.365,-0.340
1805,-0.850,-0.285
1806,-0.450,-0.240
1807,0.085,-0.295
1808,-0.235,-0.345
1809,-0.835,-0.300
1810,-0.560,-0.250
1811,0.060,-0.275
1812,-0.120,-0.335
1813,-0.735,-0.300
1814,-0.590,-0.205
1815,0.080,-0.245
1816,0.035,-0.315
1817,-0.575,-0.270
1818,-0.555,-0.125
1819,0.080,-0.105
1820,0.105,-0.120
1821,-0.520,-0.095
1822,-0.525,-0.035
1823,0.125,-0.040
1824,0.205,-0.170
1825,-0.405,-0.205
1826,-0.620,-0.195
1827,-0.055,-0.245
1828,0.135,-0.435
1829,-0.470,-0.475
1830,-0.725,-0.410
1831,-0.180,-0.360
1832,0.140,-0.405
1833,-0.405,-0.425
1834,-0.820,-0.380
1835,-0.420,-0.340
1836,0.010,-0.410
1837,-0.410,-0.415
1838,-0.915,-0.365
1839,-0.570,-0.320
1840,0.000,-0.395
1841,-0.310,-0.480
1842,-0.870,-0.460
1843,-0.610,-0.410
1844,0.000,-0.395
1845,-0.160,-0.485
1846,-0.810,-0.445
1847,-0.655,-0.380
1848,-0.060,-0.420
1849,-0.190,-0.450
1850,-0.790,-0.430
1851,-0.695,-0.295
1852,-0.135,-0.275
1853,-0.300,-0.090
1854,-0.735,0.130
1855,-0.330,0.185
1856,0.570,0.145
1857,0.835,0.355
1858,0.655,0.200
1859,1.050,-0.520
1860,1.620,-1.260
1861,0.915,-1.735
1862,-0.350,-2.005
1863,-0.845,-2.340
1864,-0.605,-2.510
1865,-0.620,-2.685
1866,-1.085,-2.845
1867,-1.145,-2.330
1868,-0.365,-1.520
1869,0.040,-1.090
1870,-0.520,-0.675
1871,-0.870,-0.280
1872,-0.350,-0.165
1873,0.020,-0.225
1874,-0.445,-0.220
1875,-0.875,-0.160
1876,-0.405,-0.125
1877,0.010,-0.225
1878,-0.425,-0.235
1879,-0.890,-0.145
1880,-0.410,-0.150
1881,0.015,-0.180
1882,-0.395,-0.220
1883,-0.825,-0.170
1884,-0.400,-0.125
1885,0.060,-0.185
1886,-0.340,-0.250
1887,-0.835,-0.190
1888,-0.425,-0.115
1889,0.055,-0.150
1890,-0.320,-0.175
1891,-0.790,-0.130
1892,-0.485,-0.065
1893,0.075,-0.130
1894,-0.230,-0.155
1895,-0.780,-0.125
1896,-0.510,-0.030
1897,0.065,-0.045
1898,-0.060,-0.125
1899,-0.715,-0.060
1900,-0.645,0.015
1901,0.020,0.025
1902,0.070,-0.040
1903,-0.550,0.035
1904,-0.635,0.085
1905,-0.025,0.125
1906,0.160,0.085
1907,-0.390,0.140
1908,-0.610,0.225
1909,-0.030,0.265
1910,0.265,0.235
1911,-0.275,0.195
1912,-0.570,0.335
1913,-0.030,0.350
1914,0.345,0.325
1915,-0.165,0.295
1916,-0.565,0.395
1917,-0.070,0.395
1918,0.350,0.340
1919,-0.110,0.295
1920,-0.600,0.400
1921,-0.155,0.410
1922,0.340,0.330
1923,-0.030,0.325
1924,-0.595,0.315
1925,-0.340,0.340
1926,0.195,0.235
1927,-0.025,0.155
1928,-0.695,0.135
1929,-0.615,0.135
1930,0.010,0.065
1931,0.005,-0.020
1932,-0.680,-0.065
1933,-0.805,-0.060
1934,-0.165,-0.080
1935,0.040,-0.190
1936,-0.570,-0.240
1937,-0.890,-0.225
1938,-0.300,-0.200
1939,0.060,-0.300
1940,-0.465,-0.340
1941,-0.905,-0.280
1942,-0.400,-0.305
1943,0.055,-0.375
1944,-0.330,-0.420
1945,-0.875,-0.345
1946,-0.490,-0.335
1947,0.050,-0.360
1948,-0.300,-0.390
1949,-0.855,-0.375
1950,-0.580,-0.320
1951,0.015,-0.355
1952,-0.160,-0.425
1953,-0.810,-0.365
1954,-0.670,-0.280
1955,-0.025,-0.340
1956,-0.065,-0.385
1957,-0.710,-0.350
1958,-0.745,-0.295
1959,-0.085,-0.275
1960,0.005,-0.360
1961,-0.640,-0.350
1962,-0.795,-0.290
1963,-0.185,-0.265
1964,0.070,-0.340
1965,-0.535,-0.365
1966,-0.880,-0.335
1967,-0.345,-0.290
1968,0.040,-0.355
1969,-0.430,-0.385
1970,-0.890,-0.300
1971,-0.435,-0.285
1972,0.055,-0.350
1973,-0.270,-0.365
1974,-0.810,-0.365
1975,-0.505,-0.300
1976,0.060,-0.335
1977,-0.240,-0.435
1978,-0.850,-0.360
1979,-0.650,-0.320
1980,-0.030,-0.375
1981,-0.205,-0.410
1982,-0.815,-0.380
1983,-0.660,-0.300
1984,-0.035,-0.345
1985,-0.125,-0.410
1986,-0.765,-0.410
1987,-0.730,-0.375
1988,-0.105,-0.365
1989,-0.120,-0.435
1990,-0.765,-0.400
1991,-0.780,-0.370
1992,-0.125,-0.370
1993,-0.025,-0.415
1994,-0.685,-0.390
1995,-0.870,-0.340
1996,-0.245,-0.345
1997,0.040,-0.435
1998,-0.480,-0.460
1999,-0.905,-0.335
2000,-0.470,-0.340
2001,0.055,-0.385
2002,-0.315,-0.485
2003,-0.830,-0.360
2004,-0.470,-0.315
2005,0.080,-0.355
2006,-0.180,-0.415
2007,-0.780,-0.355
2008,-0.535,-0.235
2009,0.060,-0.220
2010,-0.055,-0.235
2011,-0.695,-0.190
2012,-0.520,-0.095
2013,0.155,-0.125
2014,0.070,-0.215
2015,-0.575,-0.270
2016,-0.610,-0.235
2017,-0.045,-0.310
2018,0.000,-0.460
2019,-0.660,-0.530
2020,-0.780,-0.470
2021,-0.130,-0.430
2022,0.050,-0.490
2023,-0.615,-0.485
2024,-0.895,-0.435
2025,-0.350,-0.390
2026,-0.030,-0.460
2027,-0.595,-0.430
2028,-1.020,-0.395
2029,-0.595,-0.410
2030,-0.050,-0.435
2031,-0.400,-0.520
2032,-0.945,-0.460
2033,-0.640,-0.435
2034,-0.075,-0.465
2035,-0.270,-0.555
2036,-0.940,-0.485
2037,-0.760,-0.425
2038,-0.155,-0.450
2039,-0.230,-0.505
2040,-0.870,-0.460
2041,-0.840,-0.395
2042,-0.205,-0.380
2043,-0.250,-0.350
2044,-0.860,-0.135
2045,-0.715,0.125
2046,0.110,0.100
2047,0.505,0.025
2048,0.315,0.295
2049,0.615,0.340
2050,1.495,-0.365
2051,1.445,-1.135
2052,0.225,-1.505
2053,-0.615,-1.675
2054,-0.440,-2.055
2055,-0.565,-2.300
2056,-1.275,-2.640
2057,-1.405,-2.690
2058,-0.710,-2.140
2059,-0.130,-1.640
2060,-0.500,-1.130
2061,-0.870,-0.720
2062,-0.470,-0.325
2063,-0.015,-0.265
2064,-0.370,-0.305
2065,-0.910,-0.230
2066,-0.650,-0.185
2067,-0.055,-0.220
2068,-0.235,-0.270
2069,-0.880,-0.210
2070,-0.715,-0.160
2071,-0.090,-0.185
2072,-0.105,-0.260
2073,-0.725,-0.200
2074,-0.695,-0.125
2075,-0.045,-0.160
2076,-0.085,-0.180
2077,-0.735,-0.230
2078,-0.800,-0.145
2079,-0.120,-0.170
2080,-0.065,-0.220
2081,-0.680,-0.170
2082,-0.780,-0.105
2083,-0.145,-0.135
2084,0.040,-0.180
2085,-0.575,-0.155
2086,-0.765,-0.100
2087,-0.165,-0.065
2088,0.065,-0.130
2089,-0.490,-0.145
2090,-0.765,-0.050
2091,-0.185,-0.015
2092,0.155,-0.075
2093,-0.395,-0.060
2094,-0.745,0.025
2095,-0.220,0.070
2096,0.185,0.020
2097,-0.240,0.030
2098,-0.690,0.120
2099,-0.215,0.185
2100,0.270,0.135
2101,-0.105,0.120
2102,-0.600,0.215
2103,-0.175,0.260
2104,0.300,0.250
2105,-0.070,0.230
2106,-0.565,0.280
2107,-0.210,0.310
2108,0.345,0.270
2109,-0.005,0.230
2110,-0.515,0.275
2111,-0.200,0.305
2112,0.310,0.255
2113,0.015,0.250
2114,-0.585,0.200
2115,-0.335,0.255
2116,0.205,0.195
2117,-0.085,0.135
2118,-0.650,0.095
2119,-0.480,0.115
2120,0.150,0.035
2121,-0.110,-0.050
2122,-0.755,-0.040
2123,-0.585,-0.040
2124,0.000,-0.120
2125,-0.130,-0.220
2126,-0.790,-0.215
2127,-0.690,-0.200
2128,-0.080,-0.215
2129,-0.115,-0.315
2130,-0.755,-0.320
2131,-0.750,-0.240
2132,-0.110,-0.295
2133,0.000,-0.335
2134,-0.645,-0.335
2135,-0.815,-0.250
2136,-0.175,-0.305
2137,0.015,-0.330
2138,-0.625,-0.355
2139,-0.830,-0.290
2140,-0.210,-0.265
2141,0.030,-0.335
2142,-0.540,-0.375
2143,-0.785,-0.290
2144,-0.225,-0.250
2145,0.000,-0.360
2146,-0.610,-0.360
2147,-0.805,-0.290
2148,-0.200,-0.270
2149,0.040,-0.375
2150,-0.575,-0.360
2151,-0.800,-0.295
2152,-0.220,-0.310
2153,0.020,-0.360
2154,-0.565,-0.380
2155,-0.830,-0.300
2156,-0.285,-0.295
2157,0.040,-0.350
2158,-0.490,-0.385
2159,-0.875,-0.320
2160,-0.410,-0.295
2161,0.070,-0.360
2162,-0.335,-0.390
2163,-0.825,-0.340
2164,-0.470,-0.315
2165,0.040,-0.400
2166,-0.260,-0.430
2167,-0.880,-0.355
2168,-0.615,-0.305
2169,-0.020,-0.350
2170,-0.210,-0.410
2171,-0.820,-0.385
2172,-0.630,-0.320
2173,-0.045,-0.380
2174,-0.240,-0.420
2175,-0.810,-0.390
2176,-0.620,-0.340
2177,-0.060,-0.385
2178,-0.210,-0.445
2179,-0.815,-0.395
2180,-0.655,-0.345
2181,-0.060,-0.370
2182,-0.215,-0.425
2183,-0.845,-0.395
2184,-0.700,-0.310
2185,-0.100,-0.350
2186,-0.150,-0.415
2187,-0.800,-0.425
2188,-0.750,-0.355
2189,-0.125,-0.340
2190,-0.085,-0.415
2191,-0.735,-0.390
2192,-0.845,-0.385
2193,-0.220,-0.350
2194,0.020,-0.400
2195,-0.530,-0.395
2196,-0.835,-0.330
2197,-0.290,-0.280
2198,0.065,-0.310
2199,-0.385,-0.265
2200,-0.810,-0.170
2201,-0.340,-0.130
2202,0.150,-0.140
2203,-0.235,-0.160
2204,-0.750,-0.145
2205,-0.345,-0.190
2206,0.135,-0.285
2207,-0.330,-0.345
2208,-0.800,-0.390
2209,-0.400,-0.465
2210,0.015,-0.515
2211,-0.415,-0.495
2212,-0.855,-0.450
2213,-0.455,-0.400
2214,-0.025,-0.470
2215,-0.460,-0.495
2216,-0.980,-0.445
2217,-0.595,-0.380
2218,-0.070,-0.465
2219,-0.455,-0.495
2220,-1.025,-0.505
2221,-0.710,-0.450
2222,-0.120,-0.490
2223,-0.345,-0.575
2224,-0.940,-0.505
2225,-0.760,-0.415
2226,-0.140,-0.460
2227,-0.260,-0.525
2228,-0.900,-0.480
2229,-0.810,-0.395
2230,-0.155,-0.420
2231,-0.240,-0.455
2232,-0.915,-0.420
2233,-0.965,-0.165
2234,-0.180,0.060
2235,0.030,0.060
2236,-0.295,-0.015
2237,0.090,0.175
2238,1.080,0.475
2239,1.440,-0.065
2240,0.915,-0.850
2241,0.405,-1.345
2242,0.250,-1.605
2243,-0.260,-2.030
2244,-1.275,-2.330
2245,-1.565,-2.540
2246,-0.700,-2.540
2247,-0.450,-2.325
2248,-0.975,-1.830
2249,-0.905,-1.215
2250,-0.150,-0.820
2251,-0.110,-0.525
2252,-0.795,-0.335
2253,-0.880,-0.225
2254,-0.215,-0.240
2255,-0.135,-0.300
2256,-0.775,-0.250
2257,-0.880,-0.230
2258,-0.250,-0.215
2259,-0.070,-0.295
2260,-0.670,-0.295
2261,-0.900,-0.220
2262,-0.325,-0.225
2263,-0.040,-0.285
2264,-0.585,-0.290
2265,-0.930,-0.215
2266,-0.375,-0.215
2267,-0.030,-0.245
2268,-0.530,-0.300
2269,-0.895,-0.210
2270,-0.365,-0.180
2271,-0.020,-0.210
2272,-0.510,-0.245
2273,-0.890,-0.175
2274,-0.385,-0.135
2275,0.015,-0.190
2276,-0.460,-0.200
2277,-0.845,-0.095
2278,-0.375,-0.055
2279,0.065,-0.135
2280,-0.415,-0.090
2281,-0.835,-0.035
2282,-0.350,0.045
2283,0.115,0.000
2284,-0.295,-0.030
2285,-0.745,0.070
2286,-0.305,0.155
2287,0.200,0.095
2288,-0.150,0.090
2289,-0.705,0.205
2290,-0.365,0.230
2291,0.220,0.265
2292,0.050,0.200
2293,-0.560,0.300
2294,-0.430,0.345
2295,0.205,0.340
2296,0.130,0.290
2297,-0.520,0.335
2298,-0.470,0.375
2299,0.185,0.355
2300,0.205,0.285
2301,-0.435,0.305
2302,-0.530,0.350
2303,0.090,0.320
2304,0.135,0.270
2305,-0.545,0.215
2306,-0.635,0.245
2307,-0.025,0.215
2308,0.015,0.070
2309,-0.680,0.015
2310,-0.750,0.035
2311,-0.135,0.005
2312,-0.040,-0.095
2313,-0.660,-0.135
2314,-0.830,-0.160
2315,-0.245,-0.160
2316,-0.025,-0.245
2317,-0.640,-0.280
2318,-0.870,-0.240
2319,-0.350,-0.225
2320,0.005,-0.315
2321,-0.490,-0.305
2322,-0.950,-0.245
2323,-0.490,-0.270
2324,0.020,-0.320
2325,-0.310,-0.330
2326,-0.895,-0.320
2327,-0.605,-0.255
2328,0.005,-0.290
2329,-0.205,-0.350
2330,-0.815,-0.290
2331,-0.650,-0.225
2332,-0.020,-0.295
2333,-0.150,-0.320
2334,-0.780,-0.275
2335,-0.690,-0.200
2336,-0.070,-0.245
2337,-0.115,-0.300
2338,-0.800,-0.275
2339,-0.660,-0.195
2340,-0.025,-0.230
2341,-0.140,-0.275
2342,-0.760,-0.265
2343,-0.655,-0.255
2344,-0.010,-0.250
2345,-0.105,-0.280
2346,-0.760,-0.280
2347,-0.730,-0.210
2348,-0.085,-0.240
2349,-0.070,-0.300
2350,-0.710,-0.260
2351,-0.730,-0.205
2352,-0.105,-0.240
2353,0.035,-0.290
2354,-0.620,-0.315
2355,-0.840,-0.260
2356,-0.260,-0.270
2357,0.030,-0.285
2358,-0.490,-0.320
2359,-0.880,-0.250
2360,-0.360,-0.230
2361,0.040,-0.300
2362,-0.405,-0.345
2363,-0.870,-0.245
2364,-0.410,-0.255
2365,0.010,-0.325
2366,-0.430,-0.350
2367,-0.895,-0.275
2368,-0.435,-0.230
2369,0.020,-0.285
2370,-0.425,-0.330
2371,-0.850,-0.285
2372,-0.385,-0.250
2373,0.060,-0.320
2374,-0.440,-0.335
2375,-0.860,-0.310
2376,-0.420,-0.270
2377,0.055,-0.320
2378,-0.415,-0.340
2379,-0.855,-0.310
2380,-0.380,-0.250
2381,0.075,-0.305
2382,-0.340,-0.340
2383,-0.785,-0.275
2384,-0.335,-0.200
2385,0.135,-0.210
2386,-0.225,-0.175
2387,-0.765,-0.110
2388,-0.405,-0.045
2389,0.150,-0.035
2390,-0.050,-0.065
2391,-0.640,-0.045
2392,-0.400,-0.080
2393,0.165,-0.150
2394,-0.140,-0.275
2395,-0.735,-0.320
2396,-0.545,-0.365
2397,0.050,-0.460
2398,-0.120,-0.440
2399,-0.770,-0.435
2400,-0.600,-0.320
2401,0.000,-0.400
2402,-0.155,-0.450
2403,-0.820,-0.415
2404,-0.770,-0.330
2405,-0.165,-0.345
2406,-0.220,-0.440
2407,-0.850,-0.405
2408,-0.800,-0.370
2409,-0.160,-0.375
2410,-0.135,-0.490
2411,-0.785,-0.440
2412,-0.830,-0.415
2413,-0.190,-0.395
2414,-0.090,-0.465
2415,-0.730,-0.445
2416,-0.895,-0.350
2417,-0.280,-0.370
2418,-0.040,-0.425
2419,-0.660,-0.350
2420,-1.040,-0.145
2421,-0.410,0.095
2422,0.130,0.125
2423,-0.090,0.060
2424,-0.180,0.195
2425,0.610,0.470
2426,1.455,-0.090
2427,1.340,-0.930
2428,0.710,-1.520
2429,0.310,-1.815
2430,0.225,-2.160
2431,-0.540,-2.540
2432,-1.550,-2.845
2433,-1.310,-2.830
2434,-0.410,-2.595
2435,-0.505,-2.060
2436,-0.960,-1.400
2437,-0.660,-0.840
2438,-0.070,-0.465
2439,-0.215,-0.330
2440,-0.890,-0.265
2441,-0.785,-0.195
2442,-0.140,-0.200
2443,-0.230,-0.265
2444,-0.870,-0.220
2445,-0.790,-0.165
2446,-0.150,-0.180
2447,-0.125,-0.250
2448,-0.780,-0.210
2449,-0.790,-0.155
2450,-0.170,-0.185
2451,-0.045,-0.210
2452,-0.680,-0.195
2453,-0.890,-0.100
2454,-0.310,-0.100
2455,-0.010,-0.160
2456,-0.550,-0.180
2457,-0.915,-0.080
2458,-0.400,-0.055
2459,0.020,-0.120
2460,-0.375,-0.135
2461,-0.860,-0.070
2462,-0.460,-0.020
2463,0.035,-0.095
2464,-0.335,-0.105
2465,-0.860,-0.030
2466,-0.510,0.025
2467,0.050,0.020
2468,-0.220,0.010
2469,-0.780,0.035
2470,-0.480,0.130
2471,0.105,0.120
2472,-0.135,0.090
2473,-0.705,0.145
2474,-0.500,0.235
2475,0.105,0.250
2476,-0.030,0.210
2477,-0.610,0.265
2478,-0.385,0.380
2479,0.225,0.345
2480,0.080,0.280
2481,-0.550,0.360
2482,-0.435,0.395
2483,0.190,0.385
2484,0.210,0.365
2485,-0.415,0.365
2486,-0.530,0.455
2487,0.065,0.450
2488,0.255,0.385
2489,-0.310,0.330
2490,-0.620,0.420
2491,-0.090,0.375
2492,0.195,0.295
2493,-0.365,0.210
2494,-0.740,0.280
2495,-0.285,0.255
2496,0.105,0.165
2497,-0.435,0.060
2498,-0.825,0.060
2499,-0.350,0.060
2500,0.000,-0.050
2501,-0.520,-0.125
2502,-0.885,-0.125
2503,-0.395,-0.110
2504,-0.045,-0.225
2505,-0.575,-0.250
2506,-0.905,-0.240
2507,-0.390,-0.215
2508,0.000,-0.320
2509,-0.505,-0.300
2510,-0.920,-0.265
2511,-0.440,-0.240
2512,-0.010,-0.300
2513,-0.375,-0.330
2514,-0.900,-0.270
2515,-0.580,-0.205
2516,0.000,-0.240
2517,-0.200,-0.340
2518,-0.840,-0.270
2519,-0.715,-0.195
2520,-0.045,-0.250
2521,-0.105,-0.280
2522,-0.740,-0.280
2523,-0.760,-0.120
2524,-0.105,-0.070
2525,0.020,-0.130
2526,-0.640,-0.250
2527,-0.855,-0.255
2528,-0.260,-0.240
2529,-0.020,-0.275
2530,-0.580,-0.310
2531,-0.880,-0.230
2532,-0.325,-0.215
2533,-0.025,-0.275
2534,-0.590,-0.300
2535,-0.900,-0.240
2536,-0.375,-0.190
2537,0.010,-0.240
2538,-0.470,-0.300
2539,-0.885,-0.240
2540,-0.470,-0.205
2541,0.010,-0.255
2542,-0.315,-0.290
2543,-0.900,-0.250
2544,-0.665,-0.220
2545,-0.045,-0.280
2546,-0.200,-0.320
2547,-0.825,-0.280
2548,-0.730,-0.220
2549,-0.125,-0.265
2550,-0.080,-0.280
2551,-0.710,-0.295
2552,-0.830,-0.195
2553,-0.195,-0.205
2554,0.000,-0.275
2555,-0.570,-0.315
2556,-0.880,-0.220
2557,-0.320,-0.230
2558,0.040,-0.285
2559,-0.470,-0.325
2560,-0.875,-0.260
2561,-0.460,-0.195
2562,0.020,-0.300
2563,-0.365,-0.290
2564,-0.865,-0.260
2565,-0.515,-0.195
2566,0.015,-0.245
2567,-0.265,-0.285
2568,-0.840,-0.250
2569,-0.570,-0.205
2570,0.065,-0.190
2571,-0.075,-0.275
2572,-0.705,-0.210
2573,-0.595,-0.110
2574,0.035,-0.080
2575,-0.005,-0.085
2576,-0.625,-0.045
2577,-0.595,0.065
2578,0.085,0.035
2579,0.180,-0.065
2580,-0.460,-0.155
2581,-0.730,-0.115
2582,-0.185,-0.150
2583,0.130,-0.290
2584,-0.390,-0.445
2585,-0.830,-0.370
2586,-0.380,-0.330
2587,0.080,-0.365
2588,-0.315,-0.370
2589,-0.870,-0.340
2590,-0.575,-0.330
2591,-0.050,-0.345
2592,-0.355,-0.360
2593,-0.940,-0.335
2594,-0.755,-0.295
2595,-0.120,-0.340
2596,-0.190,-0.410
2597,-0.845,-0.400
2598,-0.850,-0.350
2599,-0.220,-0.350
2600,-0.100,-0.395
2601,-0.745,-0.415
2602,-0.875,-0.350
2603,-0.270,-0.325
2604,-0.070,-0.385
2605,-0.660,-0.390
2606,-0.925,-0.320
2607,-0.395,-0.290
2608,-0.140,-0.230
2609,-0.635,0.020
2610,-0.840,0.260
2611,-0.100,0.235
2612,0.680,0.215
2613,0.655,0.445
2614,0.550,0.180
2615,1.120,-0.555
2616,1.645,-1.275
2617,0.795,-1.725
2618,-0.460,-1.990
2619,-0.855,-2.320
2620,-0.635,-2.550
2621,-0.755,-2.725
2622,-1.220,-2.890
2623,-1.140,-2.370
2624,-0.305,-1.625
2625,-0.065,-1.100
2626,-0.660,-0.695
2627,-0.860,-0.300
2628,-0.270,-0.190
2629,-0.075,-0.195
2630,-0.655,-0.150
2631,-0.880,-0.135
2632,-0.310,-0.110
2633,-0.085,-0.195
2634,-0.670,-0.170
2635,-0.900,-0.100
2636,-0.280,-0.105
2637,-0.010,-0.165
2638,-0.610,-0.180
2639,-0.880,-0.105
2640,-0.280,-0.120
2641,0.010,-0.130
2642,-0.515,-0.180
2643,-0.860,-0.130
2644,-0.360,-0.080
2645,0.030,-0.155
2646,-0.480,-0.155
2647,-0.910,-0.050
2648,-0.440,-0.050
2649,0.070,-0.110
2650,-0.320,-0.110
2651,-0.845,-0.075
2652,-0.535,0.030
2653,0.070,-0.005
2654,-0.150,-0.080
2655,-0.740,-0.025
2656,-0.560,0.085
2657,0.070,0.070
2658,-0.060,0.015
2659,-0.670,0.075
2660,-0.550,0.145
2661,0.080,0.170
2662,0.030,0.120
2663,-0.575,0.205
2664,-0.495,0.300
2665,0.165,0.290
2666,0.150,0.260
2667,-0.490,0.300
2668,-0.485,0.415
2669,0.155,0.385
2670,0.280,0.385
2671,-0.355,0.355
2672,-0.510,0.405
2673,0.110,0.380
2674,0.330,0.375
2675,-0.310,0.345
2676,-0.585,0.410
2677,0.010,0.445
2678,0.280,0.405
2679,-0.250,0.320
2680,-0.690,0.350
2681,-0.190,0.340
2682,0.245,0.285
2683,-0.200,0.195
2684,-0.770,0.195
2685,-0.430,0.180
2686,0.075,0.095
2687,-0.240,0.040
2688,-0.860,-0.025
2689,-0.610,0.000
2690,-0.025,-0.095
2691,-0.255,-0.160
2692,-0.875,-0.160
2693,-0.685,-0.140
2694,-0.040,-0.230
2695,-0.190,-0.310
2696,-0.820,-0.275
2697,-0.705,-0.265
2698,-0.090,-0.315
2699,-0.150,-0.360
2700,-0.795,-0.350
2701,-0.740,-0.295
2702,-0.115,-0.325
2703,-0.090,-0.395
2704,-0.720,-0.355
2705,-0.810,-0.300
2706,-0.175,-0.290
2707,-0.025,-0.380
2708,-0.650,-0.335
2709,-0.850,-0.280
2710,-0.260,-0.260
2711,0.010,-0.320
2712,-0.510,-0.325
2713,-0.890,-0.260
2714,-0.345,-0.260
2715,0.040,-0.315
2716,-0.420,-0.350
2717,-0.905,-0.290
2718,-0.465,-0.230
2719,0.005,-0.305
2720,-0.370,-0.330
2721,-0.890,-0.290
2722,-0.565,-0.245
2723,-0.005,-0.280
2724,-0.275,-0.350
2725,-0.870,-0.300
2726,-0.640,-0.265
2727,-0.030,-0.305
2728,-0.250,-0.340
2729,-0.875,-0.370
2730,-0.600,-0.280
2731,-0.015,-0.345
2732,-0.250,-0.375
2733,-0.875,-0.355
2734,-0.655,-0.310
2735,-0.060,-0.320
2736,-0.210,-0.395
2737,-0.865,-0.340
2738,-0.695,-0.300
2739,-0.060,-0.340
2740,-0.165,-0.410
2741,-0.800,-0.365
2742,-0.740,-0.315
2743,-0.115,-0.300
2744,-0.160,-0.390
2745,-0.815,-0.395
2746,-0.810,-0.330
2747,-0.160,-0.350
2748,-0.120,-0.385
2749,-0.765,-0.380
2750,-0.860,-0.320
2751,-0.250,-0.320
2752,-0.060,-0.420
2753,-0.650,-0.390
2754,-0.865,-0.360
2755,-0.285,-0.330
2756,0.000,-0.370
2757,-0.595,-0.340
2758,-0.820,-0.300
2759,-0.240,-0.300
2760,0.055,-0.320
2761,-0.510,-0.285
2762,-0.790,-0.170
2763,-0.255,-0.130
2764,0.030,-0.185
2765,-0.475,-0.170
2766,-0.680,-0.085
2767,-0.165,-0.120
2768,0.115,-0.225
2769,-0.450,-0.305
2770,-0.770,-0.265
2771,-0.235,-0.375
2772,0.020,-0.485
2773,-0.540,-0.505
2774,-0.855,-0.415
2775,-0.320,-0.375
2776,-0.015,-0.445
2777,-0.545,-0.480
2778,-0.985,-0.420
2779,-0.580,-0.355
2780,-0.095,-0.390
2781,-0.460,-0.445
2782,-0.985,-0.435
2783,-0.705,-0.380
2784,-0.110,-0.425
2785,-0.300,-0.500
2786,-0.905,-0.440
2787,-0.770,-0.400
2788,-0.160,-0.435
2789,-0.220,-0.540
2790,-0.840,-0.460
2791,-0.785,-0.415
2792,-0.165,-0.445
2793,-0.180,-0.510
2794,-0.875,-0.460
2795,-0.915,-0.355
2796,-0.360,-0.175
2797,-0.205,0.005
2798,-0.590,0.095
2799,-0.335,0.105
2800,0.645,0.175
2801,1.125,0.440
2802,0.890,0.130
2803,0.890,-0.610
2804,1.070,-1.230
2805,0.460,-1.555
2806,-0.670,-1.890
2807,-1.375,-2.225
2808,-1.085,-2.375
2809,-0.600,-2.555
2810,-0.855,-2.600
2811,-1.265,-2.135
2812,-0.650,-1.480
2813,0.005,-1.070
2814,-0.365,-0.710
2815,-0.915,-0.350
2816,-0.665,-0.210
2817,-0.060,-0.230
2818,-0.280,-0.295
2819,-0.915,-0.265
2820,-0.720,-0.215
2821,-0.100,-0.235
2822,-0.175,-0.285
2823,-0.805,-0.240
2824,-0.710,-0.200
2825,-0.105,-0.170
2826,-0.155,-0.260
2827,-0.820,-0.245
2828,-0.715,-0.185
2829,-0.090,-0.170
2830,-0.115,-0.260
2831,-0.790,-0.190
2832,-0.750,-0.145
2833,-0.085,-0.185
2834,-0.140,-0.205
2835,-0.790,-0.155
2836,-0.720,-0.090
2837,-0.080,-0.125
2838,-0.040,-0.185
2839,-0.660,-0.180
2840,-0.735,-0.055
2841,-0.075,-0.085
2842,0.030,-0.120
2843,-0.570,-0.100
2844,-0.740,0.000
2845,-0.130,-0.010
2846,0.070,-0.015
2847,-0.530,-0.040
2848,-0.720,0.040
2849,-0.135,0.110
2850,0.200,0.045
2851,-0.305,0.065
2852,-0.625,0.125
2853,-0.105,0.195
2854,0.235,0.195
2855,-0.300,0.190
2856,-0.615,0.250
2857,-0.030,0.300
2858,0.295,0.235
2859,-0.190,0.240
2860,-0.550,0.285
2861,-0.025,0.280
2862,0.295,0.250
2863,-0.230,0.225
2864,-0.580,0.310
2865,-0.075,0.295
2866,0.270,0.245
2867,-0.250,0.190
2868,-0.645,0.215
2869,-0.175,0.200
2870,0.120,0.085
2871,-0.400,0.035
2872,-0.800,0.045
2873,-0.315,0.025
2874,0.035,-0.070
2875,-0.465,-0.145
2876,-0.885,-0.130
2877,-0.390,-0.085
2878,0.045,-0.205
2879,-0.345,-0.275
2880,-0.865,-0.260
2881,-0.470,-0.235
2882,0.020,-0.305
2883,-0.385,-0.330
2884,-0.890,-0.290
2885,-0.515,-0.265
2886,0.010,-0.305
2887,-0.325,-0.345
2888,-0.875,-0.280
2889,-0.555,-0.255
2890,0.010,-0.300
2891,-0.300,-0.385
2892,-0.875,-0.290
2893,-0.570,-0.245
2894,-0.015,-0.305
2895,-0.265,-0.380
2896,-0.845,-0.320
2897,-0.540,-0.265
2898,0.020,-0.280
2899,-0.220,-0.360
2900,-0.840,-0.300
2901,-0.630,-0.260
2902,-0.030,-0.260
2903,-0.230,-0.340
2904,-0.840,-0.290
2905,-0.685,-0.230
2906,-0.010,-0.270
2907,-0.135,-0.370
2908,-0.770,-0.330
2909,-0.710,-0.260
2910,-0.065,-0.280
2911,-0.015,-0.355
2912,-0.700,-0.370
2913,-0.795,-0.300
2914,-0.170,-0.250
2915,0.005,-0.340
2916,-0.615,-0.345
2917,-0.855,-0.295
2918,-0.260,-0.280
2919,0.025,-0.390
2920,-0.560,-0.400
2921,-0.900,-0.360
2922,-0.345,-0.330
2923,0.005,-0.375
2924,-0.505,-0.390
2925,-0.865,-0.325
2926,-0.315,-0.320
2927,0.020,-0.360
2928,-0.525,-0.425
2929,-0.900,-0.330
2930,-0.380,-0.320
2931,0.000,-0.405
2932,-0.490,-0.390
2933,-0.885,-0.310
2934,-0.375,-0.315
2935,0.030,-0.375
2936,-0.420,-0.425
2937,-0.870,-0.375
2938,-0.465,-0.280
2939,0.040,-0.375
2940,-0.325,-0.410
2941,-0.895,-0.380
2942,-0.655,-0.300
2943,-0.055,-0.385
2944,-0.210,-0.400
2945,-0.850,-0.410
2946,-0.700,-0.295
2947,-0.050,-0.315
2948,-0.040,-0.405
2949,-0.680,-0.340
2950,-0.670,-0.210
2951,-0.035,-0.155
2952,0.010,-0.240
2953,-0.660,-0.170
2954,-0.600,-0.095
2955,0.025,-0.085
2956,0.085,-0.195
2957,-0.540,-0.255
2958,-0.640,-0.265
2959,-0.075,-0.350
2960,-0.040,-0.450
2961,-0.665,-0.540
2962,-0.725,-0.440
2963,-0.130,-0.470
2964,-0.075,-0.475
2965,-0.690,-0.540
2966,-0.805,-0.435
2967,-0.235,-0.450
2968,-0.160,-0.480
2969,-0.795,-0.470
2970,-0.930,-0.410
2971,-0.330,-0.445
2972,-0.160,-0.500
2973,-0.700,-0.495
2974,-1.005,-0.455
2975,-0.450,-0.420
2976,-0.090,-0.510
2977,-0.600,-0.530
2978,-0.955,-0.485
2979,-0.460,-0.425
2980,-0.065,-0.485
2981,-0.495,-0.505
2982,-0.950,-0.470
2983,-0.570,-0.375
2984,-0.160,-0.320
2985,-0.565,-0.105
2986,-0.860,0.070
2987,-0.220,0.105
2988,0.595,0.045
2989,0.625,0.260
2990,0.540,0.295
2991,1.155,-0.425
2992,1.475,-1.200
2993,0.420,-1.610
2994,-0.760,-1.850
2995,-0.835,-2.125
2996,-0.670,-2.305
2997,-1.050,-2.700
2998,-1.410,-2.725
2999,-0.940,-2.120
3000,-0.170,-1.520
3001,-0.315,-1.085
3002,-0.860,-0.655
3003,-0.680,-0.310
3004,-0.095,-0.240
3005,-0.315,-0.290
3006,-0.920,-0.255
3007,-0.735,-0.200
3008,-0.095,-0.230
3009,-0.210,-0.260
3010,-0.850,-0.230
3011,-0.755,-0.200
3012,-0.125,-0.195
3013,-0.140,-0.280
3014,-0.760,-0.240
3015,-0.780,-0.160
3016,-0.175,-0.175
3017,-0.085,-0.210
3018,-0.720,-0.240
3019,-0.815,-0.160
3020,-0.175,-0.190
3021,-0.060,-0.225
3022,-0.675,-0.190
3023,-0.770,-0.140
3024,-0.165,-0.100
3025,-0.060,-0.165
3026,-0.670,-0.180
3027,-0.780,-0.105
3028,-0.155,-0.105
3029,-0.010,-0.140
3030,-0.595,-0.140
3031,-0.750,-0.035
3032,-0.125,-0.005
3033,0.075,-0.030
3034,-0.510,-0.020
3035,-0.710,0.075
3036,-0.120,0.110
3037,0.190,0.120
3038,-0.385,0.100
3039,-0.690,0.175
3040,-0.155,0.260
3041,0.260,0.200
3042,-0.215,0.235
3043,-0.665,0.310
3044,-0.245,0.355
3045,0.290,0.345
3046,-0.025,0.310
3047,-0.580,0.375
3048,-0.280,0.415
3049,0.295,0.385
3050,0.090,0.350
3051,-0.530,0.350
3052,-0.370,0.385
3053,0.205,0.380
3054,0.090,0.280
3055,-0.570,0.280
3056,-0.535,0.350
3057,0.065,0.260
3058,0.055,0.165
3059,-0.635,0.130
3060,-0.685,0.160
3061,-0.070,0.065
3062,-0.015,-0.005
3063,-0.660,-0.060
3064,-0.815,-0.035
3065,-0.190,-0.075
3066,0.010,-0.185
3067,-0.610,-0.220
3068,-0.905,-0.195
3069,-0.335,-0.160
3070,0.045,-0.290
3071,-0.455,-0.295
3072,-0.925,-0.280
3073,-0.490,-0.220
3074,0.030,-0.290
3075,-0.285,-0.345
3076,-0.865,-0.285
3077,-0.585,-0.230
3078,-0.015,-0.260
3079,-0.170,-0.350
3080,-0.785,-0.330
3081,-0.695,-0.290
3082,-0.065,-0.295
3083,-0.100,-0.350
3084,-0.750,-0.300
3085,-0.740,-0.240
3086,-0.090,-0.290
3087,-0.030,-0.320
3088,-0.670,-0.280
3089,-0.690,-0.205
3090,-0.065,-0.235
3091,-0.035,-0.295
3092,-0.685,-0.305
3093,-0.725,-0.220
3094,-0.095,-0.235
3095,-0.015,-0.270
3096,-0.660,-0.275
3097,-0.735,-0.235
3098,-0.105,-0.235
3099,0.065,-0.270
3100,-0.590,-0.275
3101,-0.835,-0.270
3102,-0.285,-0.215
3103,0.090,-0.330
3104,-0.435,-0.320
3105,-0.860,-0.280
3106,-0.410,-0.225
3107,0.110,-0.300
3108,-0.250,-0.320
3109,-0.820,-0.270
3110,-0.550,-0.265
3111,0.020,-0.280
3112,-0.185,-0.345
3113,-0.795,-0.255
3114,-0.640,-0.260
3115,-0.025,-0.270
3116,-0.135,-0.340
3117,-0.760,-0.315
3118,-0.645,-0.235
3119,-0.040,-0.295
3120,-0.115,-0.340
3121,-0.755,-0.320
3122,-0.665,-0.275
3123,-0.030,-0.320
3124,-0.090,-0.335
3125,-0.750,-0.340
3126,-0.700,-0.280
3127,-0.065,-0.320
3128,-0.050,-0.370
3129,-0.660,-0.370
3130,-0.760,-0.315
3131,-0.145,-0.295
3132,0.005,-0.355
3133,-0.610,-0.385
3134,-0.785,-0.265
3135,-0.155,-0.240
3136,0.150,-0.365
3137,-0.375,-0.330
3138,-0.725,-0.215
3139,-0.220,-0.140
3140,0.180,-0.130
3141,-0.260,-0.160
3142,-0.700,-0.050
3143,-0.265,-0.010
3144,0.255,-0.100
3145,-0.090,-0.200
3146,-0.680,-0.190
3147,-0.390,-0.185
3148,0.140,-0.295
3149,-0.115,-0.480
3150,-0.720,-0.450
3151,-0.520,-0.400
3152,0.050,-0.395
3153,-0.130,-0.480
3154,-0.755,-0.420
3155,-0.675,-0.385
3156,-0.090,-0.390
3157,-0.160,-0.410
3158,-0.785,-0.420
3159,-0.820,-0.325
3160,-0.175,-0.375
3161,-0.095,-0.470
3162,-0.705,-0.470
3163,-0.870,-0.395
3164,-0.255,-0.360
3165,0.020,-0.445
3166,-0.515,-0.470
3167,-0.885,-0.390
3168,-0.400,-0.395
3169,0.075,-0.435
3170,-0.340,-0.435
3171,-0.895,-0.380
3172,-0.655,-0.320
3173,-0.110,-0.270
3174,-0.345,-0.110
3175,-0.815,0.130
3176,-0.415,0.205
3177,0.490,0.145
3178,0.835,0.245
3179,0.565,0.280
3180,0.835,-0.420
3181,1.570,-1.200
3182,1.305,-1.775
3183,0.000,-2.005
3184,-0.840,-2.315
3185,-0.745,-2.500
3186,-0.610,-2.650
3187,-0.965,-2.890
3188,-1.295,-2.675
3189,-0.700,-1.835
3190,0.025,-1.270
3191,-0.270,-0.875
3192,-0.880,-0.440
3193,-0.650,-0.225
3194,-0.040,-0.210
3195,-0.235,-0.275
3196,-0.850,-0.235
3197,-0.775,-0.195
3198,-0.105,-0.195
3199,-0.045,-0.275
3200,-0.710,-0.255
3201,-0.870,-0.205
3202,-0.285,-0.160
3203,0.015,-0.235
3204,-0.535,-0.230
3205,-0.895,-0.155
3206,-0.390,-0.135
3207,0.085,-0.185
3208,-0.320,-0.230
3209,-0.880,-0.165
3210,-0.540,-0.115
3211,0.025,-0.150
3212,-0.220,-0.185
3213,-0.835,-0.165
3214,-0.650,-0.100
3215,-0.030,-0.120
3216,-0.105,-0.205
3217,-0.720,-0.140
3218,-0.655,-0.050
3219,-0.025,-0.055
3220,-0.050,-0.100
3221,-0.655,-0.060
3222,-0.650,0.030
3223,-0.005,0.015
3224,0.040,0.005
3225,-0.560,0.045
3226,-0.610,0.115
3227,0.015,0.145
3228,0.195,0.120
3229,-0.420,0.120
3230,-0.600,0.250
3231,-0.005,0.275
3232,0.265,0.195
3233,-0.320,0.275
3234,-0.580,0.345
3235,-0.015,0.395
3236,0.395,0.335
3237,-0.070,0.325
3238,-0.520,0.380
3239,-0.065,0.405
3240,0.395,0.395
3241,0.045,0.345
3242,-0.550,0.395
3243,-0.305,0.430
3244,0.275,0.400
3245,0.090,0.325
3246,-0.570,0.350
3247,-0.465,0.340
3248,0.145,0.300
3249,0.025,0.190
3250,-0.665,0.170
3251,-0.590,0.170
3252,0.010,0.095
3253,-0.075,0.005
3254,-0.720,-0.050
3255,-0.715,-0.035
3256,-0.080,-0.080
3257,-0.075,-0.185
3258,-0.705,-0.215
3259,-0.740,-0.180
3260,-0.105,-0.195
3261,-0.075,-0.285
3262,-0.710,-0.320
3263,-0.760,-0.265
3264,-0.145,-0.265
3265,0.020,-0.330
3266,-0.595,-0.350
3267,-0.810,-0.310
3268,-0.210,-0.260
3269,0.070,-0.295
3270,-0.495,-0.335
3271,-0.860,-0.260
3272,-0.395,-0.255
3273,0.040,-0.295
3274,-0.350,-0.325
3275,-0.835,-0.235
3276,-0.445,-0.235
3277,0.105,-0.255
3278,-0.215,-0.295
3279,-0.770,-0.240
3280,-0.525,-0.200
3281,0.055,-0.240
3282,-0.200,-0.295
3283,-0.800,-0.250
3284,-0.605,-0.225
3285,0.020,-0.240
3286,-0.165,-0.285
3287,-0.785,-0.280
3288,-0.635,-0.205
3289,-0.020,-0.240
3290,-0.070,-0.310
3291,-0.725,-0.295
3292,-0.720,-0.215
3293,-0.105,-0.270
3294,-0.010,-0.320
3295,-0.635,-0.295
3296,-0.795,-0.280
3297,-0.215,-0.260
3298,0.110,-0.320
3299,-0.400,-0.320
3300,-0.880,-0.285
3301,-0.475,-0.255
3302,0.025,-0.305
3303,-0.280,-0.370
3304,-0.860,-0.300
3305,-0.565,-0.275
3306,0.050,-0.280
3307,-0.040,-0.335
3308,-0.690,-0.310
3309,-0.710,-0.255
3310,-0.055,-0.280
3311,-0.045,-0.340
3312,-0.675,-0.350
3313,-0.775,-0.260
3314,-0.140,-0.270
3315,0.025,-0.305
3316,-0.570,-0.350
3317,-0.755,-0.260
3318,-0.160,-0.245
3319,0.060,-0.335
3320,-0.515,-0.360
3321,-0.800,-0.305
3322,-0.290,-0.270
3323,0.085,-0.315
3324,-0.400,-0.340
3325,-0.820,-0.325
3326,-0.425,-0.240
3327,0.130,-0.290
3328,-0.220,-0.310
3329,-0.740,-0.250
3330,-0.455,-0.175
3331,0.165,-0.175
3332,0.000,-0.175
3333,-0.635,-0.105
3334,-0.510,-0.030
3335,0.160,-0.020
3336,0.200,-0.155
3337,-0.475,-0.165
3338,-0.625,-0.170
3339,-0.010,-0.175
3340,0.165,-0.325
3341,-0.425,-0.445
3342,-0.755,-0.445
3343,-0.205,-0.415
3344,0.140,-0.435
3345,-0.415,-0.435
3346,-0.790,-0.370
3347,-0.330,-0.385
3348,0.035,-0.440
3349,-0.440,-0.430
3350,-0.885,-0.365
3351,-0.450,-0.335
3352,0.035,-0.390
3353,-0.375,-0.480
3354,-0.870,-0.440
3355,-0.535,-0.400
3356,0.000,-0.445
3357,-0.330,-0.475
3358,-0.850,-0.425
3359,-0.595,-0.370
3360,-0.015,-0.410
3361,-0.275,-0.490
3362,-0.830,-0.400
3363,-0.625,-0.340
3364,-0.050,-0.340
3365,-0.245,-0.330
3366,-0.855,-0.075
3367,-0.670,0.155
3368,0.150,0.160
3369,0.525,0.045
3370,0.285,0.230
3371,0.500,0.485
3372,1.390,-0.070
3373,1.700,-0.870
3374,0.735,-1.430
3375,-0.315,-1.615
3376,-0.340,-1.930
3377,-0.320,-2.255
3378,-1.000,-2.530
3379,-1.435,-2.710
3380,-0.850,-2.395
3381,-0.210,-1.845
3382,-0.405,-1.355
3383,-0.795,-0.890
3384,-0.505,-0.470
3385,-0.015,-0.265
3386,-0.370,-0.295
3387,-0.865,-0.235
3388,-0.555,-0.135
3389,-0.025,-0.235
3390,-0.315,-0.260
3391,-0.840,-0.215
3392,-0.585,-0.170
3393,-0.020,-0.205
3394,-0.175,-0.290
3395,-0.765,-0.260
3396,-0.640,-0.180
3397,-0.045,-0.210
3398,-0.025,-0.270
3399,-0.670,-0.225
3400,-0.775,-0.200
3401,-0.155,-0.170
3402,0.020,-0.280
3403,-0.520,-0.245
3404,-0.825,-0.155
3405,-0.280,-0.160
3406,0.105,-0.190
3407,-0.315,-0.275
3408,-0.770,-0.150
3409,-0.385,-0.120
3410,0.135,-0.130
3411,-0.165,-0.195
3412,-0.720,-0.105
3413,-0.450,-0.050
3414,0.125,-0.080
3415,-0.100,-0.080
3416,-0.615,-0.030
3417,-0.420,0.055
3418,0.160,0.055
3419,0.005,0.010
3420,-0.535,0.035
3421,-0.350,0.145
3422,0.225,0.185
3423,0.160,0.150
3424,-0.450,0.155
3425,-0.395,0.265
3426,0.185,0.285
3427,0.255,0.235
3428,-0.360,0.255
3429,-0.475,0.310
3430,0.155,0.330
3431,0.345,0.240
3432,-0.175,0.270
3433,-0.495,0.315
3434,-0.005,0.370
3435,0.380,0.305
3436,-0.045,0.230
3437,-0.570,0.285
3438,-0.265,0.300
3439,0.220,0.215
3440,-0.060,0.120
3441,-0.655,0.130
3442,-0.525,0.125
3443,0.035,0.040
3444,-0.085,-0.075
3445,-0.720,-0.070
3446,-0.655,-0.025
3447,-0.080,-0.115
3448,-0.140,-0.200
3449,-0.725,-0.260
3450,-0.700,-0.200
3451,-0.095,-0.275
3452,-0.050,-0.345
3453,-0.665,-0.360
3454,-0.810,-0.345
3455,-0.225,-0.300
3456,-0.030,-0.375
3457,-0.615,-0.405
3458,-0.860,-0.335
3459,-0.305,-0.320
3460,0.050,-0.410
3461,-0.470,-0.410
3462,-0.870,-0.350
3463,-0.435,-0.335
3464,0.060,-0.370
3465,-0.290,-0.415
3466,-0.835,-0.345
3467,-0.560,-0.290
3468,0.020,-0.350
3469,-0.135,-0.410
3470,-0.760,-0.350
3471,-0.680,-0.310
3472,-0.060,-0.360
3473,-0.095,-0.350
3474,-0.740,-0.350
3475,-0.725,-0.285
3476,-0.105,-0.310
3477,-0.045,-0.395
3478,-0.670,-0.360
3479,-0.745,-0.275
3480,-0.140,-0.285
3481,-0.030,-0.340
3482,-0.620,-0.385
3483,-0.735,-0.315
3484,-0.145,-0.315
3485,-0.020,-0.340
3486,-0.620,-0.365
3487,-0.825,-0.305
3488,-0.260,-0.305
3489,-0.020,-0.405
3490,-0.545,-0.410
3491,-0.860,-0.365
3492,-0.330,-0.320
3493,0.060,-0.385
3494,-0.390,-0.400
3495,-0.855,-0.335
3496,-0.470,-0.315
3497,0.005,-0.360
3498,-0.320,-0.400
3499,-0.855,-0.375
3500,-0.595,-0.315
3501,-0.005,-0.360
3502,-0.160,-0.445
3503,-0.745,-0.405
3504,-0.695,-0.345
3505,-0.070,-0.370
3506,-0.120,-0.430
3507,-0.760,-0.440
3508,-0.835,-0.335
3509,-0.160,-0.340
3510,-0.020,-0.430
3511,-0.580,-0.445
3512,-0.760,-0.375
3513,-0.195,-0.345
3514,-0.040,-0.430
3515,-0.635,-0.410
3516,-0.825,-0.380
3517,-0.285,-0.355
3518,-0.035,-0.435
3519,-0.555,-0.415
3520,-0.765,-0.360
3521,-0.180,-0.305
3522,0.140,-0.375
3523,-0.420,-0.395
3524,-0.760,-0.280
3525,-0.235,-0.170
3526,0.160,-0.180
3527,-0.340,-0.215
3528,-0.730,-0.120
3529,-0.245,-0.055
3530,0.265,-0.125
3531,-0.080,-0.280
3532,-0.675,-0.265
3533,-0.445,-0.235
3534,0.065,-0.355
3535,-0.090,-0.485
3536,-0.725,-0.510
3537,-0.670,-0.430
3538,-0.020,-0.440
3539,0.040,-0.485
3540,-0.635,-0.470
3541,-0.830,-0.400
3542,-0.265,-0.410
3543,-0.105,-0.460
3544,-0.665,-0.460
3545,-0.955,-0.420
3546,-0.385,-0.410
3547,-0.050,-0.485
3548,-0.590,-0.500
3549,-0.885,-0.420
3550,-0.355,-0.415
3551,-0.005,-0.475
3552,-0.515,-0.490
3553,-0.885,-0.435
3554,-0.410,-0.415
3555,0.000,-0.450
3556,-0.470,-0.455
3557,-0.895,-0.415
3558,-0.505,-0.360
3559,-0.100,-0.350
3560,-0.510,-0.195
3561,-0.875,0.085
3562,-0.345,0.165
3563,0.485,0.065
3564,0.685,0.095
3565,0.455,0.480
3566,0.875,0.105
3567,1.615,-0.640
3568,1.360,-1.300
3569,0.025,-1.525
3570,-0.770,-1.730
3571,-0.575,-2.020
3572,-0.620,-2.215
3573,-1.170,-2.625
3574,-1.385,-2.610
3575,-0.715,-2.070
3576,-0.120,-1.545
3577,-0.425,-1.160
3578,-0.850,-0.680
3579,-0.480,-0.290
3580,0.030,-0.235
3581,-0.330,-0.280
3582,-0.845,-0.195
3583,-0.545,-0.150
3584,0.000,-0.215
3585,-0.280,-0.250
3586,-0.855,-0.185
3587,-0.600,-0.155
3588,0.000,-0.205
3589,-0.170,-0.245
3590,-0.790,-0.200
3591,-0.700,-0.150
3592,-0.040,-0.160
3593,-0.045,-0.230
3594,-0.680,-0.210
3595,-0.795,-0.145
3596,-0.180,-0.140
3597,0.100,-0.175
3598,-0.445,-0.200
3599,-0.810,-0.120
3600,-0.280,-0.090
3601,0.100,-0.155
3602,-0.300,-0.160
3603,-0.800,-0.120
3604,-0.455,-0.055
3605,0.090,-0.090
3606,-0.155,-0.115
3607,-0.720,-0.050
3608,-0.495,0.035
3609,0.120,-0.020
3610,-0.015,-0.055
3611,-0.580,-0.015
3612,-0.465,0.060
3613,0.145,0.085
3614,-0.010,0.055
3615,-0.590,0.110
3616,-0.460,0.210
3617,0.180,0.185
3618,0.115,0.190
3619,-0.475,0.235
3620,-0.400,0.315
3621,0.225,0.325
3622,0.220,0.295
3623,-0.395,0.290
3624,-0.430,0.365
3625,0.155,0.390
3626,0.320,0.310
3627,-0.280,0.315
3628,-0.475,0.380
3629,0.065,0.400
3630,0.340,0.305
3631,-0.230,0.305
3632,-0.640,0.335
3633,-0.220,0.330
3634,0.200,0.230
3635,-0.210,0.175
3636,-0.790,0.190
3637,-0.420,0.195
3638,0.105,0.095
3639,-0.210,-0.015
3640,-0.765,-0.025
3641,-0.545,-0.040
3642,0.040,-0.110
3643,-0.215,-0.160
3644,-0.840,-0.160
3645,-0.635,-0.150
3646,-0.015,-0.180
3647,-0.155,-0.260
3648,-0.770,-0.295
3649,-0.675,-0.210
3650,-0.040,-0.240
3651,-0.060,-0.325
3652,-0.705,-0.315
3653,-0.765,-0.215
3654,-0.140,-0.225
3655,0.010,-0.305
3656,-0.620,-0.315
3657,-0.810,-0.235
3658,-0.155,-0.210
3659,0.075,-0.295
3660,-0.470,-0.270
3661,-0.830,-0.245
3662,-0.330,-0.195
3663,0.095,-0.280
3664,-0.335,-0.300
3665,-0.835,-0.260
3666,-0.470,-0.185
3667,0.080,-0.235
3668,-0.180,-0.310
3669,-0.770,-0.245
3670,-0.535,-0.190
3671,0.040,-0.245
3672,-0.070,-0.290
3673,-0.720,-0.265
3674,-0.715,-0.195
3675,-0.065,-0.240
3676,-0.040,-0.290
3677,-0.640,-0.295
3678,-0.750,-0.200
3679,-0.130,-0.210
3680,0.065,-0.260
3681,-0.565,-0.300
3682,-0.785,-0.210
3683,-0.215,-0.225
3684,0.065,-0.295
3685,-0.490,-0.300
3686,-0.825,-0.275
3687,-0.345,-0.220
3688,0.075,-0.315
3689,-0.375,-0.340
3690,-0.855,-0.285
3691,-0.410,-0.240
3692,0.075,-0.280
3693,-0.280,-0.355
3694,-0.830,-0.275
3695,-0.575,-0.250
3696,0.010,-0.265
3697,-0.105,-0.340
3698,-0.740,-0.300
3699,-0.735,-0.280
3700,-0.080,-0.285
3701,0.010,-0.370
3702,-0.625,-0.380
3703,-0.845,-0.260
3704,-0.295,-0.265
3705,0.035,-0.310
3706,-0.460,-0.345
3707,-0.880,-0.290
3708,-0.435,-0.245
3709,0.060,-0.300
3710,-0.285,-0.340
3711,-0.815,-0.325
3712,-0.520,-0.240
3713,0.035,-0.300
3714,-0.220,-0.340
3715,-0.810,-0.305
3716,-0.605,-0.220
3717,0.040,-0.255
3718,-0.060,-0.295
3719,-0.680,-0.270
3720,-0.600,-0.120
3721,0.080,-0.100
3722,0.085,-0.150
3723,-0.590,-0.125
3724,-0.605,-0.050
3725,0.065,-0.015
3726,0.215,-0.160
3727,-0.405,-0.185
3728,-0.705,-0.190
3729,-0.185,-0.220
3730,0.150,-0.335
3731,-0.345,-0.450
3732,-0.825,-0.430
3733,-0.435,-0.375
3734,0.085,-0.380
3735,-0.190,-0.435
3736,-0.805,-0.380
3737,-0.630,-0.325
3738,-0.055,-0.420
3739,-0.220,-0.390
3740,-0.855,-0.380
3741,-0.755,-0.345
3742,-0.160,-0.360
3743,-0.205,-0.435
3744,-0.835,-0.440
3745,-0.790,-0.375
3746,-0.150,-0.360
3747,-0.160,-0.415
3748,-0.805,-0.420
3749,-0.810,-0.355
3750,-0.175,-0.370
3751,-0.080,-0.420
3752,-0.725,-0.405
3753,-0.810,-0.335
3754,-0.250,-0.285
3755,-0.170,-0.260
3756,-0.795,-0.065
3757,-0.875,0.185
3758,-0.050,0.205
3759,0.575,0.125
3760,0.495,0.310
3761,0.425,0.405
3762,1.120,-0.320
3763,1.715,-1.105
3764,1.040,-1.660
3765,-0.295,-1.815
3766,-0.680,-2.090
3767,-0.520,-2.360
3768,-0.850,-2.630
3769,-1.375,-2.810
3770,-1.130,-2.535
3771,-0.310,-1.780
3772,-0.120,-1.230
3773,-0.680,-0.795
3774,-0.830,-0.355
3775,-0.245,-0.205
3776,-0.100,-0.180
3777,-0.675,-0.200
3778,-0.890,-0.095
3779,-0.320,-0.105
3780,0.005,-0.190
3781,-0.550,-0.225
3782,-0.895,-0.140
3783,-0.380,-0.120
3784,0.030,-0.190
3785,-0.430,-0.185
3786,-0.920,-0.140
3787,-0.515,-0.115
3788,0.025,-0.160
3789,-0.225,-0.165
3790,-0.845,-0.115
3791,-0.675,-0.090
3792,-0.020,-0.110
3793,-0.090,-0.190
3794,-0.725,-0.150
3795,-0.765,-0.040
3796,-0.115,-0.045
3797,0.040,-0.090
3798,-0.575,-0.115
3799,-0.785,-0.005
3800,-0.170,0.000
3801,0.105,-0.015
3802,-0.440,-0.020
3803,-0.795,0.050
3804,-0.245,0.085
3805,0.145,0.060
3806,-0.330,0.035
3807,-0.750,0.115
3808,-0.310,0.210
3809,0.220,0.175
3810,-0.105,0.160
3811,-0.625,0.230
3812,-0.295,0.335
3813,0.290,0.305
3814,0.015,0.320
3815,-0.550,0.370
3816,-0.290,0.440
3817,0.295,0.435
3818,0.155,0.410
3819,-0.460,0.440
3820,-0.295,0.510
3821,0.325,0.495
3822,0.255,0.405
3823,-0.420,0.450
3824,-0.420,0.505
3825,0.220,0.495
3826,0.285,0.425
3827,-0.340,0.395
3828,-0.565,0.445
3829,0.015,0.415
3830,0.240,0.335
3831,-0.320,0.260
3832,-0.760,0.295
3833,-0.235,0.240
3834,0.140,0.130
3835,-0.305,0.040
3836,-0.795,0.055
3837,-0.425,0.065
3838,0.085,-0.025
3839,-0.245,-0.125
3840,-0.825,-0.140
3841,-0.540,-0.105
3842,0.055,-0.155
3843,-0.170,-0.210
3844,-0.800,-0.205
3845,-0.600,-0.155
3846,0.025,-0.195
3847,-0.110,-0.290
3848,-0.740,-0.255
3849,-0.625,-0.215
3850,0.005,-0.205
3851,-0.035,-0.305
3852,-0.690,-0.260
3853,-0.650,-0.225
3854,-0.020,-0.200
3855,0.000,-0.250
3856,-0.645,-0.235
3857,-0.665,-0.195
3858,-0.025,-0.200
3859,0.065,-0.230
3860,-0.580,-0.225
3861,-0.770,-0.165
3862,-0.180,-0.130
3863,0.130,-0.200
3864,-0.430,-0.240
3865,-0.800,-0.130
3866,-0.290,-0.130
3867,0.105,-0.215
3868,-0.390,-0.260
3869,-0.785,-0.200
3870,-0.330,-0.160
3871,0.090,-0.200
3872,-0.295,-0.220
3873,-0.790,-0.210
3874,-0.395,-0.145
3875,0.090,-0.200
3876,-0.285,-0.245
3877,-0.800,-0.225
3878,-0.460,-0.155
3879,0.085,-0.230
3880,-0.270,-0.275
3881,-0.795,-0.230
3882,-0.440,-0.175
3883,0.100,-0.235
3884,-0.225,-0.275
3885,-0.780,-0.245
3886,-0.500,-0.185
3887,0.080,-0.240
3888,-0.180,-0.280
3889,-0.780,-0.270
3890,-0.615,-0.210
3891,-0.015,-0.250
3892,-0.055,-0.305
3893,-0.715,-0.285
3894,-0.690,-0.205
3895,-0.045,-0.220
3896,0.015,-0.305
3897,-0.630,-0.325
3898,-0.770,-0.240
3899,-0.150,-0.255
3900,0.055,-0.305
3901,-0.535,-0.330
3902,-0.815,-0.235
3903,-0.215,-0.210
3904,0.075,-0.295
3905,-0.475,-0.310
3906,-0.790,-0.270
3907,-0.240,-0.210
3908,0.090,-0.305
3909,-0.470,-0.320
3910,-0.740,-0.260
3911,-0.155,-0.190
3912,0.140,-0.235
3913,-0.390,-0.225
3914,-0.695,-0.130
3915,-0.140,-0.030
3916,0.195,-0.085
3917,-0.290,-0.035
3918,-0.620,0.020
3919,-0.115,0.000
3920,0.285,-0.105
3921,-0.185,-0.210
3922,-0.725,-0.210
3923,-0.375,-0.235
3924,0.165,-0.375
3925,-0.110,-0.515
3926,-0.735,-0.405
3927,-0.545,-0.330
3928,0.050,-0.360
3929,-0.115,-0.400
3930,-0.785,-0.400
3931,-0.750,-0.355
3932,-0.095,-0.320
3933,-0.095,-0.365
3934,-0.755,-0.405
3935,-0.785,-0.320
3936,-0.150,-0.345
3937,-0.125,-0.415
3938,-0.745,-0.475
3939,-0.780,-0.385
3940,-0.125,-0.370
3941,-0.105,-0.425
3942,-0.715,-0.435
3943,-0.780,-0.400
3944,-0.155,-0.405
3945,-0.040,-0.440
3946,-0.725,-0.425
3947,-0.880,-0.360
3948,-0.305,-0.245
3949,-0.110,-0.105
3950,-0.585,0.105
3951,-0.545,0.150
3952,0.360,0.190
3953,1.005,0.375
3954,0.865,0.150
3955,0.810,-0.605
3956,1.355,-1.275
3957,1.170,-1.700
3958,-0.020,-2.040
3959,-1.005,-2.435
3960,-1.080,-2.620
3961,-0.610,-2.600
3962,-0.710,-2.775
3963,-1.235,-2.425
3964,-0.790,-1.565
3965,-0.015,-1.075
3966,-0.255,-0.710
3967,-0.905,-0.365
3968,-0.705,-0.175
3969,-0.065,-0.215
3970,-0.220,-0.250
3971,-0.840,-0.225
3972,-0.680,-0.175
3973,-0.055,-0.210
3974,-0.170,-0.265
3975,-0.830,-0.255
3976,-0.695,-0.160
3977,-0.090,-0.160
3978,-0.150,-0.240
3979,-0.780,-0.225
3980,-0.705,-0.155
3981,-0.060,-0.175
3982,-0.110,-0.245
3983,-0.720,-0.225
3984,-0.650,-0.140
3985,-0.035,-0.125
3986,-0.050,-0.195
3987,-0.695,-0.155
3988,-0.800,-0.100
3989,-0.155,-0.105
3990,0.000,-0.125
3991,-0.595,-0.140
3992,-0.745,-0.030
3993,-0.100,-0.030
3994,0.100,-0.095
3995,-0.505,-0.090
3996,-0.720,0.000
3997,-0.150,0.035
3998,0.155,0.005
3999,-0.380,0.005
4000,-0.735,0.075
4001,-0.150,0.140
4002,0.250,0.090
4003,-0.220,0.110
4004,-0.590,0.205
4005,-0.130,0.280
4006,0.285,0.215
4007,-0.170,0.195
4008,-0.555,0.300
4009,-0.040,0.335
4010,0.365,0.320
4011,-0.140,0.275
4012,-0.465,0.365
4013,0.050,0.365
4014,0.375,0.360
4015,-0.175,0.320
4016,-0.540,0.380
4017,-0.015,0.405
4018,0.275,0.320
4019,-0.240,0.290
4020,-0.580,0.315
4021,-0.060,0.290
4022,0.200,0.230
4023,-0.325,0.135
4024,-0.745,0.180
4025,-0.300,0.135
4026,0.120,0.045
4027,-0.380,-0.060
4028,-0.850,-0.055
4029,-0.430,-0.045
4030,0.075,-0.110
4031,-0.310,-0.215
4032,-0.840,-0.180
4033,-0.480,-0.155
4034,0.045,-0.235
4035,-0.320,-0.310
4036,-0.795,-0.280
4037,-0.470,-0.245
4038,0.040,-0.295
4039,-0.300,-0.305
4040,-0.810,-0.285
4041,-0.410,-0.265
4042,0.050,-0.340
4043,-0.355,-0.360
4044,-0.825,-0.295
4045,-0.405,-0.250
4046,0.085,-0.255
4047,-0.335,-0.320
4048,-0.870,-0.275
4049,-0.455,-0.265
4050,0.075,-0.255
4051,-0.275,-0.330
4052,-0.800,-0.270
4053,-0.505,-0.210
4054,0.090,-0.265
4055,-0.155,-0.310
4056,-0.785,-0.290
4057,-0.640,-0.195
4058,0.020,-0.235
4059,-0.060,-0.330
4060,-0.705,-0.265
4061,-0.670,-0.220
4062,-0.090,-0.240
4063,-0.075,-0.295
4064,-0.700,-0.290
4065,-0.720,-0.225
4066,-0.085,-0.220
4067,-0.010,-0.310
4068,-0.640,-0.295
4069,-0.690,-0.250
4070,-0.045,-0.230
4071,-0.015,-0.340
4072,-0.675,-0.295
4073,-0.725,-0.250
4074,-0.080,-0.270
4075,-0.030,-0.325
4076,-0.665,-0.270
4077,-0.715,-0.230
4078,-0.070,-0.240
4079,0.040,-0.320
4080,-0.600,-0.310
4081,-0.760,-0.245
4082,-0.160,-0.255
4083,0.070,-0.320
4084,-0.550,-0.355
4085,-0.820,-0.245
4086,-0.270,-0.250
4087,0.100,-0.270
4088,-0.400,-0.350
4089,-0.830,-0.265
4090,-0.345,-0.255
4091,0.145,-0.300
4092,-0.255,-0.310
4093,-0.800,-0.285
4094,-0.465,-0.250
4095,0.095,-0.295
4096,-0.225,-0.330
4097,-0.750,-0.315
4098,-0.445,-0.225
4099,0.095,-0.270
4100,-0.195,-0.310
4101,-0.750,-0.245
4102,-0.415,-0.200
4103,0.155,-0.265
4104,-0.140,-0.220
4105,-0.695,-0.135
4106,-0.340,-0.035
4107,0.185,-0.095
4108,-0.050,-0.080
4109,-0.575,-0.045
4110,-0.275,-0.080
4111,0.235,-0.170
4112,-0.075,-0.265
4113,-0.700,-0.280
4114,-0.430,-0.345
4115,0.120,-0.435
4116,-0.140,-0.495
4117,-0.745,-0.395
4118,-0.515,-0.345
4119,0.065,-0.395
4120,-0.135,-0.440
4121,-0.795,-0.400
4122,-0.690,-0.300
4123,-0.075,-0.315
4124,-0.145,-0.385
4125,-0.790,-0.435
4126,-0.760,-0.350
4127,-0.120,-0.380
4128,-0.110,-0.435
4129,-0.750,-0.420
4130,-0.760,-0.380
4131,-0.075,-0.380
4132,-0.065,-0.435
4133,-0.695,-0.415
4134,-0.740,-0.365
4135,-0.110,-0.330
4136,-0.055,-0.405
4137,-0.725,-0.405
4138,-0.850,-0.295
4139,-0.220,-0.050
4140,-0.040,0.070
4141,-0.420,0.160
4142,-0.105,0.150
4143,0.930,0.290
4144,1.300,0.420
4145,0.975,-0.200
4146,0.965,-0.875
4147,0.870,-1.330
4148,0.135,-1.620
4149,-0.955,-2.015
4150,-1.375,-2.225
4151,-0.755,-2.315
4152,-0.425,-2.435
4153,-0.940,-2.250
4154,-0.965,-1.625
4155,-0.115,-1.135
4156,0.080,-0.760
4157,-0.595,-0.435
4158,-0.820,-0.235
4159,-0.205,-0.185
4160,0.025,-0.250
4161,-0.565,-0.260
4162,-0.835,-0.215
4163,-0.280,-0.200
4164,0.060,-0.245
4165,-0.480,-0.260
4166,-0.795,-0.185
4167,-0.295,-0.160
4168,0.050,-0.240
4169,-0.465,-0.245
4170,-0.840,-0.200
4171,-0.285,-0.155
4172,0.110,-0.230
4173,-0.430,-0.250
4174,-0.785,-0.180
4175,-0.290,-0.150
4176,0.120,-0.190
4177,-0.375,-0.230
4178,-0.780,-0.160
4179,-0.270,-0.115
4180,0.160,-0.140
4181,-0.225,-0.190
4182,-0.770,-0.090
4183,-0.455,-0.060
4184,0.160,-0.105
4185,-0.030,-0.135
4186,-0.645,-0.070
4187,-0.495,0.005
4188,0.155,-0.035
4189,0.085,-0.020
4190,-0.550,-0.010
4191,-0.560,0.070
4192,0.080,0.115
4193,0.260,0.080
4194,-0.365,0.090
4195,-0.535,0.180
4196,0.055,0.225
4197,0.325,0.175
4198,-0.240,0.190
4199,-0.515,0.295
4200,0.045,0.325
4201,0.335,0.270
4202,-0.240,0.260
4203,-0.485,0.310
4204,0.115,0.350
4205,0.395,0.315
4206,-0.150,0.255
4207,-0.485,0.285
4208,0.075,0.300
4209,0.315,0.250
4210,-0.255,0.180
4211,-0.630,0.215
4212,-0.180,0.155
4213,0.220,0.095
4214,-0.285,0.000
4215,-0.790,0.020
4216,-0.420,0.020
4217,0.095,-0.065
4218,-0.260,-0.145
4219,-0.815,-0.180
4220,-0.570,-0.110
4221,0.050,-0.210
4222,-0.135,-0.305
4223,-0.745,-0.295
4224,-0.625,-0.255
4225,-0.020,-0.290
4226,-0.085,-0.355
4227,-0.745,-0.350
4228,-0.680,-0.275
4229,-0.040,-0.310
4230,-0.105,-0.370
4231,-0.770,-0.320
4232,-0.655,-0.295
4233,-0.035,-0.285
4234,-0.125,-0.365
4235,-0.745,-0.330
4236,-0.640,-0.275
4237,0.000,-0.245
4238,-0.025,-0.340
4239,-0.660,-0.310
4240,-0.690,-0.245
4241,-0.040,-0.255
4242,-0.005,-0.300
4243,-0.670,-0.320
4244,-0.720,-0.210
4245,-0.095,-0.285
4246,0.075,-0.330
4247,-0.585,-0.340
4248,-0.800,-0.260
4249,-0.205,-0.260
4250,0.075,-0.305
4251,-0.450,-0.340
4252,-0.795,-0.290
4253,-0.265,-0.245
4254,0.140,-0.330
4255,-0.390,-0.335
4256,-0.795,-0.290
4257,-0.315,-0.225
4258,0.090,-0.335
4259,-0.375,-0.360
4260,-0.855,-0.295
4261,-0.385,-0.230
4262,0.115,-0.300
4263,-0.340,-0.355
4264,-0.820,-0.285
4265,-0.370,-0.260
4266,0.080,-0.315
4267,-0.345,-0.355
4268,-0.805,-0.330
4269,-0.380,-0.265
4270,0.070,-0.350
4271,-0.385,-0.365
4272,-0.820,-0.310
4273,-0.400,-0.305
4274,0.105,-0.340
4275,-0.285,-0.400
4276,-0.795,-0.335
4277,-0.470,-0.255
4278,0.095,-0.320
4279,-0.155,-0.390
4280,-0.780,-0.355
4281,-0.595,-0.275
4282,0.035,-0.305
4283,-0.140,-0.340
4284,-0.775,-0.345
4285,-0.685,-0.260
4286,-0.020,-0.315
4287,-0.060,-0.370
4288,-0.680,-0.355
4289,-0.730,-0.265
4290,-0.055,-0.290
4291,0.065,-0.340
4292,-0.535,-0.310
4293,-0.665,-0.255
4294,-0.040,-0.200
4295,0.185,-0.200
4296,-0.435,-0.165
4297,-0.660,-0.095
4298,-0.090,-0.040
4299,0.280,-0.045
4300,-0.265,-0.110
4301,-0.655,-0.095
4302,-0.150,-0.130
4303,0.165,-0.255
4304,-0.365,-0.320
4305,-0.800,-0.340
4306,-0.335,-0.395
4307,0.155,-0.420
4308,-0.245,-0.445
4309,-0.795,-0.385
4310,-0.430,-0.330
4311,0.080,-0.360
4312,-0.240,-0.435
4313,-0.875,-0.370
4314,-0.670,-0.275
4315,-0.050,-0.320
4316,-0.155,-0.415
4317,-0.805,-0.425
4318,-0.770,-0.360
4319,-0.100,-0.380
4320,-0.030,-0.420
4321,-0.630,-0.440
4322,-0.805,-0.385
4323,-0.205,-0.350
4324,0.055,-0.420
4325,-0.520,-0.430
4326,-0.815,-0.350
4327,-0.300,-0.315
4328,0.040,-0.385
4329,-0.545,-0.350
4330,-0.970,-0.135
4331,-0.345,0.165
4332,0.290,0.150
4333,0.120,0.070
4334,0.070,0.200
4335,0.910,0.515
4336,1.720,0.000
4337,1.420,-0.800
4338,0.555,-1.340
4339,0.120,-1.540
4340,0.090,-1.880
4341,-0.635,-2.205
4342,-1.530,-2.465
4343,-1.215,-2.525
4344,-0.250,-2.365
4345,-0.250,-1.935
4346,-0.790,-1.405
4347,-0.660,-0.860
4348,0.000,-0.505
4349,0.100,-0.255
4350,-0.555,-0.210
4351,-0.855,-0.165
4352,-0.260,-0.090
4353,0.100,-0.145
4354,-0.445,-0.180
4355,-0.805,-0.110
4356,-0.340,-0.080
4357,0.145,-0.130
4358,-0.280,-0.175
4359,-0.775,-0.140
4360,-0.395,-0.045
4361,0.145,-0.145
4362,-0.195,-0.155
4363,-0.775,-0.150
4364,-0.510,-0.095
4365,0.090,-0.095
4366,-0.095,-0.145
4367,-0.685,-0.095
4368,-0.485,-0.075
4369,0.145,-0.050
4370,-0.035,-0.120
4371,-0.680,-0.080
4372,-0.600,0.000
4373,0.050,-0.010
4374,0.115,-0.080
4375,-0.525,-0.080
4376,-0.655,0.015
4377,-0.020,0.025
4378,0.240,-0.005
4379,-0.275,-0.010
4380,-0.640,0.040
4381,-0.140,0.125
4382,0.305,0.080
4383,-0.135,0.100
4384,-0.595,0.160
4385,-0.195,0.270
4386,0.355,0.230
4387,0.025,0.215
4388,-0.490,0.290
4389,-0.175,0.390
4390,0.415,0.350
4391,0.175,0.315
4392,-0.415,0.365
4393,-0.175,0.450
4394,0.415,0.445
4395,0.190,0.370
4396,-0.360,0.435
4397,-0.135,0.490
4398,0.440,0.485
4399,0.160,0.400
4400,-0.435,0.435
4401,-0.220,0.455
4402,0.320,0.395
4403,0.075,0.295
4404,-0.560,0.285
4405,-0.400,0.315
4406,0.210,0.240
4407,0.085,0.120
4408,-0.575,0.035
4409,-0.525,0.105
4410,0.075,0.045
4411,0.080,-0.070
4412,-0.605,-0.080
4413,-0.695,-0.080
4414,-0.080,-0.090
4415,0.125,-0.195
4416,-0.490,-0.215
4417,-0.705,-0.190
4418,-0.130,-0.165
4419,0.160,-0.265
4420,-0.395,-0.260
4421,-0.750,-0.235
4422,-0.230,-0.185
4423,0.140,-0.255
4424,-0.355,-0.260
4425,-0.725,-0.240
4426,-0.260,-0.210
4427,0.165,-0.250
4428,-0.255,-0.305
4429,-0.720,-0.245
4430,-0.305,-0.215
4431,0.170,-0.265
4432,-0.215,-0.295
4433,-0.710,-0.255
4434,-0.380,-0.210
4435,0.155,-0.240
4436,-0.125,-0.315
4437,-0.665,-0.250
4438,-0.420,-0.200
4439,0.160,-0.270
4440,-0.040,-0.315
4441,-0.665,-0.250
4442,-0.535,-0.165
4443,0.070,-0.220
4444,0.055,-0.285
4445,-0.580,-0.255
4446,-0.635,-0.195
4447,0.005,-0.195
4448,0.140,-0.270
4449,-0.460,-0.300
4450,-0.710,-0.225
4451,-0.155,-0.195
4452,0.140,-0.255
4453,-0.380,-0.295
4454,-0.740,-0.295
4455,-0.265,-0.245
4456,0.170,-0.280
4457,-0.310,-0.320
4458,-0.745,-0.275
4459,-0.335,-0.235
4460,0.170,-0.265
4461,-0.230,-0.320
4462,-0.755,-0.300
4463,-0.420,-0.280
4464,0.150,-0.305
4465,-0.160,-0.320
4466,-0.750,-0.335
4467,-0.450,-0.260
4468,0.140,-0.310
4469,-0.100,-0.350
4470,-0.715,-0.320
4471,-0.570,-0.255
4472,0.075,-0.285
4473,-0.015,-0.355
4474,-0.695,-0.355
4475,-0.630,-0.260
4476,0.005,-0.300
4477,0.075,-0.360
4478,-0.545,-0.375
4479,-0.735,-0.320
4480,-0.110,-0.295
4481,0.135,-0.365
4482,-0.420,-0.355
4483,-0.705,-0.285
4484,-0.125,-0.270
4485,0.240,-0.315
4486,-0.245,-0.270
4487,-0.625,-0.175
4488,-0.165,-0.110
4489,0.275,-0.120
4490,-0.135,-0.155
4491,-0.550,-0.090
4492,-0.125,-0.075
4493,0.290,-0.150
4494,-0.140,-0.290
4495,-0.680,-0.245
4496,-0.240,-0.305
4497,0.210,-0.425
4498,-0.200,-0.510
4499,-0.720,-0.415
4500,-0.310,-0.410
4501,0.150,-0.395
4502,-0.255,-0.480
4503,-0.800,-0.440
4504,-0.460,-0.355
4505,0.075,-0.335
4506,-0.250,-0.425
4507,-0.840,-0.405
4508,-0.565,-0.345
4509,0.040,-0.385
4510,-0.160,-0.440
4511,-0.760,-0.440
4512,-0.650,-0.370
4513,-0.010,-0.400
4514,-0.070,-0.455
4515,-0.730,-0.395
4516,-0.685,-0.350
4517,-0.090,-0.380
4518,0.030,-0.440
4519,-0.615,-0.435
4520,-0.800,-0.305
4521,-0.220,-0.135
4522,0.015,0.035
4523,-0.380,0.130
4524,-0.205,0.115
4525,0.740,0.210
4526,1.265,0.355
4527,1.010,-0.235
4528,1.010,-0.940
4529,1.125,-1.525
4530,0.500,-1.870
4531,-0.650,-2.260
4532,-1.240,-2.520
4533,-0.765,-2.530
4534,-0.355,-2.630
4535,-0.820,-2.460
4536,-0.880,-1.680
4537,-0.085,-1.085
4538,0.090,-0.710
4539,-0.520,-0.375
4540,-0.800,-0.205
4541,-0.275,-0.175
4542,0.100,-0.220
4543,-0.410,-0.225
4544,-0.815,-0.195
4545,-0.390,-0.120
4546,0.090,-0.200
4547,-0.235,-0.250
4548,-0.770,-0.210
4549,-0.445,-0.130
4550,0.105,-0.175
4551,-0.175,-0.215
4552,-0.750,-0.180
4553,-0.510,-0.130
4554,0.085,-0.150
4555,-0.090,-0.180
4556,-0.690,-0.165
4557,-0.510,-0.085
4558,0.080,-0.100
4559,-0.020,-0.180
4560,-0.640,-0.125
4561,-0.535,-0.040
4562,0.100,-0.045
4563,0.060,-0.085
4564,-0.555,-0.090
4565,-0.540,0.005
4566,0.085,0.010
4567,0.170,-0.040
4568,-0.455,-0.015
4569,-0.590,0.090
4570,0.020,0.105
4571,0.255,0.085
4572,-0.330,0.105
4573,-0.610,0.200
4574,-0.020,0.225
4575,0.380,0.175
4576,-0.085,0.215
4577,-0.505,0.295
4578,-0.055,0.340
4579,0.400,0.340
4580,0.080,0.330
4581,-0.440,0.405
4582,-0.110,0.410
4583,0.480,0.460
4584,0.255,0.400
4585,-0.355,0.445
4586,-0.180,0.515
4587,0.445,0.485
4588,0.325,0.405
4589,-0.305,0.415
4590,-0.270,0.500
4591,0.330,0.475
4592,0.250,0.380
4593,-0.390,0.325
4594,-0.390,0.345
4595,0.220,0.295
4596,0.145,0.245
4597,-0.480,0.155
4598,-0.560,0.170
4599,0.065,0.100
4600,0.095,0.010
4601,-0.525,-0.035
4602,-0.665,0.000
4603,-0.025,-0.030
4604,0.120,-0.155
4605,-0.480,-0.200
4606,-0.655,-0.160
4607,-0.055,-0.135
4608,0.135,-0.230
4609,-0.445,-0.240
4610,-0.700,-0.230
4611,-0.145,-0.190
4612,0.190,-0.255
4613,-0.345,-0.265
4614,-0.725,-0.255
4615,-0.245,-0.205
4616,0.215,-0.240
4617,-0.230,-0.280
4618,-0.720,-0.235
4619,-0.300,-0.165
4620,0.195,-0.215
4621,-0.145,-0.260
4622,-0.680,-0.220
4623,-0.295,-0.170
4624,0.205,-0.215
4625,-0.125,-0.280
4626,-0.680,-0.230
4627,-0.360,-0.155
4628,0.165,-0.235
4629,-0.155,-0.295
4630,-0.695,-0.230
4631,-0.370,-0.150
4632,0.155,-0.180
4633,-0.110,-0.245
4634,-0.700,-0.190
4635,-0.390,-0.145
4636,0.135,-0.195
4637,-0.150,-0.240
4638,-0.700,-0.230
4639,-0.445,-0.160
4640,0.120,-0.205
4641,-0.110,-0.230
4642,-0.715,-0.255
4643,-0.555,-0.200
4644,0.050,-0.220
4645,0.030,-0.310
4646,-0.610,-0.280
4647,-0.575,-0.220
4648,0.070,-0.210
4649,0.100,-0.305
4650,-0.540,-0.305
4651,-0.635,-0.265
4652,-0.030,-0.260
4653,0.060,-0.335
4654,-0.545,-0.320
4655,-0.650,-0.250
4656,-0.030,-0.260
4657,0.055,-0.340
4658,-0.550,-0.320
4659,-0.645,-0.240
4660,-0.015,-0.235
4661,0.030,-0.325
4662,-0.555,-0.350
4663,-0.610,-0.230
4664,-0.020,-0.250
4665,0.055,-0.320
4666,-0.565,-0.320
4667,-0.680,-0.260
4668,-0.050,-0.270
4669,0.135,-0.310
4670,-0.480,-0.310
4671,-0.695,-0.285
4672,-0.140,-0.225
4673,0.230,-0.295
4674,-0.240,-0.335
4675,-0.650,-0.245
4676,-0.180,-0.170
4677,0.340,-0.160
4678,-0.065,-0.160
4679,-0.625,-0.100
4680,-0.285,-0.055
4681,0.375,-0.030
4682,0.035,-0.105
4683,-0.555,-0.145
4684,-0.325,-0.135
4685,0.230,-0.230
4686,0.010,-0.360
4687,-0.610,-0.390
4688,-0.400,-0.385
4689,0.155,-0.425
4690,-0.035,-0.430
4691,-0.640,-0.405
4692,-0.470,-0.340
4693,0.105,-0.385
4694,-0.135,-0.440
4695,-0.785,-0.365
4696,-0.640,-0.340
4697,-0.010,-0.400
4698,-0.105,-0.455
4699,-0.745,-0.435
4700,-0.690,-0.395
4701,-0.025,-0.385
4702,0.045,-0.480
4703,-0.580,-0.490
4704,-0.775,-0.410
4705,-0.155,-0.385
4706,0.125,-0.440
4707,-0.445,-0.465
4708,-0.805,-0.420
4709,-0.325,-0.390
4710,0.075,-0.410
4711,-0.420,-0.360
4712,-0.900,-0.105
4713,-0.360,0.115
4714,0.365,0.090
4715,0.445,0.005
4716,0.255,0.185
4717,0.915,0.430
4718,1.770,-0.220
4719,1.510,-1.035
4720,0.330,-1.495
4721,-0.160,-1.650
4722,-0.095,-2.055
4723,-0.655,-2.335
4724,-1.405,-2.635
4725,-1.010,-2.580
4726,-0.200,-2.200
4727,-0.230,-1.675
4728,-0.705,-1.160
4729,-0.515,-0.665
4730,0.055,-0.330
4731,-0.130,-0.285
4732,-0.740,-0.270
4733,-0.600,-0.175
4734,0.000,-0.190
4735,-0.070,-0.235
4736,-0.695,-0.260
4737,-0.665,-0.205
4738,-0.035,-0.190
4739,0.025,-0.230
4740,-0.575,-0.235
4741,-0.750,-0.195
4742,-0.140,-0.180
4743,0.090,-0.235
4744,-0.495,-0.265
4745,-0.725,-0.190
4746,-0.155,-0.130
4747,0.150,-0.210
4748,-0.380,-0.255
4749,-0.740,-0.170
4750,-0.225,-0.145
4751,0.160,-0.155
4752,-0.335,-0.220
4753,-0.745,-0.120
4754,-0.260,-0.090
4755,0.175,-0.150
4756,-0.250,-0.175
4757,-0.695,-0.105
4758,-0.220,-0.050
4759,0.215,-0.075
4760,-0.215,-0.110
4761,-0.620,-0.030
4762,-0.140,0.045
4763,0.325,-0.005
4764,-0.080,0.000
4765,-0.545,0.070
4766,-0.130,0.135
4767,0.400,0.105
4768,0.035,0.130
4769,-0.505,0.180
4770,-0.185,0.265
4771,0.385,0.245
4772,0.145,0.200
4773,-0.405,0.270
4774,-0.185,0.355
4775,0.435,0.330
4776,0.305,0.295
4777,-0.345,0.315
4778,-0.280,0.360
4779,0.350,0.380
4780,0.295,0.290
4781,-0.375,0.265
4782,-0.440,0.345
4783,0.180,0.295
4784,0.230,0.200
4785,-0.415,0.185
4786,-0.525,0.205
4787,0.085,0.145
4788,0.125,0.030
4789,-0.540,-0.025
4790,-0.630,0.010
4791,-0.010,-0.045
4792,0.020,-0.120
4793,-0.600,-0.165
4794,-0.675,-0.175
4795,-0.040,-0.175
4796,0.010,-0.285
4797,-0.590,-0.285
4798,-0.735,-0.240
4799,-0.095,-0.220
4800,0.035,-0.330
4801,-0.540,-0.370
4802,-0.730,-0.285
4803,-0.135,-0.290
4804,0.155,-0.370
4805,-0.380,-0.350
4806,-0.755,-0.295
4807,-0.245,-0.300
4808,0.195,-0.320
4809,-0.245,-0.365
4810,-0.745,-0.295
4811,-0.440,-0.290
4812,0.095,-0.305
4813,-0.160,-0.370
4814,-0.730,-0.330
4815,-0.470,-0.285
4816,0.140,-0.300
4817,-0.055,-0.365
4818,-0.655,-0.295
4819,-0.465,-0.275
4820,0.110,-0.255
4821,-0.060,-0.320
4822,-0.675,-0.305
4823,-0.490,-0.240
4824,0.100,-0.250
4825,0.000,-0.310
4826,-0.645,-0.290
4827,-0.585,-0.210
4828,0.045,-0.250
4829,0.000,-0.320
4830,-0.620,-0.320
4831,-0.640,-0.255
4832,0.010,-0.230
4833,0.090,-0.335
4834,-0.510,-0.320
4835,-0.675,-0.250
4836,-0.090,-0.250
4837,0.180,-0.310
4838,-0.370,-0.365
4839,-0.745,-0.300
4840,-0.285,-0.240
4841,0.195,-0.295
4842,-0.220,-0.345
4843,-0.745,-0.320
4844,-0.370,-0.265
4845,0.165,-0.290
4846,-0.140,-0.365
4847,-0.710,-0.320
4848,-0.420,-0.295
4849,0.120,-0.300
4850,-0.120,-0.420
4851,-0.710,-0.330
4852,-0.450,-0.260
4853,0.150,-0.330
4854,-0.060,-0.375
4855,-0.665,-0.340
4856,-0.460,-0.265
4857,0.130,-0.300
4858,-0.045,-0.375
4859,-0.640,-0.390
4860,-0.570,-0.300
4861,0.090,-0.300
4862,0.020,-0.370
4863,-0.595,-0.335
4864,-0.615,-0.285
4865,0.035,-0.280
4866,0.190,-0.340
4867,-0.445,-0.290
4868,-0.625,-0.240
4869,-0.025,-0.165
4870,0.275,-0.205
4871,-0.280,-0.190
4872,-0.615,-0.100
4873,-0.020,-0.035
4874,0.415,-0.115
4875,-0.090,-0.190
4876,-0.615,-0.225
4877,-0.180,-0.195
4878,0.255,-0.285
4879,-0.140,-0.405
4880,-0.685,-0.425
4881,-0.335,-0.420
4882,0.190,-0.425
4883,-0.120,-0.460
4884,-0.715,-0.380
4885,-0.405,-0.370
4886,0.095,-0.405
4887,-0.185,-0.400
4888,-0.785,-0.370
4889,-0.585,-0.330
4890,0.035,-0.385
4891,-0.120,-0.410
4892,-0.765,-0.480
4893,-0.665,-0.370
4894,0.000,-0.400
4895,0.005,-0.435
4896,-0.640,-0.460
4897,-0.695,-0.390
4898,-0.100,-0.380
4899,0.000,-0.460
4900,-0.635,-0.460
4901,-0.735,-0.385
4902,-0.170,-0.350
4903,0.055,-0.380
4904,-0.575,-0.260
4905,-0.815,0.010
4906,-0.080,0.145
4907,0.555,0.100
4908,0.435,0.070
4909,0.400,0.390
4910,1.170,0.380
4911,1.845,-0.380
4912,1.235,-1.085
4913,0.025,-1.415
4914,-0.295,-1.615
4915,-0.160,-1.970
4916,-0.780,-2.230
4917,-1.435,-2.565
4918,-0.945,-2.485
4919,-0.145,-2.095
4920,-0.240,-1.590
4921,-0.745,-1.135
4922,-0.510,-0.670
4923,0.080,-0.365
4924,-0.080,-0.285
4925,-0.720,-0.265
4926,-0.665,-0.180
4927,-0.025,-0.190
4928,-0.025,-0.270
4929,-0.670,-0.280
4930,-0.700,-0.185
4931,-0.080,-0.180
4932,0.095,-0.260
4933,-0.505,-0.245
4934,-0.750,-0.190
4935,-0.185,-0.160
4936,0.165,-0.215
4937,-0.320,-0.240
4938,-0.780,-0.205
4939,-0.405,-0.145
4940,0.160,-0.170
4941,-0.170,-0.220
4942,-0.740,-0.170
4943,-0.470,-0.125
4944,0.115,-0.150
4945,0.035,-0.225
4946,-0.625,-0.155
4947,-0.615,-0.075
4948,0.045,-0.100
4949,0.130,-0.150
4950,-0.485,-0.150
4951,-0.655,-0.070
4952,-0.060,-0.065
4953,0.220,-0.075
4954,-0.340,-0.100
4955,-0.645,0.005
4956,-0.105,0.035
4957,0.295,0.035
4958,-0.200,0.045
4959,-0.605,0.050
4960,-0.150,0.150
4961,0.370,0.160
4962,0.020,0.120
4963,-0.555,0.175
4964,-0.275,0.260
4965,0.365,0.265
4966,0.250,0.230
4967,-0.375,0.290
4968,-0.400,0.320
4969,0.190,0.335
4970,0.390,0.260
4971,-0.200,0.260
4972,-0.510,0.330
4973,0.025,0.330
4974,0.430,0.260
4975,-0.045,0.240
4976,-0.560,0.255
4977,-0.200,0.250
4978,0.305,0.225
4979,-0.040,0.115
4980,-0.650,0.150
4981,-0.400,0.140
4982,0.155,0.050
4983,-0.100,-0.040
4984,-0.685,-0.070
4985,-0.460,-0.040
4986,0.075,-0.130
4987,-0.190,-0.225
4988,-0.760,-0.205
4989,-0.535,-0.165
4990,0.070,-0.240
4991,-0.140,-0.340
4992,-0.720,-0.305
4993,-0.580,-0.240
4994,0.030,-0.275
4995,-0.060,-0.360
4996,-0.665,-0.340
4997,-0.650,-0.275
4998,-0.035,-0.280
4999,0.020,-0.360
5000,-0.610,-0.350
5001,-0.755,-0.285
5002,-0.175,-0.245
5003,0.100,-0.320
5004,-0.450,-0.340
5005,-0.760,-0.330
5006,-0.205,-0.280
5007,0.155,-0.310
5008,-0.340,-0.355
5009,-0.760,-0.260
5010,-0.300,-0.250
5011,0.135,-0.310
5012,-0.335,-0.365
5013,-0.730,-0.260
5014,-0.300,-0.235
5015,0.160,-0.270
5016,-0.300,-0.330
5017,-0.765,-0.280
5018,-0.300,-0.210
5019,0.140,-0.310
5020,-0.295,-0.340
5021,-0.765,-0.295
5022,-0.345,-0.250
5023,0.125,-0.295
5024,-0.275,-0.345
5025,-0.775,-0.320
5026,-0.380,-0.280
5027,0.130,-0.310
5028,-0.175,-0.380
5029,-0.760,-0.320
5030,-0.520,-0.280
5031,0.085,-0.290
5032,-0.050,-0.385
5033,-0.710,-0.315
5034,-0.650,-0.300
5035,0.000,-0.290
5036,0.005,-0.345
5037,-0.640,-0.370
5038,-0.715,-0.300
5039,-0.085,-0.280
5040,0.010,-0.360
5041,-0.600,-0.350
5042,-0.755,-0.295
5043,-0.140,-0.275
5044,0.050,-0.355
5045,-0.565,-0.370
5046,-0.815,-0.275
5047,-0.160,-0.275
5048,0.050,-0.330
5049,-0.490,-0.355
5050,-0.795,-0.295
5051,-0.245,-0.280
5052,0.075,-0.330
5053,-0.420,-0.350
5054,-0.815,-0.295
5055,-0.330,-0.240
5056,0.115,-0.315
5057,-0.315,-0.355
5058,-0.830,-0.305
5059,-0.405,-0.245
5060,0.130,-0.300
5061,-0.190,-0.330
5062,-0.725,-0.305
5063,-0.450,-0.200
5064,0.185,-0.135
5065,0.035,-0.165
5066,-0.640,-0.155
5067,-0.530,-0.055
5068,0.185,0.000
5069,0.215,-0.115
5070,-0.490,-0.160
5071,-0.625,-0.125
5072,0.020,-0.165
5073,0.170,-0.310
5074,-0.475,-0.410
5075,-0.720,-0.430
5076,-0.175,-0.400
5077,0.175,-0.400
5078,-0.335,-0.465
5079,-0.790,-0.375
5080,-0.340,-0.365
5081,0.070,-0.400
5082,-0.420,-0.420
5083,-0.900,-0.340
5084,-0.485,-0.310
5085,0.005,-0.390
5086,-0.385,-0.450
5087,-0.890,-0.390
5088,-0.550,-0.365
5089,0.030,-0.385
5090,-0.235,-0.455
5091,-0.795,-0.425
5092,-0.560,-0.370
5093,0.015,-0.400
5094,-0.140,-0.420
5095,-0.770,-0.410
5096,-0.660,-0.345
5097,-0.045,-0.320
5098,-0.160,-0.315
5099,-0.840,-0.110
5100,-0.745,0.135
5101,0.090,0.230
5102,0.560,0.105
5103,0.310,0.210
5104,0.460,0.415
5105,1.370,-0.125
5106,1.775,-0.920
5107,0.905,-1.500
5108,-0.215,-1.710
5109,-0.320,-1.995
5110,-0.370,-2.305
5111,-1.085,-2.665
5112,-1.370,-2.740
5113,-0.675,-2.345
5114,-0.090,-1.755
5115,-0.400,-1.250
5116,-0.760,-0.765
5117,-0.345,-0.330
5118,0.060,-0.215
5119,-0.415,-0.240
5120,-0.810,-0.200
5121,-0.345,-0.095
5122,0.045,-0.160
5123,-0.415,-0.210
5124,-0.825,-0.170
5125,-0.350,-0.120
5126,0.090,-0.200
5127,-0.345,-0.175
5128,-0.820,-0.155
5129,-0.435,-0.085
5130,0.115,-0.130
5131,-0.205,-0.195
5132,-0.775,-0.140
5133,-0.560,-0.080
5134,0.055,-0.100
5135,-0.050,-0.155
5136,-0.690,-0.150
5137,-0.620,-0.090
5138,0.035,-0.075
5139,0.040,-0.145
5140,-0.635,-0.100
5141,-0.650,-0.025
5142,-0.010,-0.030
5143,0.085,-0.065
5144,-0.565,-0.075
5145,-0.630,0.020
5146,0.015,0.025
5147,0.140,-0.010
5148,-0.460,0.010
5149,-0.560,0.110
5150,0.060,0.135
5151,0.155,0.120
5152,-0.475,0.140
5153,-0.540,0.230
5154,0.125,0.305
5155,0.280,0.225
5156,-0.295,0.280
5157,-0.490,0.365
5158,0.135,0.415
5159,0.365,0.355
5160,-0.180,0.370
5161,-0.510,0.400
5162,0.035,0.465
5163,0.440,0.440
5164,0.000,0.390
5165,-0.490,0.420
5166,-0.090,0.455
5167,0.395,0.410
5168,0.065,0.350
5169,-0.500,0.380
5170,-0.285,0.415
5171,0.270,0.370
5172,0.040,0.235
5173,-0.605,0.225
5174,-0.505,0.275
5175,0.100,0.180
5176,0.010,0.090
5177,-0.640,0.020
5178,-0.615,0.050
5179,-0.005,-0.005
5180,-0.075,-0.080
5181,-0.685,-0.150
5182,-0.710,-0.095
5183,-0.065,-0.155
5184,-0.010,-0.215
5185,-0.650,-0.265
5186,-0.720,-0.215
5187,-0.090,-0.190
5188,0.045,-0.280
5189,-0.565,-0.335
5190,-0.780,-0.275
5191,-0.180,-0.240
5192,0.090,-0.315
5193,-0.470,-0.310
5194,-0.790,-0.275
5195,-0.255,-0.230
5196,0.145,-0.300
5197,-0.315,-0.330
5198,-0.805,-0.275
5199,-0.455,-0.195
5200,0.100,-0.255
5201,-0.210,-0.310
5202,-0.790,-0.260
5203,-0.540,-0.220
5204,0.075,-0.240
5205,-0.075,-0.310
5206,-0.685,-0.305
5207,-0.585,-0.210
5208,0.025,-0.220
5209,-0.045,-0.275
5210,-0.680,-0.290
5211,-0.685,-0.195
5212,-0.035,-0.235
5213,-0.015,-0.270
5214,-0.640,-0.290
5215,-0.715,-0.230
5216,-0.100,-0.220
5217,0.050,-0.320
5218,-0.545,-0.330
5219,-0.760,-0.265
5220,-0.200,-0.240
5221,0.045,-0.295
5222,-0.495,-0.350
5223,-0.815,-0.270
5224,-0.300,-0.240
5225,0.080,-0.340
5226,-0.425,-0.380
5227,-0.835,-0.310
5228,-0.380,-0.270
5229,0.075,-0.335
5230,-0.310,-0.375
5231,-0.860,-0.320
5232,-0.520,-0.235
5233,0.060,-0.295
5234,-0.165,-0.375
5235,-0.795,-0.340
5236,-0.595,-0.280
5237,-0.005,-0.310
5238,-0.115,-0.370
5239,-0.740,-0.370
5240,-0.680,-0.300
5241,-0.060,-0.325
5242,-0.080,-0.355
5243,-0.700,-0.365
5244,-0.745,-0.305
5245,-0.095,-0.295
5246,-0.015,-0.365
5247,-0.635,-0.385
5248,-0.725,-0.315
5249,-0.120,-0.320
5250,-0.045,-0.340
5251,-0.640,-0.380
5252,-0.770,-0.310
5253,-0.135,-0.255
5254,0.080,-0.280
5255,-0.505,-0.345
5256,-0.670,-0.220
5257,-0.100,-0.115
5258,0.185,-0.160
5259,-0.375,-0.170
5260,-0.700,-0.100
5261,-0.140,-0.015
5262,0.315,-0.095
5263,-0.125,-0.165
5264,-0.710,-0.220
5265,-0.385,-0.205
5266,0.180,-0.280
5267,-0.080,-0.430
5268,-0.740,-0.480
5269,-0.585,-0.405
5270,0.015,-0.390
5271,-0.075,-0.435
5272,-0.725,-0.405
5273,-0.740,-0.370
5274,-0.125,-0.350
5275,-0.110,-0.400
5276,-0.745,-0.390
5277,-0.800,-0.360
5278,-0.185,-0.365
5279,-0.170,-0.425
5280,-0.770,-0.440
5281,-0.790,-0.365
5282,-0.175,-0.365
5283,-0.135,-0.415
5284,-0.740,-0.440
5285,-0.790,-0.380
5286,-0.150,-0.370
5287,-0.080,-0.435
5288,-0.700,-0.410
5289,-0.845,-0.380
5290,-0.275,-0.325
5291,-0.170,-0.295
5292,-0.750,-0.085
5293,-0.795,0.160
5294,0.000,0.170
5295,0.615,0.075
5296,0.515,0.265
5297,0.485,0.370
5298,1.150,-0.320
5299,1.665,-1.030
5300,0.820,-1.575
5301,-0.415,-1.775
5302,-0.655,-2.070
5303,-0.500,-2.320
5304,-0.885,-2.600
5305,-1.335,-2.790
5306,-1.040,-2.445
5307,-0.210,-1.735
5308,-0.220,-1.200
5309,-0.760,-0.775
5310,-0.720,-0.320
5311,-0.125,-0.225
5312,-0.210,-0.230
5313,-0.820,-0.205
5314,-0.725,-0.140
5315,-0.090,-0.145
5316,-0.105,-0.210
5317,-0.720,-0.195
5318,-0.740,-0.140
5319,-0.140,-0.145
5320,-0.070,-0.160
5321,-0.695,-0.180
5322,-0.765,-0.115
5323,-0.155,-0.085
5324,0.015,-0.170
5325,-0.600,-0.145
5326,-0.815,-0.085
5327,-0.265,-0.045
5328,0.065,-0.130
5329,-0.420,-0.155
5330,-0.865,-0.080
5331,-0.400,-0.035
5332,0.085,-0.070
5333,-0.270,-0.120
5334,-0.750,-0.025
5335,-0.440,0.010
5336,0.100,-0.005
5337,-0.140,-0.050
5338,-0.720,0.000
5339,-0.505,0.060
5340,0.080,0.070
5341,-0.085,0.035
5342,-0.640,0.070
5343,-0.500,0.155
5344,0.130,0.175
5345,0.085,0.135
5346,-0.510,0.160
5347,-0.465,0.275
5348,0.180,0.310
5349,0.200,0.275
5350,-0.390,0.295
5351,-0.505,0.365
5352,0.130,0.405
5353,0.320,0.360
5354,-0.270,0.375
5355,-0.500,0.415
5356,0.085,0.465
5357,0.400,0.390
5358,-0.145,0.395
5359,-0.530,0.465
5360,-0.085,0.495
5361,0.340,0.445
5362,-0.045,0.375
5363,-0.585,0.425
5364,-0.235,0.420
5365,0.295,0.340
5366,-0.065,0.240
5367,-0.695,0.235
5368,-0.470,0.245
5369,0.075,0.190
5370,-0.070,0.070
5371,-0.680,0.045
5372,-0.640,0.100
5373,-0.040,0.025
5374,-0.040,-0.070
5375,-0.685,-0.095
5376,-0.695,-0.060
5377,-0.075,-0.095
5378,-0.080,-0.205
5379,-0.695,-0.235
5380,-0.715,-0.175
5381,-0.110,-0.190
5382,-0.030,-0.245
5383,-0.635,-0.265
5384,-0.745,-0.245
5385,-0.150,-0.190
5386,0.010,-0.250
5387,-0.585,-0.280
5388,-0.740,-0.215
5389,-0.185,-0.170
5390,0.070,-0.285
5391,-0.500,-0.240
5392,-0.780,-0.195
5393,-0.230,-0.200
5394,0.110,-0.215
5395,-0.410,-0.225
5396,-0.805,-0.160
5397,-0.350,-0.135
5398,0.110,-0.160
5399,-0.275,-0.240
5400,-0.805,-0.175
5401,-0.460,-0.140
5402,0.055,-0.140
5403,-0.170,-0.230
5404,-0.730,-0.160
5405,-0.535,-0.145
5406,0.070,-0.210
5407,-0.160,-0.230
5408,-0.760,-0.245
5409,-0.635,-0.160
5410,-0.010,-0.180
5411,-0.140,-0.260
5412,-0.745,-0.260
5413,-0.640,-0.180
5414,-0.040,-0.195
5415,-0.085,-0.280
5416,-0.720,-0.260
5417,-0.680,-0.190
5418,-0.060,-0.215
5419,-0.070,-0.260
5420,-0.700,-0.260
5421,-0.730,-0.215
5422,-0.085,-0.185
5423,0.015,-0.270
5424,-0.605,-0.280
5425,-0.815,-0.245
5426,-0.205,-0.215
5427,0.065,-0.245
5428,-0.470,-0.255
5429,-0.860,-0.215
5430,-0.360,-0.220
5431,0.085,-0.245
5432,-0.305,-0.305
5433,-0.830,-0.270
5434,-0.490,-0.185
5435,0.035,-0.235
5436,-0.175,-0.295
5437,-0.800,-0.280
5438,-0.625,-0.215
5439,-0.015,-0.235
5440,-0.145,-0.320
5441,-0.760,-0.295
5442,-0.680,-0.235
5443,-0.045,-0.195
5444,-0.060,-0.280
5445,-0.675,-0.290
5446,-0.675,-0.210
5447,-0.040,-0.200
5448,0.030,-0.285
5449,-0.565,-0.250
5450,-0.660,-0.150
5451,-0.030,-0.090
5452,0.175,-0.105
5453,-0.460,-0.115
5454,-0.715,-0.025
5455,-0.095,0.005
5456,0.260,-0.050
5457,-0.220,-0.135
5458,-0.725,-0.160
5459,-0.370,-0.145
5460,0.150,-0.230
5461,-0.105,-0.395
5462,-0.745,-0.455
5463,-0.610,-0.405
5464,0.010,-0.360
5465,-0.005,-0.420
5466,-0.675,-0.370
5467,-0.795,-0.355
5468,-0.220,-0.350
5469,-0.060,-0.385
5470,-0.660,-0.400
5471,-0.930,-0.335
5472,-0.375,-0.300
5473,-0.055,-0.385
5474,-0.575,-0.420
5475,-0.900,-0.360
5476,-0.385,-0.305
5477,-0.010,-0.380
5478,-0.510,-0.395
5479,-0.890,-0.355
5480,-0.505,-0.305
5481,0.015,-0.340
5482,-0.410,-0.355
5483,-0.900,-0.335
5484,-0.615,-0.285
5485,-0.105,-0.260
5486,-0.405,-0.225
5487,-0.940,0.035
5488,-0.600,0.250
5489,0.250,0.225
5490,0.580,0.120
5491,0.365,0.405
5492,0.685,0.320
5493,1.520,-0.400
5494,1.545,-1.140
5495,0.325,-1.540
5496,-0.550,-1.750
5497,-0.480,-2.090
5498,-0.560,-2.285
5499,-1.145,-2.615
5500,-1.320,-2.645
5501,-0.705,-2.105
5502,-0.150,-1.505
5503,-0.460,-1.025
5504,-0.855,-0.535
5505,-0.460,-0.165
5506,-0.050,-0.085
5507,-0.475,-0.130
5508,-0.920,-0.085
5509,-0.575,-0.035
5510,-0.035,-0.095
5511,-0.385,-0.125
5512,-0.905,-0.110
5513,-0.610,-0.025
5514,-0.030,-0.050
5515,-0.305,-0.150
5516,-0.865,-0.100
5517,-0.630,-0.020
5518,-0.030,-0.040
5519,-0.150,-0.115
5520,-0.785,-0.060
5521,-0.745,-0.050
5522,-0.100,-0.025
5523,-0.010,-0.060
5524,-0.675,-0.045
5525,-0.875,-0.005
5526,-0.250,0.000
5527,0.050,-0.040
5528,-0.495,-0.060
5529,-0.875,0.035
5530,-0.330,0.075
5531,0.080,0.075
5532,-0.400,0.020
5533,-0.850,0.105
5534,-0.405,0.170
5535,0.130,0.150
5536,-0.190,0.110
5537,-0.740,0.150
5538,-0.470,0.290
5539,0.175,0.240
5540,-0.010,0.205
5541,-0.640,0.225
5542,-0.575,0.365
5543,0.100,0.380
5544,0.135,0.315
5545,-0.480,0.335
5546,-0.520,0.430
5547,0.110,0.495
5548,0.290,0.420
5549,-0.320,0.450
5550,-0.555,0.455
5551,0.025,0.540
5552,0.345,0.465
5553,-0.180,0.465
5554,-0.620,0.505
5555,-0.165,0.550
5556,0.300,0.500
5557,-0.035,0.420
5558,-0.635,0.440
5559,-0.375,0.440
5560,0.205,0.435
5561,-0.015,0.295
5562,-0.670,0.315
5563,-0.635,0.300
5564,-0.015,0.270
5565,-0.015,0.170
5566,-0.665,0.100
5567,-0.805,0.120
5568,-0.160,0.065
5569,0.030,-0.050
5570,-0.560,-0.090
5571,-0.875,-0.070
5572,-0.325,-0.050
5573,-0.005,-0.150
5574,-0.545,-0.215
5575,-0.895,-0.180
5576,-0.340,-0.140
5577,0.055,-0.240
5578,-0.455,-0.260
5579,-0.850,-0.220
5580,-0.370,-0.175
5581,0.085,-0.250
5582,-0.410,-0.275
5583,-0.860,-0.235
5584,-0.450,-0.195
5585,0.050,-0.230
5586,-0.300,-0.240
5587,-0.850,-0.230
5588,-0.535,-0.130
5589,0.055,-0.180
5590,-0.125,-0.255
5591,-0.770,-0.210
5592,-0.710,-0.160
5593,-0.040,-0.160
5594,-0.040,-0.190
5595,-0.665,-0.215
5596,-0.835,-0.130
5597,-0.210,-0.140
5598,0.065,-0.230
5599,-0.505,-0.260
5600,-0.845,-0.150
5601,-0.315,-0.115
5602,0.075,-0.185
5603,-0.435,-0.240
5604,-0.860,-0.210
5605,-0.420,-0.105
5606,0.080,-0.215
5607,-0.375,-0.225
5608,-0.855,-0.200
5609,-0.440,-0.140
5610,0.045,-0.175
5611,-0.355,-0.250
5612,-0.885,-0.225
5613,-0.505,-0.150
5614,0.010,-0.205
5615,-0.310,-0.250
5616,-0.850,-0.215
5617,-0.490,-0.140
5618,0.045,-0.180
5619,-0.205,-0.260
5620,-0.825,-0.200
5621,-0.590,-0.155
5622,0.005,-0.180
5623,-0.170,-0.220
5624,-0.820,-0.240
5625,-0.740,-0.180
5626,-0.100,-0.190
5627,-0.070,-0.240
5628,-0.680,-0.275
5629,-0.760,-0.175
5630,-0.120,-0.195
5631,-0.015,-0.245
5632,-0.665,-0.270
5633,-0.785,-0.195
5634,-0.130,-0.175
5635,-0.010,-0.245
5636,-0.595,-0.265
5637,-0.765,-0.215
5638,-0.145,-0.180
5639,-0.005,-0.265
5640,-0.625,-0.270
5641,-0.805,-0.215
5642,-0.215,-0.130
5643,0.015,-0.260
5644,-0.580,-0.215
5645,-0.755,-0.195
5646,-0.130,-0.125
5647,0.180,-0.115
5648,-0.405,-0.125
5649,-0.745,-0.040
5650,-0.190,0.030
5651,0.240,0.000
5652,-0.240,-0.060
5653,-0.715,-0.010
5654,-0.305,-0.055
5655,0.170,-0.135
5656,-0.250,-0.220
5657,-0.785,-0.285
5658,-0.460,-0.320
5659,0.125,-0.355
5660,-0.215,-0.370
5661,-0.835,-0.340
5662,-0.585,-0.275
5663,-0.015,-0.270
5664,-0.215,-0.350
5665,-0.855,-0.305
5666,-0.740,-0.265
5667,-0.140,-0.285
5668,-0.260,-0.375
5669,-0.885,-0.365
5670,-0.810,-0.315
5671,-0.145,-0.325
5672,-0.250,-0.395
5673,-0.880,-0.380
5674,-0.775,-0.325
5675,-0.120,-0.360
5676,-0.155,-0.395
5677,-0.805,-0.370
5678,-0.770,-0.320
5679,-0.160,-0.310
5680,-0.165,-0.340
5681,-0.865,-0.300
5682,-0.970,-0.080
5683,-0.230,0.130
5684,0.135,0.130
5685,-0.195,0.095
5686,-0.005,0.215
5687,0.980,0.555
5688,1.580,0.175
5689,1.185,-0.550
5690,0.420,-1.090
5691,0.185,-1.340
5692,0.030,-1.670
5693,-0.830,-2.070
5694,-1.645,-2.330
5695,-1.195,-2.430
5696,-0.360,-2.285
5697,-0.585,-1.905
5698,-1.000,-1.350
5699,-0.590,-0.865
5700,-0.010,-0.500
5701,-0.355,-0.295
5702,-0.930,-0.190
5703,-0.720,-0.120
5704,-0.070,-0.130
5705,-0.270,-0.190
5706,-0.865,-0.210
5707,-0.650,-0.135
5708,-0.080,-0.145
5709,-0.200,-0.200
5710,-0.820,-0.185
5711,-0.740,-0.120
5712,-0.105,-0.170
5713,-0.165,-0.210
5714,-0.820,-0.200
5715,-0.720,-0.145
5716,-0.115,-0.145
5717,-0.100,-0.195
5718,-0.770,-0.215
5719,-0.790,-0.150
5720,-0.150,-0.140
5721,-0.030,-0.175
5722,-0.660,-0.195
5723,-0.865,-0.075
5724,-0.230,-0.090
5725,0.070,-0.145
5726,-0.445,-0.175
5727,-0.855,-0.080
5728,-0.320,-0.020
5729,0.130,-0.065
5730,-0.340,-0.140
5731,-0.810,-0.045
5732,-0.390,0.045
5733,0.155,-0.005
5734,-0.195,0.005
5735,-0.730,0.045
5736,-0.365,0.135
5737,0.150,0.125
5738,-0.130,0.135
5739,-0.645,0.180
5740,-0.320,0.255
5741,0.245,0.245
5742,-0.065,0.175
5743,-0.635,0.240
5744,-0.290,0.325
5745,0.300,0.305
5746,0.000,0.235
5747,-0.545,0.270
5748,-0.265,0.355
5749,0.295,0.365
5750,0.045,0.315
5751,-0.585,0.305
5752,-0.420,0.330
5753,0.190,0.305
5754,0.075,0.260
5755,-0.605,0.210
5756,-0.590,0.235
5757,0.035,0.220
5758,0.000,0.105
5759,-0.685,0.055
5760,-0.825,0.080
5761,-0.185,0.030
5762,-0.045,-0.080
5763,-0.650,-0.130
5764,-0.845,-0.090
5765,-0.235,-0.095
5766,0.000,-0.215
5767,-0.630,-0.220
5768,-0.835,-0.200
5769,-0.245,-0.190
5770,-0.065,-0.270
5771,-0.685,-0.340
5772,-0.830,-0.240
5773,-0.225,-0.240
5774,-0.065,-0.305
5775,-0.710,-0.305
5776,-0.805,-0.260
5777,-0.160,-0.260
5778,-0.065,-0.295
5779,-0.685,-0.275
5780,-0.825,-0.220
5781,-0.220,-0.235
5782,-0.030,-0.285
5783,-0.660,-0.275
5784,-0.835,-0.225
5785,-0.225,-0.195
5786,0.010,-0.275
5787,-0.595,-0.320
5788,-0.945,-0.250
5789,-0.355,-0.205
5790,0.005,-0.285
5791,-0.515,-0.325
5792,-0.910,-0.240
5793,-0.400,-0.235
5794,0.010,-0.250
5795,-0.465,-0.305
5796,-0.865,-0.270
5797,-0.425,-0.230
5798,0.005,-0.290
5799,-0.495,-0.315
5800,-0.920,-0.250
5801,-0.440,-0.215
5802,0.005,-0.265
5803,-0.400,-0.320
5804,-0.855,-0.260
5805,-0.400,-0.195
5806,0.020,-0.270
5807,-0.415,-0.305
5808,-0.930,-0.265
5809,-0.510,-0.250
5810,0.005,-0.265
5811,-0.390,-0.345
5812,-0.945,-0.295
5813,-0.580,-0.240
5814,-0.015,-0.285
5815,-0.270,-0.345
5816,-0.880,-0.315
5817,-0.610,-0.240
5818,0.000,-0.290
5819,-0.130,-0.350
5820,-0.825,-0.335
5821,-0.740,-0.275
5822,-0.080,-0.285
5823,-0.105,-0.315
5824,-0.795,-0.330
5825,-0.820,-0.255
5826,-0.180,-0.255
5827,-0.075,-0.300
5828,-0.715,-0.345
5829,-0.830,-0.255
5830,-0.220,-0.230
5831,-0.045,-0.315
5832,-0.630,-0.335
5833,-0.850,-0.275
5834,-0.200,-0.250
5835,0.010,-0.305
5836,-0.580,-0.275
5837,-0.765,-0.240
5838,-0.170,-0.225
5839,0.100,-0.225
5840,-0.460,-0.190
5841,-0.755,-0.110
5842,-0.225,-0.055
5843,0.195,-0.070
5844,-0.305,-0.125
5845,-0.715,-0.055
5846,-0.210,-0.120
5847,0.170,-0.190
5848,-0.350,-0.275
5849,-0.840,-0.295
5850,-0.410,-0.340
5851,0.110,-0.405
5852,-0.250,-0.430
5853,-0.810,-0.365
5854,-0.545,-0.280
5855,0.010,-0.320
5856,-0.210,-0.360
5857,-0.890,-0.345
5858,-0.775,-0.240
5859,-0.145,-0.285
5860,-0.230,-0.385
5861,-0.865,-0.390
5862,-0.815,-0.320
5863,-0.170,-0.340
5864,-0.170,-0.390
5865,-0.825,-0.410
5866,-0.810,-0.320
5867,-0.170,-0.320
5868,-0.165,-0.385
5869,-0.820,-0.400
5870,-0.755,-0.315
5871,-0.120,-0.320
5872,-0.145,-0.380
5873,-0.850,-0.290
5874,-0.885,-0.120
5875,-0.185,0.115
5876,0.070,0.155
5877,-0.280,0.120
5878,0.035,0.180
5879,1.055,0.525
5880,1.485,0.200
5881,1.000,-0.540
5882,0.490,-1.070
5883,0.335,-1.320
5884,-0.055,-1.665
5885,-1.030,-2.070
5886,-1.615,-2.255
5887,-0.930,-2.330
5888,-0.315,-2.290
5889,-0.750,-1.960
5890,-1.005,-1.355
5891,-0.390,-0.895
5892,0.045,-0.570
5893,-0.470,-0.300
5894,-0.935,-0.185
5895,-0.545,-0.150
5896,-0.025,-0.180
5897,-0.465,-0.230
5898,-0.920,-0.195
5899,-0.475,-0.115
5900,-0.015,-0.210
5901,-0.455,-0.240
5902,-0.890,-0.165
5903,-0.420,-0.110
5904,-0.015,-0.175
5905,-0.460,-0.210
5906,-0.860,-0.170
5907,-0.380,-0.125
5908,-0.005,-0.160
5909,-0.495,-0.220
5910,-0.890,-0.120
5911,-0.370,-0.060
5912,0.060,-0.115
5913,-0.400,-0.175
5914,-0.855,-0.085
5915,-0.420,-0.060
5916,0.075,-0.080
5917,-0.255,-0.100
5918,-0.810,-0.045
5919,-0.525,0.015
5920,0.085,-0.020
5921,-0.150,-0.055
5922,-0.750,-0.020
5923,-0.555,0.065
5924,0.065,0.050
5925,-0.035,0.025
5926,-0.640,0.090
5927,-0.520,0.155
5928,0.095,0.175
5929,0.050,0.140
5930,-0.560,0.190
5931,-0.480,0.255
5932,0.170,0.285
5933,0.065,0.245
5934,-0.555,0.305
5935,-0.450,0.355
5936,0.230,0.370
5937,0.155,0.285
5938,-0.485,0.325
5939,-0.465,0.405
5940,0.170,0.430
5941,0.215,0.360
5942,-0.455,0.330
5943,-0.550,0.390
5944,0.060,0.390
5945,0.230,0.285
5946,-0.370,0.205
5947,-0.720,0.245
5948,-0.205,0.195
5949,0.140,0.125
5950,-0.415,0.035
5951,-0.875,0.070
5952,-0.440,0.040
5953,0.055,-0.035
5954,-0.345,-0.120
5955,-0.895,-0.115
5956,-0.545,-0.100
5957,0.015,-0.175
5958,-0.245,-0.280
5959,-0.860,-0.240
5960,-0.625,-0.205
5961,-0.015,-0.230
5962,-0.230,-0.335
5963,-0.825,-0.285
5964,-0.640,-0.250
5965,-0.010,-0.235
5966,-0.200,-0.315
5967,-0.820,-0.285
5968,-0.660,-0.250
5969,-0.070,-0.210
5970,-0.175,-0.310
5971,-0.815,-0.290
5972,-0.695,-0.230
5973,-0.080,-0.235
5974,-0.090,-0.315
5975,-0.755,-0.330
5976,-0.740,-0.220
5977,-0.080,-0.225
5978,-0.050,-0.315
5979,-0.735,-0.310
5980,-0.850,-0.225
5981,-0.205,-0.240
5982,0.000,-0.285
5983,-0.585,-0.320
5984,-0.845,-0.240
5985,-0.250,-0.250
5986,0.055,-0.290
5987,-0.465,-0.315
5988,-0.855,-0.250
5989,-0.375,-0.240
5990,0.025,-0.295
5991,-0.445,-0.300
5992,-0.875,-0.265
5993,-0.400,-0.220
5994,0.045,-0.270
5995,-0.410,-0.315
5996,-0.870,-0.285
5997,-0.440,-0.230
5998,0.005,-0.295
5999,-0.400,-0.350
6000,-0.900,-0.300
6001,-0.495,-0.245
6002,0.010,-0.280
6003,-0.345,-0.395
6004,-0.875,-0.335
6005,-0.480,-0.300
6006,0.000,-0.315
6007,-0.345,-0.375
6008,-0.930,-0.345
6009,-0.575,-0.315
6010,-0.015,-0.295
6011,-0.305,-0.375
6012,-0.885,-0.325
6013,-0.610,-0.320
6014,-0.005,-0.320
6015,-0.210,-0.400
6016,-0.845,-0.365
6017,-0.700,-0.295
6018,-0.080,-0.280
6019,-0.160,-0.340
6020,-0.845,-0.340
6021,-0.790,-0.280
6022,-0.130,-0.300
6023,-0.120,-0.380
6024,-0.755,-0.365
6025,-0.755,-0.290
6026,-0.140,-0.260
6027,-0.045,-0.335
6028,-0.670,-0.315
6029,-0.740,-0.255
6030,-0.110,-0.210
6031,0.045,-0.210
6032,-0.560,-0.170
6033,-0.695,-0.080
6034,0.000,-0.045
6035,0.130,-0.120
6036,-0.505,-0.115
6037,-0.660,-0.110
6038,-0.040,-0.180
6039,0.060,-0.305
6040,-0.625,-0.385
6041,-0.835,-0.380
6042,-0.215,-0.425
6043,0.050,-0.440
6044,-0.545,-0.450
6045,-0.885,-0.375
6046,-0.395,-0.315
6047,0.000,-0.380
6048,-0.560,-0.450
6049,-1.025,-0.355
6050,-0.660,-0.310
6051,-0.105,-0.385
6052,-0.410,-0.460
6053,-0.985,-0.445
6054,-0.770,-0.365
6055,-0.115,-0.405
6056,-0.280,-0.500
6057,-0.925,-0.455
6058,-0.800,-0.415
6059,-0.135,-0.380
6060,-0.235,-0.470
6061,-0.875,-0.425
6062,-0.775,-0.380
6063,-0.170,-0.360
6064,-0.260,-0.395
6065,-0.985,-0.265
6066,-0.915,0.030
6067,-0.085,0.155
6068,0.240,0.060
6069,-0.060,0.080
6070,0.205,0.410
6071,1.215,0.210
6072,1.635,-0.645
6073,0.910,-1.350
6074,0.045,-1.665
6075,-0.065,-1.900
6076,-0.265,-2.270
6077,-1.180,-2.605
6078,-1.675,-2.695
6079,-0.950,-2.615
6080,-0.255,-2.160
6081,-0.510,-1.560
6082,-0.930,-1.025
6083,-0.575,-0.575
6084,-0.070,-0.300
6085,-0.300,-0.215
6086,-0.930,-0.205
6087,-0.755,-0.140
6088,-0.105,-0.135
6089,-0.220,-0.180
6090,-0.865,-0.195
6091,-0.810,-0.125
6092,-0.160,-0.120
6093,-0.140,-0.180
6094,-0.800,-0.180
6095,-0.820,-0.085
6096,-0.190,-0.095
6097,-0.100,-0.130
6098,-0.740,-0.125
6099,-0.855,-0.050
6100,-0.230,-0.040
6101,-0.005,-0.100
6102,-0.600,-0.105
6103,-0.860,-0.055
6104,-0.285,-0.020
6105,0.065,-0.085
6106,-0.470,-0.095
6107,-0.905,-0.030
6108,-0.470,0.000
6109,0.085,-0.075
6110,-0.235,-0.055
6111,-0.835,-0.020
6112,-0.610,0.095
6113,0.050,0.065
6114,-0.040,0.010
6115,-0.670,0.035
6116,-0.680,0.130
6117,0.010,0.195
6118,0.030,0.135
6119,-0.565,0.180
6120,-0.685,0.255
6121,-0.025,0.315
6122,0.195,0.270
6123,-0.375,0.295
6124,-0.630,0.365
6125,-0.050,0.410
6126,0.310,0.380
6127,-0.225,0.355
6128,-0.595,0.440
6129,-0.085,0.480
6130,0.375,0.475
6131,-0.080,0.400
6132,-0.535,0.460
6133,-0.135,0.510
6134,0.355,0.480
6135,-0.005,0.420
6136,-0.610,0.435
6137,-0.400,0.450
6138,0.175,0.415
6139,0.015,0.330
6140,-0.665,0.285
6141,-0.600,0.300
6142,0.010,0.275
6143,0.035,0.145
6144,-0.625,0.095
6145,-0.790,0.125
6146,-0.145,0.100
6147,-0.020,-0.020
6148,-0.640,-0.080
6149,-0.875,-0.080
6150,-0.245,-0.080
6151,-0.010,-0.150
6152,-0.570,-0.190
6153,-0.890,-0.175
6154,-0.315,-0.155
6155,0.055,-0.250
6156,-0.460,-0.250
6157,-0.870,-0.225
6158,-0.375,-0.175
6159,0.040,-0.215
6160,-0.445,-0.300
6161,-0.835,-0.230
6162,-0.350,-0.200
6163,0.040,-0.225
6164,-0.410,-0.285
6165,-0.845,-0.225
6166,-0.405,-0.195
6167,0.020,-0.265
6168,-0.410,-0.285
6169,-0.855,-0.200
6170,-0.455,-0.175
6171,0.040,-0.225
6172,-0.300,-0.240
6173,-0.815,-0.200
6174,-0.470,-0.160
6175,0.055,-0.220
6176,-0.280,-0.265
6177,-0.840,-0.190
6178,-0.625,-0.155
6179,0.010,-0.195
6180,-0.160,-0.240
6181,-0.795,-0.225
6182,-0.710,-0.145
6183,-0.055,-0.180
6184,-0.070,-0.235
6185,-0.755,-0.250
6186,-0.770,-0.205
6187,-0.145,-0.185
6188,-0.040,-0.260
6189,-0.655,-0.280
6190,-0.810,-0.225
6191,-0.185,-0.215
6192,-0.025,-0.300
6193,-0.610,-0.285
6194,-0.840,-0.265
6195,-0.250,-0.210
6196,-0.030,-0.280
6197,-0.630,-0.280
6198,-0.905,-0.260
6199,-0.310,-0.260
6200,0.005,-0.300
6201,-0.550,-0.370
6202,-0.915,-0.295
6203,-0.380,-0.295
6204,0.015,-0.315
6205,-0.510,-0.380
6206,-0.940,-0.305
6207,-0.500,-0.245
6208,0.000,-0.320
6209,-0.365,-0.380
6210,-0.900,-0.350
6211,-0.635,-0.300
6212,-0.040,-0.350
6213,-0.210,-0.395
6214,-0.865,-0.380
6215,-0.730,-0.295
6216,-0.075,-0.310
6217,-0.085,-0.345
6218,-0.735,-0.380
6219,-0.705,-0.320
6220,-0.075,-0.295
6221,0.010,-0.330
6222,-0.615,-0.210
6223,-0.695,-0.150
6224,-0.100,-0.135
6225,0.070,-0.160
6226,-0.490,-0.155
6227,-0.620,-0.155
6228,-0.055,-0.190
6229,0.080,-0.310
6230,-0.565,-0.380
6231,-0.760,-0.380
6232,-0.195,-0.465
6233,0.030,-0.515
6234,-0.565,-0.510
6235,-0.850,-0.460
6236,-0.335,-0.415
6237,-0.025,-0.445
6238,-0.550,-0.510
6239,-1.005,-0.420
6240,-0.590,-0.400
6241,-0.105,-0.435
6242,-0.490,-0.520
6243,-1.025,-0.475
6244,-0.730,-0.420
6245,-0.115,-0.470
6246,-0.330,-0.485
6247,-0.910,-0.495
6248,-0.730,-0.455
6249,-0.125,-0.470
6250,-0.280,-0.510
6251,-0.910,-0.500
6252,-0.785,-0.435
6253,-0.160,-0.445
6254,-0.240,-0.485
6255,-0.930,-0.435
6256,-0.890,-0.210
6257,-0.150,0.050
6258,-0.040,0.050
6259,-0.340,0.030
6260,0.165,0.215
6261,1.155,0.375
6262,1.420,-0.255
6263,0.870,-0.945
6264,0.430,-1.385
6265,0.310,-1.670
6266,-0.180,-2.110
6267,-1.235,-2.525
6268,-1.585,-2.585
6269,-0.745,-2.555
6270,-0.410,-2.380
6271,-0.895,-1.820
6272,-0.930,-1.210
6273,-0.275,-0.740
6274,-0.100,-0.465
6275,-0.700,-0.355
6276,-0.975,-0.265
6277,-0.415,-0.240
6278,-0.105,-0.250
6279,-0.635,-0.310
6280,-0.985,-0.250
6281,-0.480,-0.175
6282,-0.075,-0.245
6283,-0.550,-0.290
6284,-0.935,-0.240
6285,-0.470,-0.175
6286,-0.060,-0.200
6287,-0.510,-0.275
6288,-0.940,-0.200
6289,-0.490,-0.160
6290,-0.035,-0.195
6291,-0.460,-0.225
6292,-0.930,-0.155
6293,-0.500,-0.130
6294,-0.005,-0.160
6295,-0.415,-0.200
6296,-0.905,-0.105
6297,-0.485,-0.090
6298,0.000,-0.120
6299,-0.340,-0.160
6300,-0.870,-0.090
6301,-0.530,-0.020
6302,-0.005,-0.055
6303,-0.285,-0.110
6304,-0.815,-0.050
6305,-0.540,0.035
6306,0.060,0.035
6307,-0.105,0.015
6308,-0.700,0.050
6309,-0.605,0.135
6310,0.050,0.155
6311,0.055,0.130
6312,-0.560,0.100
6313,-0.570,0.215
6314,0.055,0.265
6315,0.165,0.220
6316,-0.420,0.250
6317,-0.595,0.280
6318,0.050,0.320
6319,0.225,0.330
6320,-0.350,0.315
6321,-0.570,0.340
6322,-0.010,0.375
6323,0.220,0.285
6324,-0.315,0.265
6325,-0.635,0.315
6326,-0.125,0.305
6327,0.140,0.245
6328,-0.380,0.160
6329,-0.775,0.205
6330,-0.265,0.185
6331,0.055,0.125
6332,-0.415,0.020
6333,-0.865,0.025
6334,-0.420,0.040
6335,0.000,-0.055
6336,-0.415,-0.170
6337,-0.895,-0.150
6338,-0.610,-0.110
6339,-0.015,-0.195
6340,-0.305,-0.270
6341,-0.900,-0.320
6342,-0.760,-0.230
6343,-0.150,-0.260
6344,-0.185,-0.340
6345,-0.800,-0.315
6346,-0.820,-0.285
6347,-0.180,-0.275
6348,-0.070,-0.345
6349,-0.695,-0.335
6350,-0.900,-0.290
6351,-0.305,-0.260
6352,-0.020,-0.345
6353,-0.615,-0.340
6354,-0.900,-0.280
6355,-0.330,-0.265
6356,-0.035,-0.320
6357,-0.575,-0.370
6358,-0.870,-0.255
6359,-0.300,-0.255
6360,-0.015,-0.305
6361,-0.550,-0.335
6362,-0.860,-0.280
6363,-0.355,-0.215
6364,0.000,-0.285
6365,-0.505,-0.355
6366,-0.870,-0.265
6367,-0.365,-0.230
6368,0.005,-0.285
6369,-0.450,-0.310
6370,-0.895,-0.305
6371,-0.480,-0.240
6372,0.015,-0.300
6373,-0.355,-0.340
6374,-0.885,-0.340
6375,-0.625,-0.270
6376,-0.020,-0.305
6377,-0.200,-0.400
6378,-0.850,-0.350
6379,-0.735,-0.320
6380,-0.100,-0.310
6381,-0.185,-0.400
6382,-0.820,-0.370
6383,-0.725,-0.315
6384,-0.100,-0.350
6385,-0.160,-0.390
6386,-0.780,-0.400
6387,-0.710,-0.335
6388,-0.090,-0.335
6389,-0.150,-0.390
6390,-0.770,-0.395
6391,-0.725,-0.355
6392,-0.105,-0.360
6393,-0.170,-0.415
6394,-0.805,-0.430
6395,-0.790,-0.370
6396,-0.125,-0.375
6397,-0.125,-0.435
6398,-0.750,-0.400
6399,-0.790,-0.355
6400,-0.150,-0.335
6401,-0.115,-0.395
6402,-0.715,-0.430
6403,-0.870,-0.380
6404,-0.245,-0.330
6405,0.020,-0.420
6406,-0.550,-0.400
6407,-0.865,-0.320
6408,-0.320,-0.285
6409,0.055,-0.330
6410,-0.465,-0.350
6411,-0.800,-0.255
6412,-0.250,-0.155
6413,0.145,-0.185
6414,-0.330,-0.230
6415,-0.700,-0.140
6416,-0.245,-0.085
6417,0.160,-0.190
6418,-0.350,-0.320
6419,-0.810,-0.285
6420,-0.400,-0.305
6421,0.055,-0.435
6422,-0.350,-0.575
6423,-0.825,-0.500
6424,-0.415,-0.425
6425,0.040,-0.425
6426,-0.365,-0.490
6427,-0.900,-0.455
6428,-0.580,-0.425
6429,-0.075,-0.435
6430,-0.405,-0.485
6431,-0.960,-0.460
6432,-0.745,-0.435
6433,-0.095,-0.490
6434,-0.330,-0.510
6435,-0.930,-0.505
6436,-0.790,-0.420
6437,-0.175,-0.460
6438,-0.190,-0.520
6439,-0.820,-0.540
6440,-0.865,-0.485
6441,-0.235,-0.455
6442,-0.055,-0.505
6443,-0.675,-0.495
6444,-0.925,-0.455
6445,-0.460,-0.345
6446,-0.210,-0.255
6447,-0.620,-0.020
6448,-0.700,0.070
6449,0.115,0.060
6450,0.860,0.065
6451,0.820,0.365
6452,0.775,0.030
6453,1.240,-0.670
6454,1.100,-1.255
6455,-0.045,-1.560
6456,-1.030,-1.805
6457,-1.010,-2.015
6458,-0.715,-2.245
6459,-0.930,-2.600
6460,-1.370,-2.510
6461,-0.910,-1.875
6462,-0.120,-1.370
6463,-0.250,-0.995
6464,-0.875,-0.610
6465,-0.715,-0.310
6466,-0.160,-0.265
6467,-0.250,-0.315
6468,-0.880,-0.330
6469,-0.865,-0.245
6470,-0.230,-0.260
6471,-0.150,-0.340
6472,-0.755,-0.360
6473,-0.885,-0.310
6474,-0.315,-0.260
6475,-0.025,-0.335
6476,-0.595,-0.350
6477,-0.920,-0.315
6478,-0.445,-0.245
6479,-0.045,-0.290
6480,-0.485,-0.355
6481,-0.955,-0.285
6482,-0.540,-0.230
6483,-0.040,-0.275
6484,-0.370,-0.345
6485,-0.900,-0.270
6486,-0.550,-0.230
6487,0.000,-0.240
6488,-0.325,-0.325
6489,-0.870,-0.250
6490,-0.570,-0.180
6491,-0.005,-0.225
6492,-0.240,-0.220
6493,-0.805,-0.210
6494,-0.525,-0.110
6495,0.010,-0.135
6496,-0.250,-0.155
6497,-0.810,-0.130
6498,-0.505,-0.005
6499,0.075,-0.060
6500,-0.075,-0.080
6501,-0.685,-0.010
6502,-0.515,0.080
6503,0.150,0.060
6504,0.110,0.055
6505,-0.530,0.060
6506,-0.585,0.175
6507,0.035,0.215
6508,0.165,0.140
6509,-0.450,0.145
6510,-0.605,0.230
6511,0.040,0.240
6512,0.285,0.195
6513,-0.280,0.165
6514,-0.605,0.230
6515,-0.085,0.235
6516,0.200,0.180
6517,-0.340,0.120
6518,-0.745,0.155
6519,-0.255,0.140
6520,0.065,0.025
6521,-0.460,-0.045
6522,-0.840,-0.035
6523,-0.350,-0.040
6524,0.020,-0.150
6525,-0.490,-0.245
6526,-0.925,-0.225
