'sample interval','ECG1','ECG2'
'0.004 sec','mV','mV'
0,-0.015,-0.320
1,-0.045,-0.350
2,-0.030,-0.345
3,-0.025,-0.360
4,-0.005,-0.365
5,-0.045,-0.360
6,-0.015,-0.340
7,-0.025,-0.340
8,-0.040,-0.340
9,-0.045,-0.360
10,-0.050,-0.365
11,-0.040,-0.345
12,-0.045,-0.350
13,-0.035,-0.345
14,-0.045,-0.360
15,-0.050,-0.360
16,-0.040,-0.355
17,-0.045,-0.335
18,-0.055,-0.335
19,-0.050,-0.290
20,-0.035,-0.240
21,-0.040,-0.230
22,-0.050,-0.185
23,-0.060,-0.175
24,-0.040,-0.170
25,-0.010,-0.160
26,0.000,-0.175
27,0.035,-0.175
28,0.035,-0.160
29,0.060,-0.180
30,0.070,-0.170
31,0.075,-0.155
32,0.050,-0.135
33,0.040,-0.160
34,0.000,-0.185
35,-0.015,-0.230
36,-0.015,-0.280
37,-0.050,-0.300
38,-0.090,-0.305
39,-0.085,-0.300
40,-0.100,-0.275
41,-0.090,-0.260
42,-0.125,-0.285
43,-0.125,-0.275
44,-0.125,-0.285
45,-0.110,-0.290
46,-0.090,-0.325
47,-0.070,-0.345
48,-0.050,-0.345
49,-0.085,-0.360
50,-0.070,-0.400
51,-0.075,-0.390
52,-0.055,-0.370
53,-0.030,-0.380
54,-0.010,-0.375
55,-0.010,-0.375
56,-0.020,-0.380
57,-0.040,-0.385
58,-0.005,-0.365
59,-0.025,-0.365
60,-0.035,-0.365
61,-0.025,-0.350
62,-0.025,-0.365
63,-0.030,-0.360
64,-0.015,-0.360
65,-0.025,-0.340
66,-0.030,-0.335
67,-0.035,-0.320
68,-0.050,-0.280
69,-0.045,-0.220
70,-0.060,-0.215
71,-0.045,-0.140
72,-0.045,0.070
73,-0.030,0.350
74,0.000,0.625
75,0.050,0.785
76,-0.005,0.880
77,-0.025,0.890
78,-0.070,0.790
79,-0.105,0.555
80,-0.185,0.195
81,-0.405,-0.105
82,-0.690,-0.145
83,-1.040,0.040
84,-1.310,0.085
85,-1.475,-0.105
86,-1.545,-0.420
87,-1.405,-0.670
88,-1.055,-0.780
89,-0.610,-0.765
90,-0.255,-0.735
91,-0.145,-0.595
92,-0.125,-0.530
93,-0.140,-0.505
94,-0.165,-0.505
95,-0.150,-0.515
96,-0.100,-0.510
97,-0.065,-0.505
98,-0.005,-0.500
99,0.030,-0.500
100,0.085,-0.450
101,0.060,-0.495
102,0.075,-0.500
103,0.055,-0.510
104,0.060,-0.470
105,0.070,-0.475
106,0.075,-0.470
107,0.105,-0.475
108,0.095,-0.475
109,0.110,-0.470
110,0.095,-0.480
111,0.115,-0.460
112,0.110,-0.480
113,0.100,-0.465
114,0.100,-0.480
115,0.100,-0.490
116,0.115,-0.490
117,0.115,-0.490
118,0.110,-0.470
119,0.120,-0.505
120,0.105,-0.480
121,0.115,-0.460
122,0.115,-0.485
123,0.120,-0.485
124,0.110,-0.495
125,0.100,-0.490
126,0.110,-0.490
127,0.100,-0.510
128,0.080,-0.505
129,0.080,-0.485
130,0.100,-0.500
131,0.080,-0.505
132,0.095,-0.510
133,0.110,-0.505
134,0.095,-0.490
135,0.085,-0.505
136,0.090,-0.510
137,0.095,-0.475
138,0.105,-0.490
139,0.100,-0.470
140,0.115,-0.465
141,0.090,-0.450
142,0.080,-0.435
143,0.085,-0.415
144,0.070,-0.390
145,0.065,-0.385
146,0.090,-0.365
147,0.090,-0.330
148,0.060,-0.320
149,0.045,-0.325
150,0.055,-0.300
151,0.050,-0.290
152,0.015,-0.280
153,0.025,-0.270
154,0.020,-0.250
155,0.020,-0.260
156,0.010,-0.255
157,0.030,-0.255
158,0.015,-0.265
159,0.005,-0.255
160,0.005,-0.265
161,0.005,-0.275
162,0.015,-0.255
163,0.005,-0.255
164,0.010,-0.265
165,0.015,-0.280
166,0.010,-0.300
167,0.030,-0.285
168,0.030,-0.290
169,0.020,-0.285
170,0.005,-0.285
171,0.025,-0.305
172,0.015,-0.290
173,0.035,-0.300
174,0.035,-0.305
175,0.040,-0.295
176,0.020,-0.285
177,0.030,-0.320
178,0.035,-0.305
179,0.050,-0.320
180,0.065,-0.315
181,0.055,-0.315
182,0.045,-0.325
183,0.070,-0.315
184,0.065,-0.320
185,0.050,-0.315
186,0.060,-0.315
187,0.055,-0.320
188,0.050,-0.320
189,0.050,-0.300
190,0.050,-0.290
191,0.050,-0.315
192,0.060,-0.335
193,0.050,-0.315
194,0.055,-0.315
195,0.040,-0.315
196,0.065,-0.310
197,0.050,-0.305
198,0.045,-0.305
199,0.045,-0.285
200,0.035,-0.295
201,0.050,-0.290
202,0.045,-0.310
203,0.035,-0.280
204,0.040,-0.280
205,0.035,-0.300
206,0.035,-0.310
207,0.035,-0.300
208,0.025,-0.315
209,0.040,-0.310
210,0.035,-0.310
211,0.060,-0.315
212,0.025,-0.295
213,0.040,-0.285
214,0.045,-0.285
215,0.025,-0.310
216,0.025,-0.300
217,0.040,-0.285
218,0.030,-0.280
219,0.020,-0.295
220,0.020,-0.290
221,0.015,-0.305
222,0.020,-0.305
223,0.020,-0.310
224,0.005,-0.315
225,0.015,-0.290
226,0.010,-0.295
227,0.040,-0.305
228,0.010,-0.320
229,0.015,-0.300
230,0.025,-0.305
231,0.015,-0.320
232,0.010,-0.305
233,0.020,-0.300
234,-0.005,-0.290
235,0.000,-0.315
236,0.015,-0.305
237,0.005,-0.310
238,0.020,-0.305
239,0.010,-0.300
240,0.025,-0.290
241,0.005,-0.280
242,0.020,-0.275
243,0.020,-0.245
244,0.010,-0.200
245,0.020,-0.175
246,0.015,-0.145
247,0.020,-0.130
248,0.030,-0.130
249,0.055,-0.135
250,0.090,-0.100
251,0.085,-0.135
252,0.105,-0.165
253,0.125,-0.140
254,0.105,-0.145
255,0.095,-0.140
256,0.075,-0.140
257,0.080,-0.130
258,0.065,-0.170
259,0.040,-0.225
260,0.015,-0.285
261,-0.020,-0.285
262,-0.020,-0.265
263,-0.035,-0.245
264,-0.035,-0.265
265,-0.075,-0.240
266,-0.085,-0.235
267,-0.080,-0.245
268,-0.090,-0.235
269,-0.060,-0.265
270,-0.050,-0.290
271,-0.035,-0.300
272,-0.045,-0.320
273,-0.040,-0.330
274,-0.045,-0.360
275,-0.030,-0.340
276,-0.030,-0.335
277,-0.010,-0.320
278,0.005,-0.325
279,0.025,-0.340
280,-0.005,-0.340
281,0.000,-0.315
282,0.000,-0.330
283,-0.015,-0.310
284,0.000,-0.310
285,-0.010,-0.295
286,0.000,-0.320
287,-0.030,-0.315
288,-0.010,-0.310
289,-0.030,-0.300
290,-0.025,-0.280
291,-0.010,-0.260
292,-0.015,-0.225
293,-0.035,-0.190
294,-0.015,-0.160
295,-0.025,-0.015
296,-0.020,0.235
297,-0.010,0.510
298,0.045,0.715
299,0.040,0.830
300,-0.005,0.880
301,-0.045,0.830
302,-0.060,0.665
303,-0.130,0.370
304,-0.265,0.020
305,-0.525,-0.080
306,-0.875,0.070
307,-1.210,0.200
308,-1.440,0.075
309,-1.515,-0.215
310,-1.475,-0.515
311,-1.200,-0.650
312,-0.750,-0.725
313,-0.335,-0.690
314,-0.115,-0.585
315,-0.080,-0.490
316,-0.095,-0.425
317,-0.125,-0.435
318,-0.110,-0.430
319,-0.095,-0.440
320,-0.085,-0.435
321,-0.025,-0.440
322,0.070,-0.415
323,0.095,-0.440
324,0.090,-0.415
325,0.065,-0.415
326,0.090,-0.410
327,0.105,-0.405
328,0.115,-0.400
329,0.130,-0.405
330,0.115,-0.390
331,0.110,-0.400
332,0.155,-0.415
333,0.125,-0.400
334,0.130,-0.405
335,0.115,-0.385
336,0.110,-0.390
337,0.120,-0.405
338,0.120,-0.420
339,0.125,-0.390
340,0.110,-0.400
341,0.105,-0.405
342,0.125,-0.405
343,0.140,-0.400
344,0.140,-0.405
345,0.140,-0.380
346,0.120,-0.400
347,0.125,-0.410
348,0.125,-0.400
349,0.140,-0.400
350,0.110,-0.415
351,0.120,-0.410
352,0.130,-0.415
353,0.120,-0.415
354,0.100,-0.410
355,0.110,-0.430
356,0.100,-0.420
357,0.110,-0.420
358,0.090,-0.430
359,0.120,-0.425
360,0.085,-0.415
361,0.085,-0.400
362,0.105,-0.375
363,0.090,-0.385
364,0.100,-0.360
365,0.090,-0.370
366,0.080,-0.360
367,0.075,-0.320
368,0.065,-0.335
369,0.075,-0.315
370,0.075,-0.280
371,0.045,-0.275
372,0.055,-0.280
373,0.035,-0.235
374,0.055,-0.260
375,0.045,-0.230
376,0.035,-0.195
377,0.050,-0.205
378,0.035,-0.215
379,0.020,-0.200
380,0.005,-0.200
381,0.025,-0.195
382,0.025,-0.185
383,0.010,-0.190
384,0.015,-0.180
385,0.000,-0.180
386,0.020,-0.185
387,0.020,-0.195
388,0.010,-0.225
389,0.005,-0.180
390,0.005,-0.195
391,0.045,-0.195
392,0.015,-0.205
393,0.035,-0.195
394,0.030,-0.215
395,0.035,-0.195
396,0.045,-0.200
397,0.035,-0.215
398,0.035,-0.205
399,0.025,-0.210
400,0.065,-0.205
401,0.045,-0.205
402,0.055,-0.205
403,0.055,-0.210
404,0.070,-0.220
405,0.050,-0.210
406,0.055,-0.210
407,0.050,-0.205
408,0.050,-0.200
409,0.040,-0.210
410,0.050,-0.200
411,0.070,-0.195
412,0.070,-0.195
413,0.045,-0.205
414,0.080,-0.215
415,0.080,-0.185
416,0.080,-0.205
417,0.070,-0.215
418,0.060,-0.190
419,0.065,-0.190
420,0.075,-0.190
421,0.060,-0.190
422,0.070,-0.215
423,0.045,-0.210
424,0.070,-0.205
425,0.055,-0.185
426,0.035,-0.195
427,0.055,-0.195
428,0.055,-0.200
429,0.050,-0.215
430,0.060,-0.190
431,0.060,-0.215
432,0.025,-0.205
433,0.050,-0.205
434,0.015,-0.200
435,0.035,-0.215
436,0.030,-0.190
437,0.020,-0.210
438,0.030,-0.220
439,0.030,-0.205
440,0.015,-0.180
441,0.010,-0.180
442,0.030,-0.200
443,0.020,-0.170
444,0.030,-0.170
445,0.020,-0.190
446,0.015,-0.190
447,0.025,-0.195
448,0.025,-0.190
449,0.015,-0.190
450,0.035,-0.180
451,0.025,-0.195
452,0.035,-0.180
453,0.025,-0.185
454,0.000,-0.190
455,0.030,-0.175
456,0.025,-0.180
457,0.030,-0.195
458,0.015,-0.185
459,0.010,-0.180
460,0.010,-0.170
461,0.005,-0.165
462,0.020,-0.165
463,0.005,-0.120
464,-0.005,-0.110
465,0.025,-0.080
466,0.045,-0.045
467,0.020,-0.025
468,0.015,-0.020
469,0.020,-0.030
470,0.060,-0.015
471,0.080,-0.005
472,0.120,-0.010
473,0.115,-0.025
474,0.105,-0.020
475,0.130,-0.005
476,0.105,0.025
477,0.095,0.010
478,0.075,0.005
479,0.070,-0.040
480,0.045,-0.080
481,0.030,-0.130
482,0.025,-0.125
483,0.005,-0.120
484,-0.015,-0.115
485,-0.030,-0.105
486,-0.040,-0.090
487,-0.050,-0.120
488,-0.065,-0.115
489,-0.055,-0.110
490,-0.040,-0.130
491,-0.015,-0.140
492,-0.010,-0.150
493,-0.020,-0.190
494,-0.035,-0.195
495,-0.045,-0.210
496,-0.015,-0.195
497,0.020,-0.170
498,0.030,-0.185
499,0.045,-0.195
500,0.025,-0.190
501,0.020,-0.175
502,0.015,-0.185
503,0.000,-0.190
504,0.030,-0.190
505,0.010,-0.200
506,0.005,-0.170
507,0.005,-0.165
508,-0.005,-0.200
509,0.000,-0.165
510,0.010,-0.170
511,0.000,-0.150
512,0.000,-0.110
513,-0.005,-0.100
514,0.000,-0.065
515,-0.005,0.000
516,-0.010,0.185
517,0.000,0.450
518,0.020,0.670
519,0.065,0.855
520,0.035,0.975
521,-0.035,1.000
522,-0.075,0.930
523,-0.125,0.720
524,-0.185,0.410
525,-0.385,0.155
526,-0.675,0.165
527,-1.000,0.280
528,-1.255,0.205
529,-1.385,-0.060
530,-1.360,-0.350
531,-1.205,-0.525
532,-0.825,-0.615
533,-0.385,-0.610
534,-0.160,-0.500
535,-0.120,-0.405
536,-0.140,-0.340
537,-0.150,-0.330
538,-0.160,-0.325
539,-0.140,-0.320
540,-0.110,-0.345
541,-0.040,-0.330
542,0.005,-0.330
543,0.045,-0.305
544,0.065,-0.300
545,0.055,-0.320
546,0.090,-0.335
547,0.080,-0.335
548,0.065,-0.310
549,0.075,-0.320
550,0.060,-0.340
551,0.070,-0.310
552,0.060,-0.315
553,0.075,-0.315
554,0.075,-0.315
555,0.085,-0.330
556,0.085,-0.320
557,0.090,-0.320
558,0.100,-0.315
559,0.095,-0.320
560,0.080,-0.320
561,0.080,-0.315
562,0.075,-0.340
563,0.070,-0.320
564,0.080,-0.340
565,0.080,-0.335
566,0.070,-0.340
567,0.070,-0.340
568,0.090,-0.355
569,0.070,-0.365
570,0.090,-0.360
571,0.070,-0.365
572,0.065,-0.375
573,0.050,-0.380
574,0.055,-0.380
575,0.075,-0.355
576,0.055,-0.375
577,0.055,-0.370
578,0.060,-0.385
579,0.060,-0.390
580,0.045,-0.380
581,0.070,-0.380
582,0.050,-0.375
583,0.030,-0.370
584,0.040,-0.365
585,0.055,-0.320
586,0.050,-0.330
587,0.040,-0.310
588,0.040,-0.285
589,0.030,-0.260
590,0.030,-0.255
591,0.015,-0.225
592,0.010,-0.235
593,0.015,-0.225
594,0.000,-0.185
595,0.000,-0.170
596,-0.010,-0.165
597,-0.010,-0.170
598,-0.035,-0.160
599,-0.015,-0.160
600,-0.020,-0.125
601,-0.025,-0.140
602,-0.025,-0.150
603,-0.040,-0.160
604,-0.025,-0.140
605,-0.025,-0.165
606,-0.020,-0.165
607,-0.015,-0.160
608,0.005,-0.165
609,-0.005,-0.185
610,0.000,-0.170
611,0.000,-0.170
612,-0.005,-0.160
613,-0.005,-0.165
614,0.000,-0.170
615,0.000,-0.175
616,0.000,-0.185
617,0.000,-0.180
618,0.000,-0.170
619,0.000,-0.180
620,-0.005,-0.180
621,0.005,-0.175
622,0.000,-0.175
623,0.000,-0.180
624,-0.005,-0.185
625,0.020,-0.185
626,0.005,-0.195
627,0.005,-0.190
628,0.015,-0.190
629,-0.010,-0.180
630,0.010,-0.190
631,0.010,-0.175
632,0.000,-0.180
633,-0.010,-0.170
634,0.010,-0.175
635,0.010,-0.190
636,0.000,-0.165
637,0.005,-0.180
638,0.000,-0.190
639,0.000,-0.185
640,0.000,-0.185
641,0.000,-0.185
642,-0.005,-0.165
643,0.005,-0.175
644,0.010,-0.180
645,-0.005,-0.175
646,-0.020,-0.190
647,0.000,-0.180
648,0.000,-0.180
649,-0.010,-0.180
650,-0.005,-0.175
651,0.005,-0.185
652,0.000,-0.185
653,0.000,-0.200
654,-0.005,-0.180
655,-0.010,-0.195
656,0.000,-0.195
657,-0.005,-0.180
658,0.000,-0.175
659,0.005,-0.180
660,-0.005,-0.160
661,-0.015,-0.155
662,-0.020,-0.175
663,-0.005,-0.165
664,0.005,-0.160
665,-0.005,-0.180
666,0.000,-0.170
667,-0.005,-0.180
668,0.000,-0.180
669,0.000,-0.180
670,0.000,-0.175
671,0.000,-0.160
672,-0.015,-0.170
673,-0.025,-0.180
674,-0.005,-0.190
675,-0.015,-0.180
676,0.000,-0.155
677,0.005,-0.130
678,0.000,-0.075
679,-0.010,-0.045
680,0.000,-0.015
681,0.010,-0.005
682,-0.010,0.000
683,0.030,-0.010
684,0.055,-0.015
685,0.075,-0.015
686,0.080,-0.020
687,0.100,-0.025
688,0.090,0.000
689,0.085,0.000
690,0.075,0.005
691,0.055,-0.020
692,0.065,-0.045
693,0.025,-0.090
694,0.005,-0.125
695,0.000,-0.155
696,-0.025,-0.145
697,-0.050,-0.135
698,-0.045,-0.135
699,-0.075,-0.130
700,-0.065,-0.110
701,-0.080,-0.135
702,-0.060,-0.155
703,-0.080,-0.130
704,-0.055,-0.140
705,-0.055,-0.155
706,-0.035,-0.200
707,-0.050,-0.210
708,-0.045,-0.210
709,-0.035,-0.210
710,0.000,-0.225
711,0.030,-0.215
712,0.010,-0.210
713,0.020,-0.215
714,0.015,-0.210
715,0.005,-0.200
716,-0.010,-0.200
717,0.010,-0.215
718,0.000,-0.210
719,-0.020,-0.195
720,-0.010,-0.205
721,0.000,-0.190
722,-0.015,-0.195
723,-0.005,-0.170
724,0.000,-0.145
725,0.000,-0.120
726,0.000,-0.105
727,-0.005,-0.070
728,-0.010,0.020
729,0.000,0.210
730,0.000,0.500
731,0.030,0.750
732,0.040,0.945
733,0.030,1.065
734,-0.015,1.105
735,-0.050,1.020
736,-0.085,0.810
737,-0.185,0.445
738,-0.355,0.155
739,-0.615,0.125
740,-0.905,0.225
741,-1.185,0.200
742,-1.300,-0.040
743,-1.340,-0.320
744,-1.190,-0.535
745,-0.840,-0.620
746,-0.430,-0.630
747,-0.185,-0.545
748,-0.120,-0.425
749,-0.140,-0.380
750,-0.135,-0.345
751,-0.140,-0.345
752,-0.130,-0.355
753,-0.115,-0.365
754,-0.040,-0.350
755,0.010,-0.350
756,0.045,-0.380
757,0.085,-0.385
758,0.090,-0.365
759,0.085,-0.365
760,0.075,-0.375
761,0.105,-0.360
762,0.115,-0.385
763,0.100,-0.375
764,0.090,-0.380
765,0.100,-0.375
766,0.095,-0.360
767,0.100,-0.375
768,0.105,-0.385
769,0.100,-0.385
770,0.060,-0.400
771,0.095,-0.380
772,0.095,-0.370
773,0.110,-0.370
774,0.080,-0.360
775,0.090,-0.390
776,0.095,-0.405
777,0.075,-0.380
778,0.085,-0.400
779,0.075,-0.405
780,0.090,-0.415
781,0.075,-0.390
782,0.090,-0.410
783,0.090,-0.420
784,0.110,-0.425
785,0.100,-0.415
786,0.060,-0.420
787,0.090,-0.435
788,0.080,-0.415
789,0.075,-0.440
790,0.100,-0.440
791,0.085,-0.445
792,0.060,-0.440
793,0.070,-0.445
794,0.080,-0.440
795,0.070,-0.415
796,0.070,-0.435
797,0.055,-0.415
798,0.055,-0.415
799,0.060,-0.380
800,0.070,-0.370
801,0.055,-0.360
802,0.050,-0.335
803,0.025,-0.340
804,0.040,-0.300
805,0.020,-0.285
806,0.015,-0.285
807,0.005,-0.295
808,0.005,-0.260
809,0.010,-0.225
810,0.000,-0.240
811,0.000,-0.230
812,-0.005,-0.205
813,-0.015,-0.190
814,-0.005,-0.215
815,0.000,-0.215
816,0.000,-0.220
817,-0.015,-0.220
818,0.000,-0.210
819,0.020,-0.215
820,0.000,-0.235
821,0.000,-0.240
822,0.010,-0.215
823,0.000,-0.225
824,0.015,-0.225
825,0.020,-0.235
826,0.010,-0.235
827,0.025,-0.245
828,0.020,-0.235
829,0.010,-0.240
830,0.025,-0.255
831,0.030,-0.250
832,0.035,-0.260
833,0.020,-0.250
834,0.020,-0.265
835,0.035,-0.245
836,0.040,-0.250
837,0.025,-0.240
838,0.060,-0.260
839,0.040,-0.265
840,0.045,-0.250
841,0.025,-0.260
842,0.065,-0.260
843,0.060,-0.230
844,0.060,-0.260
845,0.050,-0.255
846,0.045,-0.245
847,0.045,-0.265
848,0.055,-0.250
849,0.045,-0.255
850,0.055,-0.260
851,0.050,-0.265
852,0.025,-0.255
853,0.030,-0.250
854,0.035,-0.270
855,0.055,-0.260
856,0.055,-0.260
857,0.045,-0.260
858,0.045,-0.260
859,0.025,-0.250
860,0.040,-0.265
861,0.020,-0.260
862,0.050,-0.250
863,0.050,-0.270
864,0.020,-0.270
865,0.030,-0.280
866,0.035,-0.285
867,0.035,-0.275
868,0.040,-0.280
869,0.040,-0.270
870,0.040,-0.280
871,0.035,-0.260
872,0.030,-0.285
873,0.005,-0.265
874,0.020,-0.250
875,0.020,-0.255
876,0.020,-0.260
877,0.025,-0.260
878,0.035,-0.250
879,0.030,-0.270
880,0.025,-0.260
881,0.030,-0.260
882,0.050,-0.255
883,0.015,-0.265
884,0.035,-0.265
885,0.015,-0.250
886,0.010,-0.265
887,0.030,-0.255
888,0.035,-0.260
889,0.010,-0.265
890,0.040,-0.275
891,0.025,-0.265
892,0.040,-0.240
893,0.025,-0.245
894,0.025,-0.220
895,0.025,-0.215
896,0.025,-0.165
897,0.025,-0.140
898,0.045,-0.105
899,0.025,-0.080
900,0.035,-0.075
901,0.060,-0.075
902,0.065,-0.050
903,0.110,-0.065
904,0.130,-0.070
905,0.115,-0.090
906,0.155,-0.070
907,0.155,-0.070
908,0.135,-0.065
909,0.150,-0.080
910,0.100,-0.065
911,0.075,-0.070
912,0.080,-0.120
913,0.070,-0.160
914,0.040,-0.190
915,0.025,-0.210
916,-0.005,-0.190
917,-0.030,-0.190
918,-0.035,-0.160
919,-0.045,-0.165
920,-0.025,-0.180
921,-0.030,-0.175
922,-0.020,-0.185
923,-0.010,-0.210
924,-0.010,-0.205
925,0.015,-0.235
926,0.020,-0.240
927,0.020,-0.250
928,0.015,-0.250
929,0.050,-0.275
930,0.045,-0.270
931,0.075,-0.270
932,0.060,-0.265
933,0.065,-0.255
934,0.050,-0.260
935,0.050,-0.255
936,0.055,-0.250
937,0.055,-0.255
938,0.060,-0.260
939,0.050,-0.235
940,0.060,-0.240
941,0.045,-0.240
942,0.035,-0.245
943,0.035,-0.215
944,0.045,-0.200
945,0.040,-0.170
946,0.040,-0.125
947,0.040,-0.115
948,0.030,-0.055
949,0.040,0.080
950,0.040,0.345
951,0.050,0.630
952,0.100,0.830
953,0.095,0.965
954,0.065,1.005
955,0.005,0.965
956,-0.005,0.790
957,-0.060,0.485
958,-0.225,0.150
959,-0.485,-0.080
960,-0.825,0.050
961,-1.185,0.250
962,-1.395,0.195
963,-1.485,-0.075
964,-1.470,-0.355
965,-1.255,-0.575
966,-0.825,-0.660
967,-0.395,-0.670
968,-0.150,-0.610
969,-0.060,-0.490
970,-0.060,-0.425
971,-0.090,-0.380
972,-0.080,-0.400
973,-0.085,-0.370
974,-0.050,-0.375
975,-0.005,-0.385
976,0.045,-0.375
977,0.100,-0.375
978,0.110,-0.375
979,0.140,-0.380
980,0.135,-0.375
981,0.135,-0.375
982,0.165,-0.370
983,0.155,-0.380
984,0.145,-0.390
985,0.155,-0.380
986,0.155,-0.355
987,0.155,-0.385
988,0.150,-0.370
989,0.150,-0.370
990,0.150,-0.380
991,0.165,-0.380
992,0.170,-0.355
993,0.165,-0.375
994,0.160,-0.350
995,0.150,-0.375
996,0.175,-0.370
997,0.155,-0.380
998,0.170,-0.375
999,0.155,-0.380
1000,0.150,-0.365
1001,0.145,-0.380
1002,0.140,-0.390
1003,0.140,-0.395
1004,0.170,-0.395
1005,0.155,-0.410
1006,0.170,-0.405
1007,0.145,-0.400
1008,0.145,-0.410
1009,0.140,-0.395
1010,0.140,-0.395
1011,0.170,-0.425
1012,0.145,-0.410
1013,0.145,-0.415
1014,0.140,-0.400
1015,0.125,-0.395
1016,0.120,-0.405
1017,0.130,-0.400
1018,0.115,-0.405
1019,0.115,-0.385
1020,0.125,-0.375
1021,0.120,-0.355
1022,0.120,-0.335
1023,0.120,-0.325
1024,0.110,-0.320
1025,0.110,-0.305
1026,0.095,-0.275
1027,0.080,-0.270
1028,0.070,-0.255
1029,0.055,-0.240
1030,0.055,-0.235
1031,0.070,-0.230
1032,0.025,-0.215
1033,0.035,-0.215
1034,0.020,-0.195
1035,0.025,-0.215
1036,0.015,-0.205
1037,0.035,-0.200
1038,0.015,-0.205
1039,0.015,-0.200
1040,0.000,-0.200
1041,0.020,-0.225
1042,0.010,-0.210
1043,0.005,-0.220
1044,0.015,-0.220
1045,0.005,-0.220
1046,-0.005,-0.225
1047,0.000,-0.230
1048,0.010,-0.210
1049,0.015,-0.220
1050,0.010,-0.220
1051,0.025,-0.245
1052,0.015,-0.235
1053,0.015,-0.250
1054,0.025,-0.255
1055,0.025,-0.250
1056,0.040,-0.240
1057,0.020,-0.245
1058,0.040,-0.255
1059,0.025,-0.265
1060,0.040,-0.260
1061,0.040,-0.260
1062,0.035,-0.260
1063,0.035,-0.265
1064,0.035,-0.260
1065,0.055,-0.270
1066,0.055,-0.265
1067,0.055,-0.285
1068,0.060,-0.265
1069,0.075,-0.255
1070,0.065,-0.265
1071,0.065,-0.260
1072,0.040,-0.250
1073,0.040,-0.255
1074,0.055,-0.255
1075,0.065,-0.250
1076,0.055,-0.270
1077,0.045,-0.260
1078,0.040,-0.285
1079,0.035,-0.280
1080,0.040,-0.280
1081,0.055,-0.290
1082,0.050,-0.285
1083,0.045,-0.290
1084,0.055,-0.280
1085,0.035,-0.285
1086,0.025,-0.275
1087,0.035,-0.280
1088,0.020,-0.280
1089,0.020,-0.295
1090,0.010,-0.285
1091,0.025,-0.290
1092,0.035,-0.285
1093,0.025,-0.275
1094,0.020,-0.280
1095,0.030,-0.285
1096,0.020,-0.280
1097,0.000,-0.285
1098,0.000,-0.290
1099,0.010,-0.270
1100,0.000,-0.280
1101,0.010,-0.275
1102,0.025,-0.290
1103,0.020,-0.275
1104,0.015,-0.280
1105,0.010,-0.275
1106,0.030,-0.265
1107,-0.010,-0.260
1108,0.020,-0.270
1109,0.030,-0.275
1110,0.000,-0.285
1111,0.000,-0.280
1112,0.015,-0.280
1113,0.000,-0.265
1114,0.015,-0.255
1115,0.015,-0.270
1116,0.005,-0.275
1117,0.000,-0.275
1118,0.015,-0.275
1119,0.015,-0.235
1120,0.000,-0.180
1121,0.010,-0.170
1122,0.000,-0.135
1123,0.000,-0.115
1124,0.025,-0.085
1125,0.035,-0.095
1126,0.040,-0.090
1127,0.070,-0.085
1128,0.100,-0.110
1129,0.105,-0.100
1130,0.120,-0.115
1131,0.115,-0.095
1132,0.120,-0.085
1133,0.095,-0.080
1134,0.075,-0.110
1135,0.045,-0.130
1136,0.035,-0.180
1137,0.015,-0.195
1138,0.000,-0.230
1139,-0.040,-0.230
1140,-0.050,-0.200
1141,-0.035,-0.190
1142,-0.050,-0.195
1143,-0.080,-0.190
1144,-0.045,-0.205
1145,-0.040,-0.220
1146,-0.060,-0.225
1147,-0.040,-0.230
1148,-0.025,-0.245
1149,0.000,-0.295
1150,-0.020,-0.290
1151,-0.025,-0.300
1152,-0.025,-0.310
1153,0.015,-0.290
1154,0.045,-0.300
1155,0.040,-0.310
1156,0.040,-0.285
1157,0.020,-0.280
1158,0.005,-0.275
1159,0.025,-0.275
1160,0.035,-0.270
1161,0.055,-0.270
1162,0.045,-0.265
1163,0.030,-0.265
1164,0.035,-0.240
1165,0.025,-0.235
1166,0.030,-0.255
1167,0.025,-0.235
1168,0.050,-0.190
1169,0.030,-0.150
1170,0.010,-0.130
1171,0.020,-0.100
1172,0.025,0.075
1173,0.010,0.345
1174,0.035,0.595
1175,0.075,0.780
1176,0.065,0.860
1177,0.020,0.885
1178,-0.040,0.800
1179,-0.070,0.580
1180,-0.145,0.250
1181,-0.335,-0.045
1182,-0.645,-0.025
1183,-0.980,0.175
1184,-1.265,0.230
1185,-1.470,0.010
1186,-1.515,-0.290
1187,-1.385,-0.520
1188,-1.020,-0.650
1189,-0.545,-0.690
1190,-0.205,-0.645
1191,-0.080,-0.545
1192,-0.090,-0.445
1193,-0.110,-0.420
1194,-0.120,-0.425
1195,-0.125,-0.420
1196,-0.090,-0.425
1197,-0.040,-0.415
1198,0.020,-0.410
1199,0.065,-0.430
1200,0.095,-0.410
1201,0.125,-0.400
1202,0.110,-0.420
1203,0.105,-0.410
1204,0.100,-0.415
1205,0.110,-0.400
1206,0.095,-0.400
1207,0.120,-0.390
1208,0.135,-0.390
1209,0.150,-0.390
1210,0.135,-0.380
1211,0.135,-0.400
1212,0.140,-0.410
1213,0.140,-0.400
1214,0.140,-0.405
1215,0.145,-0.400
1216,0.140,-0.415
1217,0.140,-0.425
1218,0.115,-0.420
1219,0.145,-0.430
1220,0.160,-0.425
1221,0.135,-0.415
1222,0.130,-0.425
1223,0.130,-0.415
1224,0.125,-0.435
1225,0.120,-0.440
1226,0.085,-0.430
1227,0.115,-0.440
1228,0.120,-0.440
1229,0.125,-0.440
1230,0.115,-0.440
1231,0.120,-0.445
1232,0.090,-0.445
1233,0.110,-0.440
1234,0.090,-0.420
1235,0.085,-0.435
1236,0.090,-0.440
1237,0.090,-0.440
1238,0.090,-0.445
1239,0.080,-0.440
1240,0.090,-0.410
1241,0.100,-0.390
1242,0.090,-0.375
1243,0.085,-0.370
1244,0.075,-0.345
1245,0.060,-0.335
1246,0.060,-0.305
1247,0.060,-0.300
1248,0.060,-0.280
1249,0.020,-0.295
1250,0.005,-0.290
1251,0.005,-0.275
1252,0.005,-0.250
1253,-0.005,-0.255
1254,0.000,-0.275
1255,-0.020,-0.270
1256,-0.020,-0.250
1257,-0.020,-0.230
1258,-0.015,-0.265
1259,-0.030,-0.245
1260,-0.010,-0.265
1261,-0.035,-0.270
1262,-0.035,-0.260
1263,-0.025,-0.265
1264,-0.015,-0.245
1265,-0.020,-0.265
1266,-0.035,-0.290
1267,-0.035,-0.275
1268,-0.020,-0.305
1269,-0.025,-0.295
1270,-0.025,-0.300
1271,-0.035,-0.295
1272,-0.015,-0.305
1273,-0.020,-0.320
1274,-0.020,-0.320
1275,-0.010,-0.310
1276,0.000,-0.315
1277,-0.040,-0.305
1278,-0.030,-0.315
1279,-0.045,-0.315
1280,-0.025,-0.320
1281,-0.005,-0.325
1282,-0.020,-0.330
1283,-0.025,-0.340
1284,-0.010,-0.325
1285,-0.010,-0.335
1286,-0.025,-0.320
1287,-0.020,-0.315
1288,-0.035,-0.330
1289,-0.020,-0.320
1290,-0.010,-0.300
1291,-0.035,-0.315
1292,-0.010,-0.330
1293,-0.020,-0.325
1294,-0.025,-0.320
1295,-0.030,-0.330
1296,-0.020,-0.310
1297,-0.055,-0.305
1298,-0.025,-0.310
1299,-0.045,-0.315
1300,-0.045,-0.310
1301,-0.020,-0.320
1302,-0.045,-0.330
1303,-0.060,-0.335
1304,-0.065,-0.320
1305,-0.060,-0.345
1306,-0.050,-0.330
1307,-0.070,-0.320
1308,-0.060,-0.320
1309,-0.060,-0.330
1310,-0.045,-0.315
1311,-0.055,-0.330
1312,-0.070,-0.330
1313,-0.055,-0.320
1314,-0.065,-0.315
1315,-0.055,-0.330
1316,-0.045,-0.315
1317,-0.045,-0.345
1318,-0.070,-0.310
1319,-0.055,-0.305
1320,-0.075,-0.305
1321,-0.060,-0.305
1322,-0.065,-0.315
1323,-0.060,-0.325
1324,-0.070,-0.310
1325,-0.085,-0.310
1326,-0.075,-0.340
1327,-0.080,-0.320
1328,-0.070,-0.310
1329,-0.075,-0.310
1330,-0.070,-0.300
1331,-0.080,-0.315
1332,-0.080,-0.315
1333,-0.060,-0.270
1334,-0.065,-0.215
1335,-0.075,-0.190
1336,-0.080,-0.160
1337,-0.080,-0.145
1338,-0.075,-0.155
1339,-0.050,-0.155
1340,-0.020,-0.145
1341,0.005,-0.150
1342,0.000,-0.160
1343,0.020,-0.165
1344,0.015,-0.155
1345,0.025,-0.140
1346,0.010,-0.145
1347,-0.030,-0.155
1348,-0.015,-0.170
1349,-0.040,-0.240
1350,-0.065,-0.265
1351,-0.075,-0.265
1352,-0.115,-0.270
1353,-0.125,-0.240
1354,-0.130,-0.235
1355,-0.140,-0.250
1356,-0.140,-0.260
1357,-0.170,-0.270
1358,-0.160,-0.260
1359,-0.155,-0.270
1360,-0.145,-0.280
1361,-0.135,-0.305
1362,-0.145,-0.345
1363,-0.135,-0.340
1364,-0.125,-0.345
1365,-0.120,-0.330
1366,-0.090,-0.320
1367,-0.060,-0.345
1368,-0.065,-0.325
1369,-0.075,-0.335
1370,-0.080,-0.345
1371,-0.090,-0.310
1372,-0.100,-0.340
1373,-0.100,-0.335
1374,-0.105,-0.325
1375,-0.110,-0.345
1376,-0.095,-0.335
1377,-0.090,-0.315
1378,-0.105,-0.300
1379,-0.105,-0.295
1380,-0.110,-0.275
1381,-0.090,-0.225
1382,-0.105,-0.205
1383,-0.080,-0.185
1384,-0.100,-0.065
1385,-0.110,0.165
1386,-0.095,0.425
1387,-0.045,0.650
1388,-0.040,0.795
1389,-0.090,0.850
1390,-0.125,0.840
1391,-0.145,0.730
1392,-0.215,0.500
1393,-0.360,0.195
1394,-0.605,0.010
1395,-0.900,0.095
1396,-1.215,0.175
1397,-1.410,0.050
1398,-1.465,-0.250
1399,-1.405,-0.535
1400,-1.105,-0.660
1401,-0.685,-0.720
1402,-0.355,-0.670
1403,-0.200,-0.570
1404,-0.190,-0.470
1405,-0.210,-0.445
1406,-0.225,-0.435
1407,-0.190,-0.435
1408,-0.175,-0.455
1409,-0.145,-0.445
1410,-0.065,-0.455
1411,-0.025,-0.455
1412,0.000,-0.435
1413,0.005,-0.445
1414,0.015,-0.445
1415,0.020,-0.450
1416,0.020,-0.445
1417,0.005,-0.460
1418,0.020,-0.440
1419,0.005,-0.445
1420,0.005,-0.440
1421,0.025,-0.430
1422,0.050,-0.435
1423,0.000,-0.430
1424,0.030,-0.435
1425,0.000,-0.415
1426,0.025,-0.425
1427,0.025,-0.445
1428,0.020,-0.435
1429,0.000,-0.430
1430,0.010,-0.435
1431,0.000,-0.430
1432,0.010,-0.460
1433,0.035,-0.460
1434,0.000,-0.485
1435,0.000,-0.470
1436,0.005,-0.465
1437,0.000,-0.470
1438,0.000,-0.475
1439,0.000,-0.480
1440,0.000,-0.455
1441,0.000,-0.470
1442,0.000,-0.465
1443,0.000,-0.480
1444,0.000,-0.475
1445,0.010,-0.465
1446,-0.005,-0.465
1447,-0.020,-0.465
1448,-0.020,-0.470
1449,-0.005,-0.485
1450,-0.015,-0.465
1451,-0.020,-0.470
1452,-0.025,-0.440
1453,-0.045,-0.440
1454,-0.040,-0.430
1455,-0.035,-0.415
1456,-0.040,-0.400
1457,-0.035,-0.375
1458,-0.045,-0.355
1459,-0.060,-0.315
1460,-0.070,-0.310
1461,-0.060,-0.290
1462,-0.070,-0.305
1463,-0.085,-0.275
1464,-0.100,-0.260
1465,-0.080,-0.250
1466,-0.110,-0.260
1467,-0.120,-0.250
1468,-0.115,-0.260
1469,-0.110,-0.265
1470,-0.100,-0.255
1471,-0.125,-0.235
1472,-0.105,-0.260
1473,-0.100,-0.265
1474,-0.095,-0.260
1475,-0.105,-0.245
1476,-0.100,-0.255
1477,-0.080,-0.270
1478,-0.080,-0.270
1479,-0.105,-0.275
1480,-0.105,-0.280
1481,-0.080,-0.275
1482,-0.095,-0.285
1483,-0.110,-0.275
1484,-0.105,-0.285
1485,-0.095,-0.265
1486,-0.090,-0.280
1487,-0.080,-0.280
1488,-0.085,-0.280
1489,-0.100,-0.300
1490,-0.075,-0.310
1491,-0.085,-0.285
1492,-0.090,-0.280
1493,-0.070,-0.280
1494,-0.055,-0.290
1495,-0.070,-0.300
1496,-0.085,-0.295
1497,-0.045,-0.290
1498,-0.080,-0.290
1499,-0.055,-0.300
1500,-0.060,-0.295
1501,-0.070,-0.300
1502,-0.080,-0.290
1503,-0.070,-0.290
1504,-0.100,-0.295
1505,-0.100,-0.275
1506,-0.095,-0.295
1507,-0.105,-0.275
1508,-0.090,-0.270
1509,-0.080,-0.260
1510,-0.100,-0.290
1511,-0.095,-0.290
1512,-0.095,-0.295
1513,-0.110,-0.295
1514,-0.115,-0.315
1515,-0.100,-0.295
1516,-0.120,-0.305
1517,-0.120,-0.295
1518,-0.130,-0.290
1519,-0.110,-0.300
1520,-0.130,-0.305
1521,-0.150,-0.305
1522,-0.135,-0.310
1523,-0.135,-0.300
1524,-0.120,-0.295
1525,-0.130,-0.315
1526,-0.160,-0.310
1527,-0.120,-0.310
1528,-0.130,-0.305
1529,-0.135,-0.315
1530,-0.140,-0.330
1531,-0.160,-0.330
1532,-0.150,-0.295
1533,-0.120,-0.305
1534,-0.155,-0.310
1535,-0.150,-0.295
1536,-0.150,-0.320
1537,-0.155,-0.295
1538,-0.120,-0.315
1539,-0.155,-0.325
1540,-0.140,-0.315
1541,-0.140,-0.295
1542,-0.185,-0.310
1543,-0.155,-0.305
1544,-0.150,-0.295
1545,-0.140,-0.245
1546,-0.175,-0.240
1547,-0.160,-0.220
1548,-0.155,-0.175
1549,-0.165,-0.155
1550,-0.160,-0.150
1551,-0.120,-0.150
1552,-0.115,-0.155
1553,-0.080,-0.160
1554,-0.060,-0.170
1555,-0.075,-0.170
1556,-0.055,-0.180
1557,-0.050,-0.130
1558,-0.060,-0.135
1559,-0.070,-0.125
1560,-0.080,-0.135
1561,-0.100,-0.180
1562,-0.135,-0.245
1563,-0.120,-0.275
1564,-0.150,-0.285
1565,-0.175,-0.260
1566,-0.180,-0.265
1567,-0.195,-0.275
1568,-0.215,-0.265
1569,-0.210,-0.275
1570,-0.195,-0.285
1571,-0.230,-0.300
1572,-0.225,-0.315
1573,-0.205,-0.305
1574,-0.165,-0.325
1575,-0.180,-0.360
1576,-0.190,-0.375
1577,-0.190,-0.370
1578,-0.155,-0.375
1579,-0.140,-0.365
1580,-0.140,-0.365
1581,-0.120,-0.360
1582,-0.120,-0.350
1583,-0.115,-0.360
1584,-0.120,-0.365
1585,-0.130,-0.350
1586,-0.145,-0.350
1587,-0.135,-0.360
1588,-0.135,-0.340
1589,-0.150,-0.340
1590,-0.135,-0.365
1591,-0.140,-0.345
1592,-0.125,-0.335
1593,-0.125,-0.310
1594,-0.135,-0.275
1595,-0.145,-0.250
1596,-0.140,-0.240
1597,-0.145,-0.155
1598,-0.160,0.020
1599,-0.140,0.325
1600,-0.110,0.570
1601,-0.095,0.755
1602,-0.115,0.895
1603,-0.150,0.950
1604,-0.190,0.915
1605,-0.200,0.735
1606,-0.285,0.390
1607,-0.465,0.075
1608,-0.745,-0.030
1609,-1.055,0.065
1610,-1.290,0.090
1611,-1.450,-0.110
1612,-1.465,-0.415
1613,-1.320,-0.635
1614,-0.980,-0.750
1615,-0.570,-0.780
1616,-0.310,-0.705
1617,-0.210,-0.625
1618,-0.220,-0.540
1619,-0.265,-0.495
1620,-0.260,-0.490
1621,-0.240,-0.510
1622,-0.210,-0.505
1623,-0.155,-0.495
1624,-0.115,-0.505
1625,-0.055,-0.500
1626,-0.035,-0.495
1627,-0.020,-0.490
1628,-0.040,-0.510
1629,-0.040,-0.490
1630,-0.040,-0.480
1631,-0.010,-0.485
1632,-0.015,-0.470
1633,-0.010,-0.495
1634,0.000,-0.480
1635,0.000,-0.475
1636,-0.015,-0.460
1637,0.010,-0.470
1638,0.000,-0.490
1639,0.000,-0.485
1640,0.000,-0.485
1641,-0.020,-0.495
1642,-0.010,-0.490
1643,-0.010,-0.490
1644,-0.010,-0.490
1645,-0.005,-0.485
1646,0.000,-0.490
1647,0.005,-0.490
1648,-0.005,-0.485
1649,0.005,-0.490
1650,0.010,-0.515
1651,0.000,-0.505
1652,0.005,-0.495
1653,0.005,-0.505
1654,0.000,-0.495
1655,0.005,-0.500
1656,0.020,-0.515
1657,0.000,-0.530
1658,0.005,-0.515
1659,0.015,-0.500
1660,0.010,-0.510
1661,-0.005,-0.515
1662,-0.005,-0.515
1663,0.000,-0.510
1664,-0.010,-0.485
1665,0.000,-0.480
1666,0.005,-0.480
1667,0.000,-0.440
1668,0.000,-0.450
1669,0.000,-0.440
1670,-0.015,-0.415
1671,-0.030,-0.400
1672,-0.035,-0.390
1673,-0.045,-0.360
1674,-0.040,-0.355
1675,-0.030,-0.325
1676,-0.055,-0.315
1677,-0.055,-0.315
1678,-0.055,-0.325
1679,-0.045,-0.310
1680,-0.045,-0.305
1681,-0.045,-0.305
1682,-0.075,-0.290
1683,-0.065,-0.285
1684,-0.065,-0.295
1685,-0.060,-0.280
1686,-0.070,-0.280
1687,-0.055,-0.285
1688,-0.060,-0.275
1689,-0.040,-0.285
1690,-0.050,-0.260
1691,-0.055,-0.295
1692,-0.060,-0.290
1693,-0.045,-0.290
1694,-0.025,-0.290
1695,-0.035,-0.290
1696,-0.025,-0.300
1697,-0.045,-0.300
1698,-0.040,-0.280
1699,-0.035,-0.315
1700,-0.045,-0.295
1701,-0.015,-0.305
1702,-0.040,-0.310
1703,-0.040,-0.300
1704,-0.035,-0.305
1705,-0.020,-0.320
1706,-0.015,-0.310
1707,-0.025,-0.310
1708,-0.015,-0.305
1709,-0.025,-0.315
1710,-0.030,-0.310
1711,-0.015,-0.305
1712,0.000,-0.300
1713,-0.020,-0.295
1714,-0.025,-0.300
1715,-0.015,-0.310
1716,-0.005,-0.310
1717,-0.020,-0.310
1718,-0.020,-0.300
1719,-0.035,-0.305
1720,-0.020,-0.315
1721,-0.035,-0.305
1722,-0.035,-0.320
1723,-0.030,-0.300
1724,-0.010,-0.305
1725,-0.025,-0.295
1726,-0.035,-0.310
1727,-0.035,-0.320
1728,-0.040,-0.320
1729,-0.020,-0.300
1730,-0.030,-0.315
1731,-0.030,-0.310
1732,-0.040,-0.300
1733,-0.020,-0.310
1734,-0.050,-0.325
1735,-0.050,-0.315
1736,-0.035,-0.310
1737,-0.040,-0.320
1738,-0.025,-0.295
1739,-0.030,-0.320
1740,-0.045,-0.295
1741,-0.020,-0.315
1742,-0.035,-0.290
1743,-0.025,-0.310
1744,-0.030,-0.315
1745,-0.065,-0.325
1746,-0.040,-0.310
1747,-0.055,-0.320
1748,-0.050,-0.315
1749,-0.050,-0.320
1750,-0.040,-0.300
1751,-0.045,-0.315
1752,-0.040,-0.315
1753,-0.050,-0.305
1754,-0.040,-0.300
1755,-0.045,-0.335
1756,-0.050,-0.320
1757,-0.045,-0.335
1758,-0.040,-0.305
1759,-0.050,-0.300
1760,-0.060,-0.280
1761,-0.045,-0.275
1762,-0.040,-0.235
1763,-0.045,-0.210
1764,-0.055,-0.160
1765,-0.055,-0.155
1766,-0.025,-0.155
1767,-0.010,-0.135
1768,0.000,-0.130
1769,0.020,-0.120
1770,0.030,-0.120
1771,0.055,-0.125
1772,0.060,-0.140
1773,0.075,-0.125
1774,0.045,-0.120
1775,0.035,-0.145
1776,0.015,-0.125
1777,-0.010,-0.175
1778,-0.010,-0.210
1779,-0.045,-0.265
1780,-0.065,-0.270
1781,-0.095,-0.260
1782,-0.100,-0.250
1783,-0.100,-0.245
1784,-0.115,-0.240
1785,-0.130,-0.220
1786,-0.140,-0.245
1787,-0.135,-0.250
1788,-0.125,-0.265
1789,-0.115,-0.280
1790,-0.105,-0.300
1791,-0.105,-0.320
1792,-0.105,-0.340
1793,-0.090,-0.340
1794,-0.090,-0.355
1795,-0.065,-0.330
1796,-0.040,-0.325
1797,-0.015,-0.350
1798,-0.020,-0.340
1799,-0.035,-0.345
1800,-0.055,-0.320
1801,-0.060,-0.355
1802,-0.065,-0.340
1803,-0.055,-0.340
1804,-0.050,-0.330
1805,-0.035,-0.325
1806,-0.045,-0.325
1807,-0.070,-0.320
1808,-0.065,-0.300
1809,-0.050,-0.280
1810,-0.065,-0.230
1811,-0.070,-0.210
1812,-0.095,-0.180
1813,-0.070,-0.045
1814,-0.040,0.185
1815,-0.035,0.495
1816,-0.005,0.720
1817,0.015,0.865
1818,-0.030,0.935
1819,-0.100,0.910
1820,-0.110,0.750
1821,-0.175,0.440
1822,-0.320,0.065
1823,-0.555,-0.130
1824,-0.930,0.000
1825,-1.240,0.165
1826,-1.460,0.055
1827,-1.580,-0.205
1828,-1.540,-0.525
1829,-1.280,-0.680
1830,-0.820,-0.740
1831,-0.410,-0.700
1832,-0.210,-0.620
1833,-0.145,-0.545
1834,-0.165,-0.485
1835,-0.175,-0.475
1836,-0.175,-0.480
1837,-0.180,-0.475
1838,-0.125,-0.490
1839,-0.080,-0.485
1840,-0.020,-0.470
1841,0.020,-0.480
1842,0.020,-0.480
1843,0.020,-0.445
1844,0.050,-0.465
1845,0.055,-0.470
1846,0.075,-0.470
1847,0.070,-0.460
1848,0.065,-0.475
1849,0.095,-0.455
1850,0.065,-0.445
1851,0.080,-0.455
1852,0.080,-0.440
1853,0.085,-0.455
1854,0.095,-0.460
1855,0.095,-0.455
1856,0.095,-0.445
1857,0.100,-0.450
1858,0.110,-0.445
1859,0.100,-0.445
1860,0.080,-0.470
1861,0.080,-0.465
1862,0.095,-0.475
1863,0.070,-0.460
1864,0.090,-0.480
1865,0.080,-0.485
1866,0.075,-0.495
1867,0.075,-0.465
1868,0.100,-0.475
1869,0.105,-0.475
1870,0.115,-0.475
1871,0.070,-0.460
1872,0.100,-0.480
1873,0.080,-0.490
1874,0.090,-0.485
1875,0.085,-0.485
1876,0.080,-0.485
1877,0.040,-0.475
1878,0.070,-0.500
1879,0.065,-0.475
1880,0.055,-0.470
1881,0.055,-0.455
1882,0.060,-0.445
1883,0.065,-0.415
1884,0.055,-0.415
1885,0.050,-0.395
1886,0.065,-0.390
1887,0.025,-0.360
1888,0.050,-0.355
1889,0.030,-0.320
1890,0.030,-0.320
1891,0.010,-0.310
1892,0.005,-0.290
1893,-0.010,-0.300
1894,-0.020,-0.270
1895,-0.015,-0.280
1896,-0.020,-0.270
1897,-0.015,-0.265
1898,-0.005,-0.255
1899,-0.005,-0.260
1900,-0.025,-0.250
1901,-0.015,-0.265
1902,-0.045,-0.255
1903,-0.035,-0.250
1904,-0.015,-0.260
1905,0.000,-0.265
1906,-0.005,-0.275
1907,-0.015,-0.285
1908,0.000,-0.285
1909,0.020,-0.285
1910,0.000,-0.290
1911,0.005,-0.295
1912,0.005,-0.285
1913,0.010,-0.305
1914,0.005,-0.290
1915,0.010,-0.305
1916,0.000,-0.300
1917,0.010,-0.300
1918,-0.015,-0.295
1919,0.035,-0.310
1920,0.005,-0.300
1921,0.020,-0.295
1922,0.025,-0.315
1923,0.025,-0.310
1924,0.040,-0.305
1925,0.025,-0.305
1926,0.015,-0.310
1927,0.020,-0.305
1928,0.040,-0.310
1929,0.040,-0.295
1930,0.030,-0.305
1931,0.030,-0.305
1932,0.035,-0.310
1933,0.040,-0.300
1934,0.040,-0.290
1935,0.045,-0.310
1936,0.030,-0.305
1937,0.050,-0.310
1938,0.045,-0.295
1939,0.025,-0.290
1940,0.010,-0.300
1941,0.010,-0.285
1942,0.025,-0.280
1943,0.015,-0.285
1944,0.010,-0.300
1945,0.005,-0.270
1946,0.000,-0.280
1947,0.020,-0.280
1948,0.010,-0.280
1949,0.000,-0.275
1950,0.000,-0.290
1951,0.000,-0.295
1952,0.025,-0.300
1953,0.005,-0.280
1954,0.000,-0.290
1955,0.000,-0.295
1956,0.000,-0.300
1957,0.000,-0.310
1958,-0.010,-0.280
1959,0.010,-0.280
1960,0.005,-0.310
1961,-0.005,-0.265
1962,0.005,-0.300
1963,0.000,-0.320
1964,0.005,-0.305
1965,0.020,-0.275
1966,0.000,-0.290
1967,0.005,-0.300
1968,0.000,-0.290
1969,-0.015,-0.290
1970,-0.015,-0.290
1971,-0.010,-0.290
1972,-0.020,-0.270
1973,-0.030,-0.285
1974,-0.025,-0.295
1975,0.000,-0.305
1976,-0.020,-0.280
1977,0.005,-0.300
1978,-0.020,-0.275
1979,-0.010,-0.255
1980,-0.005,-0.240
1981,0.000,-0.210
1982,-0.015,-0.160
1983,-0.010,-0.130
1984,-0.020,-0.120
1985,0.000,-0.125
1986,0.020,-0.110
1987,0.025,-0.105
1988,0.075,-0.110
1989,0.070,-0.105
1990,0.075,-0.110
1991,0.095,-0.120
1992,0.100,-0.115
1993,0.075,-0.095
1994,0.090,-0.115
1995,0.065,-0.125
1996,0.030,-0.135
1997,0.005,-0.190
1998,0.000,-0.205
1999,-0.030,-0.235
2000,-0.065,-0.230
2001,-0.050,-0.245
2002,-0.080,-0.220
2003,-0.085,-0.195
2004,-0.095,-0.210
2005,-0.080,-0.225
2006,-0.080,-0.230
2007,-0.080,-0.245
2008,-0.050,-0.255
2009,-0.055,-0.255
2010,-0.040,-0.265
2011,-0.055,-0.290
2012,-0.055,-0.335
2013,-0.050,-0.335
2014,-0.005,-0.305
2015,-0.010,-0.320
2016,0.005,-0.305
2017,0.000,-0.305
2018,0.010,-0.300
2019,-0.015,-0.290
2020,0.000,-0.275
2021,0.000,-0.285
2022,-0.005,-0.295
2023,-0.015,-0.295
2024,-0.010,-0.280
2025,-0.015,-0.295
2026,-0.025,-0.285
2027,-0.020,-0.290
2028,-0.035,-0.280
2029,-0.030,-0.265
2030,-0.005,-0.225
2031,-0.040,-0.185
2032,-0.035,-0.160
2033,-0.035,-0.120
2034,-0.030,0.070
2035,-0.010,0.325
2036,0.000,0.570
2037,0.035,0.730
2038,0.015,0.825
2039,-0.040,0.840
2040,-0.080,0.785
2041,-0.110,0.600
2042,-0.190,0.320
2043,-0.375,-0.010
2044,-0.655,-0.120
2045,-0.960,0.035
2046,-1.300,0.210
2047,-1.480,0.095
2048,-1.585,-0.175
2049,-1.535,-0.445
2050,-1.255,-0.635
2051,-0.780,-0.720
2052,-0.370,-0.680
2053,-0.160,-0.600
2054,-0.120,-0.485
2055,-0.140,-0.445
2056,-0.165,-0.425
2057,-0.170,-0.405
2058,-0.160,-0.420
2059,-0.090,-0.420
2060,-0.015,-0.425
2061,0.015,-0.435
2062,0.050,-0.435
2063,0.060,-0.430
2064,0.065,-0.420
2065,0.095,-0.430
2066,0.070,-0.425
2067,0.085,-0.420
2068,0.110,-0.430
2069,0.100,-0.400
2070,0.095,-0.405
2071,0.130,-0.420
2072,0.140,-0.405
2073,0.125,-0.395
2074,0.100,-0.375
2075,0.105,-0.395
2076,0.115,-0.400
2077,0.125,-0.390
2078,0.105,-0.400
2079,0.115,-0.385
2080,0.095,-0.365
2081,0.110,-0.405
2082,0.110,-0.400
2083,0.120,-0.390
2084,0.115,-0.400
2085,0.125,-0.390
2086,0.115,-0.390
2087,0.110,-0.410
2088,0.120,-0.410
2089,0.115,-0.430
2090,0.095,-0.440
2091,0.095,-0.420
2092,0.100,-0.435
2093,0.100,-0.445
2094,0.095,-0.450
2095,0.090,-0.430
2096,0.095,-0.425
2097,0.100,-0.425
2098,0.090,-0.410
2099,0.110,-0.445
2100,0.070,-0.440
2101,0.100,-0.440
2102,0.090,-0.410
2103,0.065,-0.435
2104,0.080,-0.390
2105,0.075,-0.375
2106,0.055,-0.365
2107,0.065,-0.380
2108,0.045,-0.340
2109,0.055,-0.340
2110,0.050,-0.320
2111,0.075,-0.295
2112,0.035,-0.285
2113,0.030,-0.280
2114,0.020,-0.260
2115,0.005,-0.265
2116,0.000,-0.250
2117,-0.005,-0.245
2118,-0.005,-0.240
2119,-0.025,-0.245
2120,-0.020,-0.225
2121,-0.030,-0.225
2122,-0.010,-0.235
2123,-0.050,-0.240
2124,-0.020,-0.215
2125,-0.030,-0.215
2126,-0.025,-0.230
2127,-0.025,-0.255
2128,-0.025,-0.260
2129,-0.020,-0.260
2130,0.000,-0.260
2131,-0.025,-0.265
2132,-0.010,-0.270
2133,0.005,-0.270
2134,-0.025,-0.280
2135,-0.040,-0.250
2136,-0.005,-0.275
2137,-0.010,-0.285
2138,-0.025,-0.290
2139,-0.015,-0.285
2140,-0.020,-0.290
2141,0.005,-0.285
2142,0.000,-0.270
2143,0.000,-0.270
2144,0.000,-0.270
2145,0.025,-0.290
2146,0.010,-0.280
2147,0.010,-0.275
2148,0.000,-0.260
2149,0.005,-0.290
2150,0.010,-0.280
2151,0.010,-0.270
2152,0.015,-0.250
2153,0.015,-0.260
2154,0.040,-0.255
2155,0.015,-0.265
2156,0.020,-0.255
2157,0.015,-0.275
2158,0.040,-0.260
2159,0.040,-0.270
2160,0.020,-0.245
2161,0.030,-0.265
2162,0.020,-0.255
2163,0.020,-0.250
2164,0.005,-0.260
2165,0.010,-0.265
2166,0.020,-0.250
2167,0.000,-0.255
2168,0.010,-0.255
2169,-0.020,-0.240
2170,0.000,-0.240
2171,0.020,-0.245
2172,0.010,-0.240
2173,0.000,-0.240
2174,0.000,-0.240
2175,0.005,-0.235
2176,0.015,-0.225
2177,0.005,-0.255
2178,0.005,-0.235
2179,0.005,-0.255
2180,-0.015,-0.235
2181,-0.015,-0.225
2182,-0.025,-0.255
2183,0.000,-0.240
2184,0.000,-0.235
2185,0.025,-0.245
2186,0.000,-0.235
2187,-0.020,-0.235
2188,0.015,-0.235
2189,0.000,-0.220
2190,0.000,-0.230
2191,0.000,-0.215
2192,0.005,-0.220
2193,0.000,-0.230
2194,0.000,-0.220
2195,-0.020,-0.230
2196,-0.005,-0.235
2197,-0.005,-0.210
2198,-0.015,-0.210
2199,0.000,-0.195
2200,-0.020,-0.155
2201,-0.015,-0.125
2202,-0.010,-0.085
2203,0.000,-0.065
2204,-0.010,-0.040
2205,0.005,-0.045
2206,0.010,-0.050
2207,0.035,-0.050
2208,0.055,-0.030
2209,0.070,-0.045
2210,0.075,-0.065
2211,0.060,-0.035
2212,0.080,-0.040
2213,0.070,-0.030
2214,0.060,-0.025
2215,0.045,-0.045
2216,0.035,-0.095
2217,0.015,-0.135
2218,-0.010,-0.145
2219,-0.040,-0.160
2220,-0.065,-0.155
2221,-0.055,-0.130
2222,-0.075,-0.125
2223,-0.085,-0.130
2224,-0.085,-0.140
2225,-0.080,-0.145
2226,-0.065,-0.145
2227,-0.070,-0.150
2228,-0.060,-0.125
2229,-0.070,-0.165
2230,-0.050,-0.205
2231,-0.055,-0.220
2232,-0.040,-0.225
2233,-0.030,-0.215
2234,-0.030,-0.200
2235,0.000,-0.185
2236,-0.010,-0.215
2237,-0.030,-0.205
2238,-0.025,-0.195
2239,-0.010,-0.175
2240,-0.005,-0.185
2241,-0.020,-0.195
2242,-0.030,-0.185
2243,0.010,-0.170
2244,-0.020,-0.195
2245,-0.015,-0.175
2246,-0.020,-0.175
2247,-0.020,-0.165
2248,-0.040,-0.140
2249,-0.025,-0.105
2250,-0.025,-0.075
2251,-0.020,-0.055
2252,-0.020,0.005
2253,-0.025,0.210
2254,0.000,0.455
2255,0.025,0.680
2256,0.030,0.830
2257,-0.010,0.920
2258,-0.050,0.920
2259,-0.100,0.840
2260,-0.130,0.660
2261,-0.240,0.355
2262,-0.460,0.125
2263,-0.760,0.140
2264,-1.060,0.270
2265,-1.300,0.260
2266,-1.425,0.030
2267,-1.430,-0.275
2268,-1.235,-0.495
2269,-0.875,-0.580
2270,-0.425,-0.605
2271,-0.155,-0.535
2272,-0.105,-0.420
2273,-0.130,-0.360
2274,-0.125,-0.325
2275,-0.145,-0.325
2276,-0.140,-0.325
2277,-0.115,-0.310
2278,-0.075,-0.320
2279,-0.015,-0.340
2280,0.025,-0.330
2281,0.040,-0.330
2282,0.055,-0.355
2283,0.035,-0.335
2284,0.060,-0.320
2285,0.060,-0.340
2286,0.065,-0.350
2287,0.070,-0.340
2288,0.075,-0.345
2289,0.065,-0.355
2290,0.050,-0.345
2291,0.070,-0.345
2292,0.085,-0.350
2293,0.090,-0.355
2294,0.085,-0.335
2295,0.080,-0.340
2296,0.080,-0.345
2297,0.085,-0.340
2298,0.095,-0.355
2299,0.075,-0.340
2300,0.065,-0.340
2301,0.065,-0.360
2302,0.070,-0.360
2303,0.065,-0.365
2304,0.065,-0.380
2305,0.060,-0.385
2306,0.070,-0.370
2307,0.060,-0.370
2308,0.055,-0.390
2309,0.050,-0.370
2310,0.065,-0.385
2311,0.065,-0.395
2312,0.055,-0.390
2313,0.050,-0.405
2314,0.055,-0.400
2315,0.045,-0.420
2316,0.055,-0.380
2317,0.050,-0.375
2318,0.055,-0.380
2319,0.035,-0.375
2320,0.035,-0.365
2321,0.035,-0.350
2322,0.050,-0.355
2323,0.030,-0.330
2324,0.030,-0.310
2325,0.025,-0.275
2326,0.025,-0.275
2327,0.010,-0.255
2328,0.005,-0.220
2329,0.010,-0.215
2330,-0.020,-0.200
2331,-0.005,-0.200
2332,-0.005,-0.190
2333,-0.030,-0.165
2334,-0.020,-0.180
2335,-0.010,-0.180
2336,-0.040,-0.200
2337,-0.020,-0.160
2338,-0.020,-0.170
2339,-0.020,-0.160
2340,-0.055,-0.160
2341,-0.020,-0.170
2342,-0.040,-0.170
2343,-0.015,-0.175
2344,-0.030,-0.175
2345,-0.040,-0.180
2346,-0.030,-0.210
2347,-0.030,-0.200
2348,-0.010,-0.200
2349,-0.020,-0.195
2350,-0.020,-0.185
2351,-0.010,-0.195
2352,-0.005,-0.180
2353,0.000,-0.185
2354,-0.010,-0.170
2355,0.000,-0.170
2356,-0.015,-0.180
2357,-0.005,-0.180
2358,0.005,-0.190
2359,0.000,-0.205
2360,0.000,-0.205
2361,0.005,-0.200
2362,-0.010,-0.195
2363,0.020,-0.195
2364,0.005,-0.205
2365,0.000,-0.190
2366,0.000,-0.205
2367,0.020,-0.205
2368,0.015,-0.195
2369,0.005,-0.180
2370,0.000,-0.180
2371,0.010,-0.200
2372,0.020,-0.190
2373,0.000,-0.185
2374,0.005,-0.190
2375,-0.005,-0.180
2376,0.000,-0.190
2377,0.010,-0.190
2378,0.015,-0.190
2379,-0.005,-0.200
2380,-0.005,-0.210
2381,0.000,-0.210
2382,-0.005,-0.200
2383,-0.005,-0.190
2384,-0.010,-0.200
2385,-0.005,-0.190
2386,0.010,-0.205
2387,0.010,-0.205
2388,0.000,-0.200
2389,0.000,-0.190
2390,0.010,-0.195
2391,-0.020,-0.175
2392,-0.010,-0.200
2393,-0.015,-0.190
2394,0.000,-0.190
2395,0.000,-0.210
2396,-0.020,-0.170
2397,-0.005,-0.185
2398,-0.005,-0.185
2399,-0.035,-0.170
2400,-0.015,-0.170
2401,-0.020,-0.180
2402,-0.025,-0.180
2403,-0.020,-0.185
2404,-0.025,-0.165
2405,-0.015,-0.155
2406,0.005,-0.160
2407,0.005,-0.190
2408,-0.005,-0.165
2409,0.005,-0.155
2410,0.000,-0.150
2411,0.000,-0.160
2412,0.000,-0.160
2413,-0.035,-0.120
2414,-0.015,-0.110
2415,-0.020,-0.055
2416,0.000,-0.040
2417,-0.005,-0.035
2418,0.010,-0.005
2419,0.005,0.010
2420,0.045,-0.010
2421,0.040,0.010
2422,0.060,0.025
2423,0.085,0.000
2424,0.090,-0.020
2425,0.110,-0.015
2426,0.090,0.005
2427,0.100,0.020
2428,0.085,0.005
2429,0.095,-0.005
2430,0.055,-0.030
2431,0.045,-0.105
2432,0.020,-0.110
2433,0.010,-0.125
2434,-0.010,-0.110
2435,-0.020,-0.100
2436,-0.065,-0.090
2437,-0.030,-0.085
2438,-0.060,-0.105
2439,-0.045,-0.120
2440,-0.045,-0.130
2441,-0.040,-0.120
2442,-0.025,-0.140
2443,-0.030,-0.170
2444,-0.030,-0.195
2445,-0.020,-0.210
2446,0.005,-0.200
2447,0.015,-0.195
2448,0.010,-0.180
2449,0.015,-0.190
2450,0.035,-0.180
2451,0.020,-0.190
2452,0.020,-0.185
2453,0.010,-0.170
2454,0.000,-0.180
2455,0.005,-0.175
2456,-0.005,-0.170
2457,-0.005,-0.160
2458,0.010,-0.150
2459,-0.010,-0.150
2460,0.010,-0.140
2461,0.020,-0.100
2462,-0.005,-0.080
2463,0.010,-0.065
2464,-0.005,-0.030
2465,0.010,0.090
2466,0.005,0.335
2467,0.020,0.600
2468,0.045,0.820
2469,0.060,0.975
2470,0.040,1.070
2471,-0.025,1.095
2472,-0.055,0.990
2473,-0.085,0.730
2474,-0.220,0.375
2475,-0.430,0.190
2476,-0.740,0.250
2477,-1.055,0.295
2478,-1.235,0.170
2479,-1.305,-0.130
2480,-1.260,-0.380
2481,-1.015,-0.525
2482,-0.610,-0.575
2483,-0.240,-0.540
2484,-0.125,-0.395
2485,-0.080,-0.320
2486,-0.130,-0.310
2487,-0.125,-0.295
2488,-0.105,-0.295
2489,-0.080,-0.295
2490,-0.030,-0.300
2491,0.015,-0.300
2492,0.050,-0.300
2493,0.095,-0.295
2494,0.090,-0.305
2495,0.085,-0.295
2496,0.100,-0.285
2497,0.100,-0.305
2498,0.085,-0.305
2499,0.080,-0.295
2500,0.090,-0.310
2501,0.110,-0.305
2502,0.095,-0.300
2503,0.105,-0.285
2504,0.110,-0.290
2505,0.125,-0.275
2506,0.125,-0.300
2507,0.120,-0.310
2508,0.115,-0.300
2509,0.110,-0.320
2510,0.100,-0.295
2511,0.110,-0.290
2512,0.105,-0.320
2513,0.105,-0.310
2514,0.110,-0.300
2515,0.110,-0.305
2516,0.105,-0.330
2517,0.125,-0.340
2518,0.100,-0.330
2519,0.110,-0.325
2520,0.110,-0.320
2521,0.105,-0.340
2522,0.100,-0.355
2523,0.110,-0.340
2524,0.110,-0.360
2525,0.105,-0.360
2526,0.100,-0.340
2527,0.085,-0.360
2528,0.090,-0.360
2529,0.080,-0.350
2530,0.095,-0.355
2531,0.095,-0.345
2532,0.060,-0.335
2533,0.080,-0.325
2534,0.060,-0.300
2535,0.090,-0.300
2536,0.070,-0.275
2537,0.080,-0.260
2538,0.080,-0.250
2539,0.055,-0.230
2540,0.040,-0.195
2541,0.055,-0.185
2542,0.045,-0.170
2543,0.010,-0.155
2544,0.010,-0.160
2545,0.015,-0.130
2546,0.015,-0.130
2547,0.010,-0.130
2548,0.030,-0.115
2549,0.020,-0.110
2550,0.020,-0.125
2551,0.020,-0.120
2552,0.000,-0.110
2553,0.005,-0.115
2554,0.025,-0.115
2555,0.020,-0.115
2556,0.015,-0.120
2557,0.000,-0.130
2558,0.010,-0.130
2559,0.035,-0.115
2560,0.040,-0.135
2561,0.040,-0.145
2562,0.035,-0.155
2563,0.035,-0.150
2564,0.040,-0.140
2565,0.035,-0.145
2566,0.055,-0.135
2567,0.040,-0.130
2568,0.065,-0.130
2569,0.065,-0.150
2570,0.075,-0.150
2571,0.055,-0.150
2572,0.065,-0.150
2573,0.055,-0.145
2574,0.070,-0.135
2575,0.070,-0.150
2576,0.075,-0.140
2577,0.060,-0.140
2578,0.075,-0.170
2579,0.045,-0.155
2580,0.060,-0.150
2581,0.060,-0.155
2582,0.055,-0.165
2583,0.050,-0.150
2584,0.050,-0.150
2585,0.045,-0.135
2586,0.060,-0.185
2587,0.060,-0.150
2588,0.050,-0.155
2589,0.040,-0.170
2590,0.055,-0.170
2591,0.065,-0.180
2592,0.060,-0.175
2593,0.040,-0.180
2594,0.035,-0.165
2595,0.060,-0.190
2596,0.055,-0.175
2597,0.045,-0.180
2598,0.050,-0.180
2599,0.035,-0.185
2600,0.045,-0.200
2601,0.035,-0.205
2602,0.040,-0.210
2603,0.060,-0.190
2604,0.040,-0.200
2605,0.030,-0.175
2606,0.040,-0.210
2607,0.030,-0.195
2608,0.040,-0.180
2609,0.065,-0.205
2610,0.045,-0.175
2611,0.050,-0.200
2612,0.055,-0.175
2613,0.040,-0.185
2614,0.035,-0.195
2615,0.035,-0.205
2616,0.050,-0.195
2617,0.055,-0.175
2618,0.070,-0.185
2619,0.040,-0.195
2620,0.050,-0.180
2621,0.040,-0.200
2622,0.030,-0.185
2623,0.050,-0.175
2624,0.025,-0.170
2625,0.030,-0.160
2626,0.040,-0.135
2627,0.055,-0.070
2628,0.055,-0.075
2629,0.055,-0.035
2630,0.050,-0.015
2631,0.050,-0.020
2632,0.085,-0.025
2633,0.080,-0.005
2634,0.115,-0.005
2635,0.140,0.000
2636,0.150,-0.035
2637,0.160,0.000
2638,0.155,-0.020
2639,0.170,-0.015
2640,0.125,-0.025
2641,0.115,-0.020
2642,0.080,-0.065
2643,0.055,-0.105
2644,0.060,-0.130
2645,0.010,-0.145
2646,-0.010,-0.140
2647,-0.005,-0.125
2648,-0.010,-0.100
2649,-0.015,-0.100
2650,-0.020,-0.100
2651,-0.010,-0.125
2652,-0.010,-0.125
2653,-0.005,-0.135
2654,0.015,-0.155
2655,0.020,-0.160
2656,0.020,-0.205
2657,0.015,-0.205
2658,0.030,-0.220
2659,0.040,-0.220
2660,0.055,-0.210
2661,0.055,-0.200
2662,0.055,-0.200
2663,0.055,-0.175
2664,0.070,-0.210
2665,0.060,-0.190
2666,0.080,-0.180
2667,0.065,-0.190
2668,0.075,-0.190
2669,0.045,-0.185
2670,0.060,-0.175
2671,0.060,-0.175
2672,0.070,-0.165
2673,0.060,-0.130
2674,0.080,-0.100
2675,0.070,-0.050
2676,0.070,-0.040
2677,0.065,0.000
2678,0.060,0.170
2679,0.060,0.430
2680,0.095,0.690
2681,0.115,0.890
2682,0.125,1.045
2683,0.075,1.100
2684,0.050,1.070
2685,0.005,0.915
2686,-0.055,0.570
2687,-0.195,0.170
2688,-0.480,0.050
2689,-0.820,0.180
2690,-1.130,0.310
2691,-1.330,0.190
2692,-1.415,-0.095
2693,-1.365,-0.360
2694,-1.100,-0.530
2695,-0.640,-0.585
2696,-0.250,-0.575
2697,-0.065,-0.480
2698,-0.010,-0.370
2699,-0.045,-0.320
2700,-0.035,-0.310
2701,-0.060,-0.315
2702,-0.040,-0.310
2703,0.000,-0.310
2704,0.065,-0.320
2705,0.120,-0.330
2706,0.145,-0.305
2707,0.145,-0.315
2708,0.150,-0.310
2709,0.140,-0.305
2710,0.175,-0.315
2711,0.165,-0.305
2712,0.175,-0.310
2713,0.150,-0.320
2714,0.180,-0.310
2715,0.200,-0.310
2716,0.175,-0.290
2717,0.180,-0.295
2718,0.175,-0.280
2719,0.200,-0.315
2720,0.185,-0.310
2721,0.170,-0.310
2722,0.180,-0.305
2723,0.165,-0.295
2724,0.200,-0.300
2725,0.175,-0.300
2726,0.175,-0.320
2727,0.170,-0.310
2728,0.180,-0.330
2729,0.160,-0.335
2730,0.175,-0.330
2731,0.155,-0.325
2732,0.170,-0.335
2733,0.165,-0.320
2734,0.160,-0.340
2735,0.180,-0.350
2736,0.160,-0.340
2737,0.150,-0.345
2738,0.160,-0.355
2739,0.155,-0.365
2740,0.155,-0.370
2741,0.170,-0.370
2742,0.175,-0.360
2743,0.135,-0.355
2744,0.150,-0.335
2745,0.140,-0.345
2746,0.150,-0.340
2747,0.140,-0.310
2748,0.120,-0.290
2749,0.135,-0.305
2750,0.140,-0.290
2751,0.120,-0.280
2752,0.100,-0.255
2753,0.095,-0.225
2754,0.100,-0.215
2755,0.090,-0.215
2756,0.110,-0.190
2757,0.085,-0.180
2758,0.075,-0.160
2759,0.090,-0.170
2760,0.055,-0.150
2761,0.050,-0.130
2762,0.050,-0.160
2763,0.050,-0.155
2764,0.060,-0.140
2765,0.050,-0.140
2766,0.025,-0.150
2767,0.050,-0.160
2768,0.020,-0.155
2769,0.035,-0.145
2770,0.035,-0.150
2771,0.035,-0.170
2772,0.035,-0.155
2773,0.055,-0.165
2774,0.040,-0.180
2775,0.050,-0.180
2776,0.045,-0.185
2777,0.045,-0.200
2778,0.070,-0.200
2779,0.040,-0.190
2780,0.060,-0.200
2781,0.040,-0.225
2782,0.060,-0.200
2783,0.040,-0.230
2784,0.025,-0.235
2785,0.045,-0.245
2786,0.055,-0.235
2787,0.035,-0.230
2788,0.055,-0.220
2789,0.055,-0.240
2790,0.050,-0.240
2791,0.060,-0.235
2792,0.070,-0.260
2793,0.045,-0.240
2794,0.050,-0.250
2795,0.055,-0.255
2796,0.050,-0.250
2797,0.060,-0.250
2798,0.070,-0.240
2799,0.055,-0.260
2800,0.060,-0.255
2801,0.040,-0.255
2802,0.040,-0.245
2803,0.050,-0.235
2804,0.040,-0.255
2805,0.020,-0.260
2806,0.055,-0.240
2807,0.050,-0.250
2808,0.055,-0.260
2809,0.040,-0.250
2810,0.035,-0.265
2811,0.040,-0.260
2812,0.035,-0.255
2813,0.030,-0.245
2814,0.030,-0.270
2815,0.030,-0.240
2816,0.015,-0.260
2817,0.030,-0.260
2818,0.005,-0.250
2819,0.030,-0.250
2820,0.030,-0.260
2821,0.030,-0.270
2822,0.015,-0.285
2823,0.015,-0.260
2824,0.020,-0.275
2825,0.030,-0.260
2826,0.015,-0.260
2827,0.010,-0.255
2828,0.025,-0.230
2829,0.055,-0.260
2830,0.010,-0.245
2831,0.020,-0.240
2832,0.010,-0.255
2833,0.025,-0.255
2834,0.025,-0.255
2835,0.005,-0.255
2836,0.005,-0.245
2837,0.005,-0.245
2838,0.000,-0.255
2839,0.015,-0.250
2840,0.015,-0.240
2841,0.015,-0.235
2842,0.025,-0.240
2843,0.000,-0.200
2844,0.015,-0.185
2845,0.025,-0.175
2846,0.000,-0.130
2847,-0.010,-0.100
2848,0.005,-0.105
2849,0.020,-0.100
2850,0.030,-0.105
2851,0.050,-0.105
2852,0.085,-0.080
2853,0.110,-0.090
2854,0.110,-0.110
2855,0.110,-0.100
2856,0.115,-0.090
2857,0.105,-0.085
2858,0.070,-0.090
2859,0.045,-0.080
2860,0.030,-0.140
2861,0.010,-0.180
2862,0.005,-0.250
2863,-0.035,-0.250
2864,-0.040,-0.240
2865,-0.055,-0.225
2866,-0.045,-0.225
2867,-0.070,-0.235
2868,-0.065,-0.225
2869,-0.050,-0.220
2870,-0.060,-0.230
2871,-0.040,-0.230
2872,-0.065,-0.255
2873,-0.045,-0.270
2874,-0.030,-0.275
2875,-0.050,-0.305
2876,-0.010,-0.325
2877,0.010,-0.315
2878,0.015,-0.310
2879,0.020,-0.280
2880,0.020,-0.285
2881,0.020,-0.300
2882,0.025,-0.300
2883,0.010,-0.285
2884,0.005,-0.300
2885,0.000,-0.255
2886,0.005,-0.295
2887,0.000,-0.285
2888,0.005,-0.275
2889,0.005,-0.255
2890,-0.005,-0.275
2891,0.000,-0.260
2892,0.000,-0.245
2893,0.000,-0.190
2894,-0.005,-0.150
2895,-0.025,-0.135
2896,-0.020,-0.080
2897,0.000,0.070
2898,0.000,0.320
2899,0.030,0.570
2900,0.055,0.750
2901,0.050,0.830
2902,-0.005,0.835
2903,-0.040,0.775
2904,-0.080,0.580
2905,-0.160,0.285
2906,-0.355,-0.015
2907,-0.645,-0.075
2908,-0.970,0.080
2909,-1.290,0.210
2910,-1.450,0.075
2911,-1.480,-0.235
2912,-1.400,-0.500
2913,-1.070,-0.640
2914,-0.615,-0.690
2915,-0.245,-0.635
2916,-0.085,-0.545
2917,-0.060,-0.445
2918,-0.120,-0.415
2919,-0.135,-0.410
2920,-0.125,-0.415
2921,-0.090,-0.425
2922,-0.030,-0.425
2923,0.030,-0.410
2924,0.070,-0.415
2925,0.075,-0.405
2926,0.115,-0.400
2927,0.105,-0.390
2928,0.105,-0.415
2929,0.115,-0.405
2930,0.125,-0.395
2931,0.135,-0.400
2932,0.095,-0.385
2933,0.130,-0.395
2934,0.130,-0.400
2935,0.115,-0.410
2936,0.120,-0.415
2937,0.140,-0.400
2938,0.125,-0.410
2939,0.140,-0.395
2940,0.150,-0.395
2941,0.155,-0.385
2942,0.135,-0.405
2943,0.125,-0.400
2944,0.135,-0.420
2945,0.130,-0.410
2946,0.130,-0.400
2947,0.100,-0.420
2948,0.120,-0.440
2949,0.120,-0.435
2950,0.110,-0.450
2951,0.130,-0.415
2952,0.100,-0.430
2953,0.130,-0.410
2954,0.110,-0.430
2955,0.120,-0.425
2956,0.105,-0.440
2957,0.105,-0.435
2958,0.110,-0.455
2959,0.090,-0.445
2960,0.075,-0.440
2961,0.080,-0.430
2962,0.090,-0.440
2963,0.095,-0.430
2964,0.085,-0.425
2965,0.050,-0.415
2966,0.075,-0.400
2967,0.090,-0.380
2968,0.070,-0.375
2969,0.075,-0.350
2970,0.055,-0.335
2971,0.065,-0.315
2972,0.055,-0.310
2973,0.050,-0.295
2974,0.045,-0.280
2975,0.030,-0.275
2976,0.010,-0.270
2977,0.000,-0.275
2978,-0.015,-0.245
2979,0.000,-0.245
2980,-0.005,-0.225
2981,-0.015,-0.225
2982,-0.020,-0.250
2983,-0.020,-0.225
2984,0.000,-0.245
2985,-0.010,-0.240
2986,0.000,-0.245
2987,0.000,-0.230
2988,-0.015,-0.255
2989,-0.010,-0.245
2990,-0.025,-0.230
2991,-0.025,-0.255
2992,0.000,-0.235
2993,-0.010,-0.260
2994,0.000,-0.265
2995,-0.005,-0.265
2996,-0.005,-0.280
2997,-0.015,-0.275
2998,0.000,-0.290
2999,-0.005,-0.270
3000,-0.005,-0.260
3001,0.000,-0.260
3002,0.010,-0.285
3003,0.005,-0.295
3004,0.010,-0.290
3005,0.000,-0.280
3006,0.005,-0.265
3007,0.005,-0.280
3008,0.000,-0.280
3009,-0.005,-0.300
3010,0.005,-0.285
3011,0.015,-0.290
3012,0.020,-0.290
3013,0.010,-0.280
3014,0.020,-0.285
3015,0.010,-0.260
3016,0.005,-0.270
3017,0.010,-0.275
3018,0.005,-0.275
3019,0.015,-0.300
3020,0.015,-0.260
3021,0.015,-0.285
3022,0.000,-0.280
3023,-0.010,-0.275
3024,0.010,-0.295
3025,0.000,-0.275
3026,-0.005,-0.275
3027,0.000,-0.280
3028,0.005,-0.270
3029,0.000,-0.280
3030,0.000,-0.305
3031,-0.010,-0.295
3032,0.010,-0.290
3033,-0.015,-0.275
3034,-0.025,-0.285
3035,-0.035,-0.285
3036,-0.035,-0.290
3037,0.005,-0.285
3038,-0.030,-0.285
3039,-0.065,-0.290
3040,-0.040,-0.280
3041,-0.040,-0.285
3042,-0.050,-0.290
3043,-0.040,-0.290
3044,-0.055,-0.295
3045,-0.040,-0.285
3046,-0.040,-0.295
3047,-0.040,-0.300
3048,-0.060,-0.290
3049,-0.045,-0.315
3050,-0.045,-0.300
3051,-0.065,-0.305
3052,-0.050,-0.285
3053,-0.045,-0.285
3054,-0.065,-0.290
3055,-0.065,-0.270
3056,-0.055,-0.285
3057,-0.050,-0.295
3058,-0.055,-0.270
3059,-0.065,-0.240
3060,-0.080,-0.210
3061,-0.060,-0.150
3062,-0.065,-0.150
3063,-0.065,-0.140
3064,-0.065,-0.145
3065,-0.035,-0.150
3066,-0.040,-0.140
3067,-0.010,-0.130
3068,0.000,-0.145
3069,0.000,-0.160
3070,0.040,-0.150
3071,0.035,-0.130
3072,0.025,-0.125
3073,0.010,-0.110
3074,-0.005,-0.120
3075,0.000,-0.185
3076,-0.050,-0.215
3077,-0.070,-0.250
3078,-0.075,-0.255
3079,-0.080,-0.250
3080,-0.105,-0.240
3081,-0.115,-0.230
3082,-0.120,-0.250
3083,-0.140,-0.265
3084,-0.120,-0.265
3085,-0.140,-0.270
3086,-0.125,-0.285
3087,-0.110,-0.275
3088,-0.105,-0.310
3089,-0.100,-0.330
3090,-0.080,-0.340
3091,-0.085,-0.320
3092,-0.080,-0.320
3093,-0.030,-0.325
3094,-0.035,-0.325
3095,-0.065,-0.325
3096,-0.060,-0.330
3097,-0.040,-0.340
3098,-0.040,-0.330
3099,-0.050,-0.310
3100,-0.075,-0.320
3101,-0.075,-0.310
3102,-0.060,-0.310
3103,-0.050,-0.325
3104,-0.055,-0.315
3105,-0.065,-0.290
3106,-0.065,-0.270
3107,-0.060,-0.250
3108,-0.070,-0.210
3109,-0.065,-0.215
3110,-0.080,-0.195
3111,-0.075,-0.040
3112,-0.065,0.200
3113,-0.040,0.445
3114,-0.010,0.635
3115,-0.010,0.785
3116,-0.085,0.890
3117,-0.120,0.890
3118,-0.150,0.810
3119,-0.195,0.595
3120,-0.325,0.255
3121,-0.565,0.080
3122,-0.870,0.110
3123,-1.165,0.170
3124,-1.310,0.020
3125,-1.340,-0.270
3126,-1.270,-0.525
3127,-1.030,-0.675
3128,-0.660,-0.740
3129,-0.340,-0.715
3130,-0.195,-0.605
3131,-0.180,-0.525
3132,-0.215,-0.465
3133,-0.215,-0.460
3134,-0.200,-0.465
3135,-0.170,-0.450
3136,-0.145,-0.465
3137,-0.100,-0.490
3138,-0.065,-0.475
3139,-0.020,-0.460
3140,0.000,-0.455
3141,0.005,-0.460
3142,0.005,-0.465
3143,0.005,-0.465
3144,0.005,-0.480
3145,-0.005,-0.450
3146,0.000,-0.475
3147,0.015,-0.470
3148,0.030,-0.470
3149,0.025,-0.480
3150,0.025,-0.450
3151,0.010,-0.485
3152,0.035,-0.485
3153,0.030,-0.490
3154,0.020,-0.475
3155,0.035,-0.475
3156,0.040,-0.460
3157,0.030,-0.470
3158,0.005,-0.460
3159,0.015,-0.475
3160,0.035,-0.495
3161,0.040,-0.495
3162,0.030,-0.495
3163,0.035,-0.480
3164,0.040,-0.480
3165,0.035,-0.500
3166,0.035,-0.515
3167,0.040,-0.500
3168,0.015,-0.505
3169,0.020,-0.520
3170,0.035,-0.510
3171,0.045,-0.505
3172,0.025,-0.525
3173,0.020,-0.525
3174,0.015,-0.495
3175,0.035,-0.500
3176,0.030,-0.480
3177,0.035,-0.480
3178,0.025,-0.485
3179,0.010,-0.475
3180,0.020,-0.465
3181,0.015,-0.435
3182,0.005,-0.430
3183,0.015,-0.420
3184,0.010,-0.410
3185,0.015,-0.375
3186,-0.005,-0.350
3187,-0.005,-0.330
3188,-0.030,-0.315
3189,0.000,-0.305
3190,-0.020,-0.285
3191,-0.035,-0.280
3192,-0.050,-0.270
3193,-0.040,-0.265
3194,-0.050,-0.265
3195,-0.050,-0.220
3196,-0.055,-0.240
3197,-0.055,-0.250
3198,-0.060,-0.245
3199,-0.045,-0.240
3200,-0.055,-0.245
3201,-0.050,-0.270
3202,-0.050,-0.250
3203,-0.040,-0.250
3204,-0.040,-0.245
3205,-0.055,-0.260
3206,-0.050,-0.265
3207,-0.030,-0.265
3208,-0.030,-0.275
3209,-0.040,-0.275
3210,-0.035,-0.270
3211,-0.025,-0.285
3212,-0.030,-0.270
3213,-0.015,-0.260
3214,-0.035,-0.280
3215,-0.035,-0.300
3216,-0.025,-0.275
3217,-0.020,-0.280
3218,-0.025,-0.290
3219,-0.020,-0.280
3220,-0.025,-0.285
3221,-0.010,-0.275
3222,-0.010,-0.285
3223,-0.025,-0.270
3224,-0.015,-0.270
3225,-0.025,-0.270
3226,-0.020,-0.285
3227,-0.005,-0.265
3228,-0.020,-0.275
3229,0.000,-0.290
3230,-0.005,-0.275
3231,0.005,-0.280
3232,0.000,-0.285
3233,-0.005,-0.280
3234,-0.010,-0.280
3235,-0.025,-0.280
3236,-0.005,-0.285
3237,-0.015,-0.290
3238,0.000,-0.290
3239,-0.020,-0.280
3240,-0.010,-0.265
3241,-0.035,-0.290
3242,-0.010,-0.290
3243,-0.020,-0.270
3244,-0.030,-0.270
3245,-0.035,-0.290
3246,-0.020,-0.280
3247,-0.035,-0.290
3248,-0.030,-0.280
3249,-0.020,-0.285
3250,-0.050,-0.295
3251,-0.040,-0.295
3252,-0.035,-0.280
3253,-0.030,-0.295
3254,-0.040,-0.290
3255,-0.050,-0.295
3256,-0.030,-0.290
3257,-0.040,-0.305
3258,-0.020,-0.300
3259,-0.040,-0.275
3260,-0.060,-0.290
3261,-0.045,-0.295
3262,-0.065,-0.295
3263,-0.055,-0.275
3264,-0.045,-0.280
3265,-0.050,-0.265
3266,-0.065,-0.280
3267,-0.055,-0.265
3268,-0.040,-0.265
3269,-0.060,-0.265
3270,-0.045,-0.270
3271,-0.050,-0.270
3272,-0.035,-0.235
3273,-0.020,-0.200
3274,-0.035,-0.175
3275,-0.050,-0.135
3276,-0.035,-0.115
3277,-0.040,-0.105
3278,-0.015,-0.110
3279,-0.015,-0.115
3280,0.000,-0.115
3281,0.025,-0.095
3282,0.025,-0.105
3283,0.035,-0.130
3284,0.060,-0.110
3285,0.055,-0.095
3286,0.030,-0.100
3287,0.035,-0.105
3288,0.010,-0.130
3289,-0.015,-0.155
3290,-0.035,-0.210
3291,-0.045,-0.260
3292,-0.070,-0.250
3293,-0.080,-0.230
3294,-0.100,-0.225
3295,-0.105,-0.235
3296,-0.120,-0.225
3297,-0.120,-0.240
3298,-0.125,-0.240
3299,-0.125,-0.235
3300,-0.090,-0.235
3301,-0.090,-0.270
3302,-0.090,-0.285
3303,-0.090,-0.295
3304,-0.095,-0.335
3305,-0.085,-0.330
3306,-0.065,-0.340
3307,-0.035,-0.315
3308,-0.030,-0.335
3309,-0.040,-0.325
3310,-0.050,-0.315
3311,-0.065,-0.310
3312,-0.060,-0.315
3313,-0.045,-0.305
3314,-0.045,-0.300
3315,-0.045,-0.315
3316,-0.050,-0.300
3317,-0.060,-0.305
3318,-0.045,-0.315
3319,-0.035,-0.300
3320,-0.060,-0.280
3321,-0.050,-0.235
3322,-0.070,-0.210
3323,-0.050,-0.185
3324,-0.075,-0.110
3325,-0.055,0.055
3326,-0.055,0.350
3327,-0.020,0.590
3328,-0.005,0.795
3329,-0.010,0.935
3330,-0.045,1.025
3331,-0.100,1.000
3332,-0.105,0.840
3333,-0.160,0.520
3334,-0.340,0.155
3335,-0.600,0.005
3336,-0.895,0.090
3337,-1.180,0.155
3338,-1.320,0.010
3339,-1.365,-0.275
3340,-1.295,-0.525
3341,-0.980,-0.675
3342,-0.590,-0.740
3343,-0.285,-0.705
3344,-0.160,-0.610
3345,-0.130,-0.530
3346,-0.175,-0.460
3347,-0.150,-0.440
3348,-0.155,-0.460
3349,-0.135,-0.460
3350,-0.085,-0.470
3351,-0.045,-0.470
3352,0.000,-0.440
3353,0.025,-0.435
3354,0.035,-0.460
3355,0.055,-0.460
3356,0.035,-0.450
3357,0.040,-0.460
3358,0.060,-0.460
3359,0.065,-0.440
3360,0.060,-0.455
3361,0.060,-0.465
3362,0.070,-0.460
3363,0.055,-0.470
3364,0.085,-0.460
3365,0.070,-0.450
3366,0.095,-0.450
3367,0.105,-0.440
3368,0.065,-0.455
3369,0.085,-0.455
3370,0.090,-0.440
3371,0.090,-0.460
3372,0.065,-0.465
3373,0.085,-0.465
3374,0.110,-0.455
3375,0.110,-0.455
3376,0.100,-0.455
3377,0.095,-0.475
3378,0.110,-0.460
3379,0.090,-0.485
3380,0.095,-0.485
3381,0.075,-0.485
3382,0.085,-0.470
3383,0.095,-0.490
3384,0.085,-0.495
3385,0.065,-0.495
3386,0.080,-0.500
3387,0.080,-0.515
3388,0.080,-0.490
3389,0.080,-0.500
3390,0.060,-0.485
3391,0.080,-0.490
3392,0.070,-0.485
3393,0.080,-0.480
3394,0.060,-0.450
3395,0.055,-0.440
3396,0.070,-0.445
3397,0.070,-0.420
3398,0.090,-0.385
3399,0.060,-0.375
3400,0.035,-0.330
3401,0.060,-0.330
3402,0.040,-0.305
3403,0.020,-0.285
3404,0.030,-0.305
3405,0.000,-0.280
3406,0.025,-0.260
3407,0.010,-0.250
3408,0.010,-0.250
3409,0.015,-0.235
3410,0.005,-0.225
3411,0.000,-0.250
3412,0.010,-0.235
3413,0.000,-0.220
3414,0.020,-0.245
3415,-0.005,-0.235
3416,0.040,-0.240
3417,0.045,-0.240
3418,0.010,-0.255
3419,0.045,-0.235
3420,0.025,-0.240
3421,0.045,-0.255
3422,0.035,-0.270
3423,0.035,-0.250
3424,0.035,-0.275
3425,0.060,-0.250
3426,0.055,-0.265
3427,0.045,-0.260
3428,0.045,-0.255
3429,0.055,-0.265
3430,0.040,-0.270
3431,0.055,-0.270
3432,0.045,-0.275
3433,0.065,-0.280
3434,0.055,-0.265
3435,0.070,-0.275
3436,0.075,-0.280
3437,0.060,-0.295
3438,0.060,-0.265
3439,0.075,-0.260
3440,0.085,-0.275
3441,0.060,-0.265
3442,0.060,-0.265
3443,0.070,-0.275
3444,0.070,-0.275
3445,0.065,-0.290
3446,0.070,-0.275
3447,0.050,-0.270
3448,0.065,-0.275
3449,0.055,-0.270
3450,0.075,-0.270
3451,0.075,-0.260
3452,0.050,-0.250
3453,0.055,-0.260
3454,0.060,-0.265
3455,0.035,-0.275
3456,0.045,-0.275
3457,0.060,-0.300
3458,0.065,-0.275
3459,0.055,-0.275
3460,0.030,-0.270
3461,0.045,-0.295
3462,0.050,-0.265
3463,0.040,-0.270
3464,0.030,-0.275
3465,0.040,-0.265
3466,0.035,-0.280
3467,0.060,-0.275
3468,0.025,-0.260
3469,0.040,-0.285
3470,0.050,-0.285
3471,0.025,-0.280
3472,0.030,-0.290
3473,0.025,-0.265
3474,0.035,-0.275
3475,0.020,-0.285
3476,0.025,-0.290
3477,0.045,-0.280
3478,0.050,-0.250
3479,0.035,-0.265
3480,0.030,-0.270
3481,0.035,-0.260
3482,0.035,-0.260
3483,0.040,-0.225
3484,0.015,-0.210
3485,0.045,-0.180
3486,0.055,-0.125
3487,0.025,-0.090
3488,0.055,-0.095
3489,0.055,-0.070
3490,0.060,-0.090
3491,0.100,-0.090
3492,0.100,-0.085
3493,0.120,-0.100
3494,0.130,-0.100
3495,0.145,-0.095
3496,0.145,-0.085
3497,0.125,-0.085
3498,0.090,-0.085
3499,0.080,-0.115
3500,0.035,-0.170
3501,0.030,-0.220
3502,0.015,-0.220
3503,-0.010,-0.205
3504,-0.025,-0.220
3505,-0.035,-0.185
3506,-0.030,-0.195
3507,-0.040,-0.200
3508,-0.035,-0.210
3509,-0.030,-0.200
3510,-0.025,-0.225
3511,-0.010,-0.230
3512,0.000,-0.250
3513,0.005,-0.295
3514,0.000,-0.300
3515,0.005,-0.290
3516,0.030,-0.290
3517,0.060,-0.280
3518,0.065,-0.290
3519,0.045,-0.290
3520,0.060,-0.280
3521,0.045,-0.270
3522,0.045,-0.275
3523,0.030,-0.280
3524,0.040,-0.265
3525,0.045,-0.275
3526,0.035,-0.265
3527,0.035,-0.260
3528,0.035,-0.260
3529,0.035,-0.240
3530,0.045,-0.215
3531,0.045,-0.195
3532,0.020,-0.180
3533,0.010,-0.145
3534,0.025,-0.045
3535,0.040,0.195
3536,0.050,0.485
3537,0.065,0.725
3538,0.095,0.880
3539,0.060,0.990
3540,0.000,0.975
3541,-0.020,0.825
3542,-0.075,0.515
3543,-0.185,0.135
3544,-0.455,-0.075
3545,-0.785,0.035
3546,-1.115,0.215
3547,-1.355,0.110
3548,-1.455,-0.180
3549,-1.415,-0.450
3550,-1.165,-0.630
3551,-0.705,-0.715
3552,-0.325,-0.660
3553,-0.115,-0.575
3554,-0.055,-0.480
3555,-0.105,-0.420
3556,-0.100,-0.425
3557,-0.105,-0.425
3558,-0.095,-0.425
3559,-0.015,-0.430
3560,0.020,-0.435
3561,0.055,-0.435
3562,0.100,-0.440
3563,0.105,-0.435
3564,0.095,-0.430
3565,0.130,-0.430
3566,0.120,-0.425
3567,0.115,-0.425
3568,0.110,-0.430
3569,0.125,-0.415
3570,0.120,-0.425
3571,0.125,-0.425
3572,0.125,-0.435
3573,0.160,-0.415
3574,0.140,-0.405
3575,0.130,-0.420
3576,0.135,-0.425
3577,0.145,-0.410
3578,0.150,-0.425
3579,0.150,-0.425
3580,0.145,-0.425
3581,0.145,-0.435
3582,0.145,-0.435
3583,0.140,-0.425
3584,0.145,-0.430
3585,0.140,-0.425
3586,0.130,-0.450
3587,0.140,-0.430
3588,0.150,-0.470
3589,0.150,-0.420
3590,0.150,-0.440
3591,0.135,-0.445
3592,0.130,-0.445
3593,0.130,-0.440
3594,0.140,-0.470
3595,0.120,-0.445
3596,0.125,-0.435
3597,0.130,-0.440
3598,0.120,-0.430
3599,0.125,-0.435
3600,0.115,-0.425
3601,0.135,-0.400
3602,0.125,-0.390
3603,0.120,-0.380
3604,0.120,-0.365
3605,0.120,-0.345
3606,0.095,-0.340
3607,0.085,-0.315
3608,0.080,-0.300
3609,0.105,-0.280
3610,0.065,-0.295
3611,0.040,-0.275
3612,0.040,-0.265
3613,0.055,-0.255
3614,0.030,-0.260
3615,0.035,-0.265
3616,0.030,-0.260
3617,0.045,-0.250
3618,0.025,-0.240
3619,0.030,-0.240
3620,0.025,-0.275
3621,0.045,-0.250
3622,0.020,-0.250
3623,0.025,-0.265
3624,0.015,-0.260
3625,0.035,-0.270
3626,0.035,-0.275
3627,0.035,-0.275
3628,0.050,-0.285
3629,0.040,-0.280
3630,0.040,-0.285
3631,0.040,-0.280
3632,0.035,-0.285
3633,0.065,-0.275
3634,0.060,-0.280
3635,0.055,-0.280
3636,0.050,-0.295
3637,0.055,-0.320
3638,0.060,-0.305
3639,0.070,-0.305
3640,0.060,-0.300
3641,0.055,-0.315
3642,0.055,-0.300
3643,0.070,-0.320
3644,0.065,-0.330
3645,0.085,-0.320
3646,0.055,-0.315
3647,0.080,-0.310
3648,0.085,-0.340
3649,0.075,-0.310
3650,0.090,-0.310
3651,0.085,-0.310
3652,0.085,-0.320
3653,0.075,-0.310
3654,0.085,-0.320
3655,0.065,-0.300
3656,0.050,-0.315
3657,0.050,-0.300
3658,0.070,-0.285
3659,0.065,-0.300
3660,0.065,-0.315
3661,0.090,-0.290
3662,0.080,-0.330
3663,0.070,-0.310
3664,0.080,-0.315
3665,0.075,-0.305
3666,0.085,-0.315
3667,0.075,-0.310
3668,0.065,-0.305
3669,0.055,-0.310
3670,0.070,-0.315
3671,0.055,-0.315
3672,0.055,-0.320
3673,0.070,-0.320
3674,0.045,-0.300
3675,0.040,-0.310
3676,0.070,-0.285
3677,0.065,-0.285
3678,0.070,-0.280
3679,0.060,-0.290
3680,0.050,-0.290
3681,0.070,-0.290
3682,0.040,-0.290
3683,0.050,-0.295
3684,0.055,-0.285
3685,0.060,-0.290
3686,0.045,-0.290
3687,0.050,-0.295
3688,0.035,-0.285
3689,0.050,-0.300
3690,0.065,-0.300
3691,0.060,-0.290
3692,0.060,-0.280
3693,0.065,-0.260
3694,0.065,-0.215
3695,0.065,-0.180
3696,0.065,-0.155
3697,0.065,-0.125
3698,0.060,-0.100
3699,0.070,-0.135
3700,0.115,-0.115
3701,0.125,-0.120
3702,0.140,-0.120
3703,0.155,-0.130
3704,0.180,-0.110
3705,0.180,-0.110
3706,0.155,-0.100
3707,0.145,-0.105
3708,0.110,-0.090
3709,0.110,-0.130
3710,0.065,-0.170
3711,0.055,-0.230
3712,0.035,-0.235
3713,0.005,-0.240
3714,0.015,-0.230
3715,-0.015,-0.235
3716,-0.010,-0.220
3717,-0.030,-0.215
3718,-0.015,-0.210
3719,-0.005,-0.210
3720,-0.020,-0.230
3721,0.005,-0.250
3722,0.000,-0.265
3723,0.000,-0.260
3724,0.005,-0.305
3725,0.015,-0.315
3726,0.025,-0.320
3727,0.035,-0.320
3728,0.035,-0.310
3729,0.060,-0.315
3730,0.035,-0.290
3731,0.050,-0.295
3732,0.060,-0.295
3733,0.060,-0.290
3734,0.050,-0.315
3735,0.045,-0.300
3736,0.020,-0.305
3737,0.040,-0.295
3738,0.040,-0.290
3739,0.040,-0.270
3740,0.020,-0.265
3741,0.035,-0.235
3742,0.020,-0.180
3743,0.055,-0.160
3744,0.045,-0.135
3745,0.030,-0.040
3746,0.035,0.190
3747,0.055,0.460
3748,0.065,0.660
3749,0.095,0.790
3750,0.080,0.850
3751,0.010,0.845
3752,-0.010,0.710
3753,-0.075,0.445
3754,-0.205,0.115
3755,-0.470,-0.090
3756,-0.805,0.000
3757,-1.135,0.205
3758,-1.350,0.195
3759,-1.465,-0.070
3760,-1.455,-0.390
3761,-1.235,-0.610
3762,-0.790,-0.720
3763,-0.335,-0.710
3764,-0.090,-0.640
3765,-0.040,-0.530
3766,-0.060,-0.445
3767,-0.080,-0.430
3768,-0.105,-0.430
3769,-0.070,-0.420
3770,-0.025,-0.440
3771,0.010,-0.415
3772,0.065,-0.405
3773,0.095,-0.415
3774,0.105,-0.440
3775,0.115,-0.435
3776,0.110,-0.425
3777,0.120,-0.445
3778,0.135,-0.430
3779,0.135,-0.420
3780,0.145,-0.430
3781,0.125,-0.430
3782,0.135,-0.425
3783,0.145,-0.425
3784,0.140,-0.435
3785,0.160,-0.430
3786,0.160,-0.400
3787,0.155,-0.400
3788,0.150,-0.420
3789,0.155,-0.425
3790,0.160,-0.430
3791,0.150,-0.440
3792,0.140,-0.435
3793,0.115,-0.435
3794,0.140,-0.460
3795,0.130,-0.450
3796,0.135,-0.465
3797,0.130,-0.465
3798,0.130,-0.465
3799,0.135,-0.465
3800,0.125,-0.465
3801,0.110,-0.465
3802,0.130,-0.465
3803,0.115,-0.475
3804,0.105,-0.460
3805,0.110,-0.475
3806,0.085,-0.480
3807,0.095,-0.455
3808,0.075,-0.455
3809,0.105,-0.440
3810,0.080,-0.450
3811,0.095,-0.450
3812,0.095,-0.445
3813,0.085,-0.430
3814,0.095,-0.425
3815,0.110,-0.430
3816,0.090,-0.415
3817,0.070,-0.380
3818,0.070,-0.365
3819,0.070,-0.355
3820,0.075,-0.360
3821,0.065,-0.325
3822,0.045,-0.305
3823,0.065,-0.305
3824,0.025,-0.295
3825,0.025,-0.290
3826,0.015,-0.290
3827,-0.015,-0.270
3828,-0.020,-0.270
3829,-0.010,-0.270
3830,-0.005,-0.270
3831,-0.005,-0.280
3832,-0.030,-0.275
3833,-0.035,-0.260
3834,-0.010,-0.265
3835,-0.020,-0.270
3836,-0.025,-0.280
3837,-0.020,-0.285
3838,-0.015,-0.260
3839,-0.015,-0.275
3840,-0.005,-0.285
3841,-0.015,-0.295
3842,0.000,-0.305
3843,-0.005,-0.310
3844,-0.015,-0.305
3845,-0.010,-0.325
3846,0.000,-0.300
3847,0.005,-0.310
3848,-0.005,-0.310
3849,0.030,-0.330
3850,0.030,-0.325
3851,0.015,-0.295
3852,0.025,-0.310
3853,0.025,-0.320
3854,0.005,-0.320
3855,0.015,-0.335
3856,0.005,-0.320
3857,0.000,-0.300
3858,0.015,-0.310
3859,0.030,-0.305
3860,0.030,-0.330
3861,0.020,-0.310
3862,0.010,-0.325
3863,0.015,-0.300
3864,0.020,-0.325
3865,0.040,-0.320
3866,0.030,-0.330
3867,0.010,-0.315
3868,0.025,-0.305
3869,0.025,-0.320
3870,0.030,-0.305
3871,0.035,-0.325
3872,0.020,-0.305
3873,0.035,-0.290
3874,0.025,-0.310
3875,0.010,-0.310
3876,0.035,-0.310
3877,0.025,-0.330
3878,0.025,-0.305
3879,0.020,-0.320
3880,0.000,-0.310
3881,0.020,-0.315
3882,0.000,-0.310
3883,0.005,-0.290
3884,0.000,-0.290
3885,-0.035,-0.305
3886,0.000,-0.315
3887,0.000,-0.300
3888,0.005,-0.300
3889,0.020,-0.315
3890,0.020,-0.300
3891,-0.005,-0.305
3892,0.000,-0.315
3893,-0.025,-0.320
3894,-0.015,-0.295
3895,-0.015,-0.295
3896,-0.005,-0.305
3897,0.005,-0.295
3898,-0.025,-0.305
3899,-0.015,-0.290
3900,-0.005,-0.295
3901,-0.010,-0.300
3902,-0.010,-0.290
3903,-0.020,-0.300
3904,-0.005,-0.285
3905,-0.010,-0.290
3906,-0.025,-0.280
3907,-0.025,-0.290
3908,-0.015,-0.265
3909,-0.025,-0.235
3910,-0.010,-0.215
3911,-0.015,-0.180
3912,-0.005,-0.170
3913,0.010,-0.140
3914,0.020,-0.115
3915,0.030,-0.130
3916,0.060,-0.140
3917,0.080,-0.145
3918,0.060,-0.130
3919,0.110,-0.145
3920,0.100,-0.135
3921,0.090,-0.100
3922,0.075,-0.105
3923,0.060,-0.080
3924,0.035,-0.090
3925,0.010,-0.115
3926,0.020,-0.180
3927,0.015,-0.200
3928,-0.015,-0.220
3929,-0.015,-0.225
3930,-0.015,-0.195
3931,-0.035,-0.190
3932,-0.050,-0.185
3933,-0.060,-0.185
3934,-0.055,-0.190
3935,-0.055,-0.195
3936,-0.080,-0.205
3937,-0.060,-0.205
3938,-0.025,-0.225
3939,-0.035,-0.245
3940,-0.040,-0.275
3941,-0.045,-0.275
3942,-0.015,-0.265
3943,0.005,-0.275
3944,0.020,-0.295
3945,0.035,-0.265
3946,0.015,-0.265
3947,0.000,-0.260
3948,0.030,-0.260
3949,0.025,-0.265
3950,0.010,-0.240
3951,0.005,-0.265
3952,0.000,-0.240
3953,0.010,-0.250
3954,0.005,-0.250
3955,0.000,-0.225
3956,-0.010,-0.215
3957,-0.015,-0.210
3958,0.000,-0.185
3959,0.000,-0.155
3960,0.000,-0.125
3961,-0.005,-0.105
3962,-0.020,0.020
3963,-0.010,0.235
3964,0.015,0.500
3965,0.050,0.725
3966,0.050,0.885
3967,0.000,0.995
3968,-0.055,1.010
3969,-0.080,0.930
3970,-0.120,0.725
3971,-0.235,0.400
3972,-0.465,0.150
3973,-0.745,0.160
3974,-1.040,0.245
3975,-1.210,0.135
3976,-1.280,-0.125
3977,-1.250,-0.405
3978,-1.010,-0.585
3979,-0.640,-0.690
3980,-0.305,-0.655
3981,-0.145,-0.560
3982,-0.120,-0.460
3983,-0.155,-0.395
3984,-0.145,-0.375
3985,-0.160,-0.390
3986,-0.140,-0.380
3987,-0.095,-0.375
3988,-0.030,-0.360
3989,0.005,-0.385
3990,0.040,-0.375
3991,0.040,-0.390
3992,0.050,-0.380
3993,0.050,-0.400
3994,0.065,-0.360
3995,0.085,-0.375
3996,0.070,-0.375
3997,0.060,-0.375
3998,0.065,-0.380
3999,0.090,-0.380
4000,0.075,-0.375
4001,0.075,-0.365
4002,0.085,-0.375
4003,0.075,-0.360
4004,0.075,-0.360
4005,0.065,-0.385
4006,0.065,-0.375
4007,0.090,-0.370
4008,0.080,-0.375
4009,0.085,-0.395
4010,0.065,-0.400
4011,0.070,-0.410
4012,0.070,-0.400
4013,0.090,-0.395
4014,0.070,-0.405
4015,0.065,-0.415
4016,0.060,-0.415
4017,0.070,-0.420
4018,0.080,-0.420
4019,0.065,-0.405
4020,0.060,-0.415
4021,0.065,-0.420
4022,0.065,-0.410
4023,0.070,-0.415
4024,0.075,-0.415
4025,0.065,-0.420
4026,0.065,-0.410
4027,0.055,-0.415
4028,0.055,-0.430
4029,0.035,-0.400
4030,0.040,-0.405
4031,0.040,-0.410
4032,0.055,-0.405
4033,0.025,-0.385
4034,0.020,-0.350
4035,0.025,-0.350
4036,0.015,-0.295
4037,0.015,-0.305
4038,0.015,-0.285
4039,0.010,-0.265
4040,0.015,-0.240
4041,0.005,-0.240
4042,-0.020,-0.235
4043,-0.010,-0.230
4044,-0.010,-0.210
4045,-0.035,-0.210
4046,-0.035,-0.195
4047,-0.025,-0.210
4048,-0.035,-0.180
4049,-0.025,-0.195
4050,-0.045,-0.190
4051,-0.020,-0.210
4052,-0.025,-0.205
4053,-0.005,-0.205
4054,-0.040,-0.200
4055,-0.010,-0.190
4056,-0.025,-0.210
4057,-0.030,-0.210
4058,0.000,-0.215
4059,-0.015,-0.220
4060,-0.030,-0.235
4061,0.000,-0.225
4062,-0.020,-0.240
4063,-0.015,-0.220
4064,-0.015,-0.245
4065,-0.015,-0.245
4066,0.010,-0.240
4067,-0.005,-0.250
4068,-0.005,-0.260
4069,0.000,-0.240
4070,0.000,-0.240
4071,0.000,-0.245
4072,0.000,-0.240
4073,-0.010,-0.255
4074,0.005,-0.250
4075,0.000,-0.250
4076,-0.005,-0.275
4077,0.005,-0.265
4078,0.015,-0.250
4079,0.015,-0.260
4080,-0.015,-0.270
4081,0.000,-0.275
4082,-0.010,-0.260
4083,-0.015,-0.260
4084,-0.010,-0.270
4085,-0.015,-0.255
4086,-0.015,-0.280
4087,0.000,-0.265
4088,-0.030,-0.250
4089,0.000,-0.265
4090,-0.005,-0.270
4091,-0.025,-0.280
4092,0.000,-0.260
4093,-0.025,-0.270
4094,-0.015,-0.275
4095,-0.035,-0.275
4096,-0.040,-0.280
4097,-0.020,-0.280
4098,-0.035,-0.280
4099,-0.015,-0.285
4100,0.000,-0.280
4101,-0.015,-0.265
4102,-0.020,-0.265
4103,-0.030,-0.270
4104,-0.005,-0.265
4105,-0.010,-0.265
4106,-0.020,-0.275
4107,-0.030,-0.300
4108,-0.015,-0.275
4109,-0.040,-0.270
4110,-0.025,-0.265
4111,-0.025,-0.265
4112,-0.025,-0.260
4113,-0.020,-0.260
4114,-0.020,-0.265
4115,-0.050,-0.275
4116,-0.015,-0.260
4117,-0.035,-0.260
4118,-0.020,-0.260
4119,-0.025,-0.265
4120,-0.010,-0.260
4121,-0.035,-0.250
4122,-0.010,-0.250
4123,-0.030,-0.230
4124,-0.020,-0.185
4125,-0.020,-0.170
4126,-0.015,-0.120
4127,-0.020,-0.110
4128,-0.010,-0.095
4129,0.025,-0.095
4130,0.040,-0.080
4131,0.055,-0.095
4132,0.065,-0.105
4133,0.080,-0.100
4134,0.085,-0.095
4135,0.115,-0.090
4136,0.095,-0.100
4137,0.055,-0.090
4138,0.035,-0.105
4139,0.035,-0.160
4140,0.025,-0.200
4141,-0.005,-0.220
4142,-0.030,-0.210
4143,-0.045,-0.205
4144,-0.040,-0.200
4145,-0.075,-0.190
4146,-0.065,-0.195
4147,-0.070,-0.225
4148,-0.050,-0.215
4149,-0.065,-0.230
4150,-0.040,-0.230
4151,-0.025,-0.240
4152,-0.020,-0.285
4153,-0.045,-0.290
4154,-0.030,-0.300
4155,-0.020,-0.280
4156,0.005,-0.290
4157,0.025,-0.295
4158,0.035,-0.285
4159,0.005,-0.285
4160,0.015,-0.295
4161,0.030,-0.300
4162,0.010,-0.275
4163,0.015,-0.295
4164,0.005,-0.270
4165,0.015,-0.280
4166,0.010,-0.255
4167,0.025,-0.255
4168,0.000,-0.250
4169,0.030,-0.240
4170,0.030,-0.205
4171,0.025,-0.160
4172,0.035,-0.155
4173,0.030,-0.115
4174,0.035,0.035
4175,0.045,0.300
4176,0.055,0.575
4177,0.075,0.805
4178,0.100,0.950
4179,0.040,1.080
4180,0.000,1.055
4181,-0.030,0.895
4182,-0.090,0.615
4183,-0.230,0.230
4184,-0.450,0.025
4185,-0.760,0.095
4186,-1.025,0.185
4187,-1.205,0.015
4188,-1.315,-0.255
4189,-1.230,-0.510
4190,-0.960,-0.660
4191,-0.545,-0.705
4192,-0.215,-0.660
4193,-0.060,-0.565
4194,-0.050,-0.475
4195,-0.060,-0.430
4196,-0.070,-0.425
4197,-0.070,-0.435
4198,-0.050,-0.430
4199,0.020,-0.425
4200,0.055,-0.440
4201,0.105,-0.440
4202,0.125,-0.440
4203,0.140,-0.435
4204,0.145,-0.425
4205,0.150,-0.420
4206,0.135,-0.415
4207,0.140,-0.425
4208,0.140,-0.405
4209,0.165,-0.430
4210,0.170,-0.420
4211,0.170,-0.410
4212,0.175,-0.410
4213,0.140,-0.420
4214,0.170,-0.420
4215,0.130,-0.415
4216,0.160,-0.425
4217,0.175,-0.420
4218,0.155,-0.395
4219,0.150,-0.420
4220,0.180,-0.425
4221,0.145,-0.435
4222,0.155,-0.430
4223,0.150,-0.430
4224,0.140,-0.410
4225,0.155,-0.440
4226,0.140,-0.445
4227,0.130,-0.440
4228,0.140,-0.470
4229,0.135,-0.445
4230,0.125,-0.465
4231,0.125,-0.485
4232,0.130,-0.450
4233,0.135,-0.455
4234,0.120,-0.465
4235,0.110,-0.470
4236,0.125,-0.465
4237,0.115,-0.455
4238,0.125,-0.450
4239,0.120,-0.445
4240,0.115,-0.440
4241,0.110,-0.425
4242,0.105,-0.400
4243,0.095,-0.415
4244,0.085,-0.395
4245,0.095,-0.380
4246,0.105,-0.350
4247,0.100,-0.330
4248,0.095,-0.310
4249,0.080,-0.305
4250,0.060,-0.275
4251,0.060,-0.280
4252,0.030,-0.265
4253,0.055,-0.260
4254,0.040,-0.260
4255,0.040,-0.225
4256,0.035,-0.210
4257,0.035,-0.230
4258,0.030,-0.215
4259,0.025,-0.235
4260,0.035,-0.220
4261,0.020,-0.235
4262,0.035,-0.250
4263,0.015,-0.240
4264,0.040,-0.240
4265,0.025,-0.235
4266,0.040,-0.250
4267,0.030,-0.260
4268,0.050,-0.250
4269,0.055,-0.265
4270,0.045,-0.275
4271,0.055,-0.255
4272,0.055,-0.275
4273,0.055,-0.270
4274,0.070,-0.265
4275,0.065,-0.260
4276,0.065,-0.280
4277,0.070,-0.285
4278,0.075,-0.275
4279,0.070,-0.275
4280,0.065,-0.265
4281,0.075,-0.290
4282,0.080,-0.290
4283,0.080,-0.280
4284,0.075,-0.295
4285,0.095,-0.295
4286,0.070,-0.295
4287,0.080,-0.290
4288,0.080,-0.305
4289,0.075,-0.310
4290,0.075,-0.315
4291,0.085,-0.315
4292,0.080,-0.305
4293,0.075,-0.310
4294,0.075,-0.300
4295,0.075,-0.295
4296,0.065,-0.305
4297,0.050,-0.325
4298,0.060,-0.320
4299,0.080,-0.310
4300,0.070,-0.310
4301,0.050,-0.325
4302,0.055,-0.315
4303,0.055,-0.315
4304,0.045,-0.320
4305,0.025,-0.310
4306,0.055,-0.315
4307,0.040,-0.310
4308,0.035,-0.335
4309,0.055,-0.315
4310,0.005,-0.320
4311,0.035,-0.330
4312,0.040,-0.305
4313,0.025,-0.315
4314,0.025,-0.325
4315,0.025,-0.325
4316,0.030,-0.335
4317,0.030,-0.330
4318,0.045,-0.325
4319,0.040,-0.325
4320,0.035,-0.320
4321,0.050,-0.315
4322,0.040,-0.320
4323,0.035,-0.310
4324,0.015,-0.330
4325,0.025,-0.340
4326,0.035,-0.340
4327,0.030,-0.335
4328,0.025,-0.340
4329,0.000,-0.330
4330,0.020,-0.335
4331,0.025,-0.325
4332,0.010,-0.330
4333,0.020,-0.305
4334,0.020,-0.290
4335,0.030,-0.250
4336,0.030,-0.215
4337,0.025,-0.190
4338,0.030,-0.175
4339,0.055,-0.150
4340,0.065,-0.140
4341,0.075,-0.150
4342,0.095,-0.135
4343,0.125,-0.140
4344,0.145,-0.170
4345,0.145,-0.170
4346,0.125,-0.130
4347,0.130,-0.140
4348,0.110,-0.145
4349,0.095,-0.140
4350,0.075,-0.200
4351,0.040,-0.240
4352,0.015,-0.285
4353,0.000,-0.300
4354,-0.010,-0.275
4355,-0.030,-0.290
4356,-0.030,-0.255
4357,-0.030,-0.260
4358,-0.050,-0.245
4359,-0.040,-0.250
4360,-0.025,-0.275
4361,-0.045,-0.275
4362,-0.015,-0.300
4363,0.010,-0.320
4364,0.000,-0.365
4365,0.000,-0.365
4366,0.010,-0.350
4367,0.005,-0.370
4368,0.030,-0.360
4369,0.070,-0.385
4370,0.050,-0.350
4371,0.050,-0.355
4372,0.055,-0.365
4373,0.045,-0.340
4374,0.060,-0.345
4375,0.045,-0.345
4376,0.050,-0.340
4377,0.055,-0.350
4378,0.035,-0.345
4379,0.035,-0.340
4380,0.045,-0.335
4381,0.040,-0.315
4382,0.070,-0.290
4383,0.040,-0.245
4384,0.040,-0.215
4385,0.040,-0.180
4386,0.040,0.000
4387,0.050,0.270
4388,0.070,0.555
4389,0.095,0.755
4390,0.100,0.890
4391,0.070,0.940
4392,0.010,0.890
4393,-0.035,0.705
4394,-0.095,0.380
4395,-0.290,-0.030
4396,-0.570,-0.130
4397,-0.905,0.035
4398,-1.205,0.175
4399,-1.430,0.020
4400,-1.475,-0.270
4401,-1.395,-0.545
4402,-1.075,-0.710
4403,-0.620,-0.780
4404,-0.220,-0.750
4405,-0.070,-0.670
4406,-0.060,-0.545
4407,-0.090,-0.485
4408,-0.075,-0.500
4409,-0.095,-0.500
4410,-0.055,-0.480
4411,-0.020,-0.505
4412,0.045,-0.485
4413,0.085,-0.495
4414,0.110,-0.480
4415,0.145,-0.480
4416,0.155,-0.475
4417,0.145,-0.495
4418,0.140,-0.470
4419,0.160,-0.470
4420,0.160,-0.460
4421,0.155,-0.450
4422,0.170,-0.465
4423,0.180,-0.465
4424,0.185,-0.470
4425,0.165,-0.480
4426,0.175,-0.485
4427,0.190,-0.485
4428,0.170,-0.455
4429,0.180,-0.465
4430,0.180,-0.480
4431,0.185,-0.460
4432,0.190,-0.465
4433,0.195,-0.475
4434,0.185,-0.465
4435,0.170,-0.465
4436,0.190,-0.470
4437,0.180,-0.480
4438,0.185,-0.485
4439,0.195,-0.495
4440,0.185,-0.470
4441,0.185,-0.495
4442,0.180,-0.495
4443,0.190,-0.485
4444,0.210,-0.480
4445,0.190,-0.490
4446,0.180,-0.490
4447,0.170,-0.475
4448,0.180,-0.490
4449,0.175,-0.480
4450,0.185,-0.465
4451,0.185,-0.470
4452,0.160,-0.465
4453,0.170,-0.475
4454,0.160,-0.450
4455,0.165,-0.445
4456,0.155,-0.405
4457,0.155,-0.415
4458,0.175,-0.390
4459,0.170,-0.375
4460,0.130,-0.340
4461,0.145,-0.345
4462,0.115,-0.325
4463,0.100,-0.315
4464,0.120,-0.305
4465,0.095,-0.300
4466,0.070,-0.285
4467,0.080,-0.275
4468,0.090,-0.270
4469,0.070,-0.270
4470,0.070,-0.260
4471,0.050,-0.275
4472,0.050,-0.285
4473,0.065,-0.280
4474,0.070,-0.295
4475,0.065,-0.305
4476,0.050,-0.295
4477,0.055,-0.290
4478,0.035,-0.295
4479,0.045,-0.300
4480,0.055,-0.305
4481,0.080,-0.305
4482,0.070,-0.315
4483,0.060,-0.310
4484,0.075,-0.320
4485,0.080,-0.325
4486,0.070,-0.315
4487,0.055,-0.320
4488,0.080,-0.325
4489,0.065,-0.335
4490,0.055,-0.320
4491,0.080,-0.310
4492,0.090,-0.330
4493,0.060,-0.330
4494,0.100,-0.350
4495,0.080,-0.360
4496,0.095,-0.330
4497,0.100,-0.325
4498,0.095,-0.340
4499,0.100,-0.340
4500,0.095,-0.335
4501,0.085,-0.345
4502,0.095,-0.345
4503,0.105,-0.365
4504,0.090,-0.375
4505,0.070,-0.345
4506,0.085,-0.330
4507,0.080,-0.340
4508,0.090,-0.355
4509,0.075,-0.360
4510,0.075,-0.365
4511,0.075,-0.365
4512,0.085,-0.365
4513,0.070,-0.340
4514,0.055,-0.325
4515,0.060,-0.330
4516,0.050,-0.355
4517,0.070,-0.345
4518,0.055,-0.355
4519,0.050,-0.345
4520,0.050,-0.350
4521,0.050,-0.340
4522,0.060,-0.345
4523,0.055,-0.360
4524,0.035,-0.370
4525,0.050,-0.365
4526,0.040,-0.345
4527,0.030,-0.330
4528,0.025,-0.340
4529,0.030,-0.365
4530,0.035,-0.355
4531,0.020,-0.355
4532,0.045,-0.355
4533,0.030,-0.355
4534,0.025,-0.330
4535,0.030,-0.345
4536,0.010,-0.365
4537,0.030,-0.350
4538,0.030,-0.350
4539,0.030,-0.370
4540,0.020,-0.360
4541,0.015,-0.350
4542,0.025,-0.355
4543,0.020,-0.360
4544,0.025,-0.355
4545,0.010,-0.355
4546,0.025,-0.365
4547,0.045,-0.350
4548,0.025,-0.345
4549,0.005,-0.320
4550,0.040,-0.300
4551,0.010,-0.285
4552,0.000,-0.255
4553,0.025,-0.225
4554,0.025,-0.195
4555,0.020,-0.195
4556,0.025,-0.200
4557,0.040,-0.210
4558,0.065,-0.205
4559,0.080,-0.205
4560,0.095,-0.200
4561,0.080,-0.195
4562,0.090,-0.175
4563,0.080,-0.185
4564,0.060,-0.190
4565,0.050,-0.205
4566,0.030,-0.255
4567,0.015,-0.300
4568,-0.035,-0.315
4569,-0.055,-0.320
4570,-0.065,-0.305
4571,-0.060,-0.300
4572,-0.060,-0.280
4573,-0.085,-0.290
4574,-0.090,-0.300
4575,-0.095,-0.290
4576,-0.085,-0.320
4577,-0.055,-0.335
4578,-0.070,-0.345
4579,-0.045,-0.385
4580,-0.050,-0.390
4581,-0.060,-0.370
4582,-0.050,-0.400
4583,-0.020,-0.390
4584,0.005,-0.390
4585,0.005,-0.400
4586,-0.005,-0.375
4587,-0.010,-0.375
4588,-0.010,-0.375
4589,-0.010,-0.370
4590,-0.015,-0.370
4591,-0.005,-0.375
4592,0.000,-0.380
4593,-0.025,-0.365
4594,-0.030,-0.360
4595,-0.035,-0.365
4596,-0.025,-0.330
4597,-0.030,-0.275
4598,-0.030,-0.260
4599,-0.030,-0.245
4600,-0.025,-0.175
4601,-0.020,-0.005
4602,-0.005,0.245
4603,0.035,0.485
4604,0.035,0.665
4605,0.015,0.795
4606,-0.035,0.815
4607,-0.080,0.785
4608,-0.130,0.595
4609,-0.205,0.275
4610,-0.420,-0.040
4611,-0.730,-0.040
4612,-1.070,0.105
4613,-1.340,0.105
4614,-1.470,-0.125
4615,-1.480,-0.440
4616,-1.320,-0.670
4617,-0.915,-0.780
4618,-0.470,-0.790
4619,-0.185,-0.705
4620,-0.125,-0.610
4621,-0.125,-0.515
4622,-0.125,-0.500
4623,-0.185,-0.510
4624,-0.145,-0.515
4625,-0.115,-0.520
4626,-0.050,-0.535
4627,0.005,-0.530
4628,0.040,-0.515
4629,0.050,-0.500
4630,0.070,-0.505
4631,0.060,-0.520
4632,0.085,-0.530
4633,0.065,-0.540
4634,0.090,-0.500
4635,0.070,-0.515
4636,0.080,-0.500
4637,0.085,-0.505
4638,0.090,-0.510
4639,0.090,-0.495
4640,0.085,-0.515
4641,0.075,-0.500
4642,0.085,-0.495
4643,0.095,-0.520
4644,0.090,-0.540
4645,0.090,-0.525
4646,0.075,-0.545
4647,0.070,-0.525
4648,0.080,-0.515
4649,0.055,-0.520
4650,0.060,-0.530
4651,0.070,-0.510
4652,0.075,-0.530
4653,0.055,-0.540
4654,0.070,-0.545
4655,0.065,-0.545
4656,0.070,-0.545
4657,0.065,-0.550
4658,0.080,-0.545
4659,0.080,-0.530
4660,0.075,-0.555
4661,0.070,-0.540
4662,0.065,-0.560
4663,0.055,-0.550
4664,0.040,-0.540
4665,0.055,-0.540
4666,0.050,-0.540
4667,0.050,-0.525
4668,0.040,-0.525
4669,0.030,-0.510
4670,0.025,-0.465
4671,0.025,-0.470
4672,0.040,-0.445
4673,0.030,-0.430
4674,0.025,-0.400
4675,0.025,-0.385
4676,-0.015,-0.375
4677,-0.010,-0.375
4678,-0.010,-0.365
4679,-0.005,-0.340
4680,-0.040,-0.330
4681,-0.010,-0.315
4682,0.005,-0.335
4683,-0.025,-0.325
4684,-0.025,-0.290
4685,-0.030,-0.310
4686,-0.040,-0.305
4687,-0.015,-0.320
4688,-0.020,-0.315
4689,-0.020,-0.320
4690,-0.025,-0.325
4691,-0.025,-0.300
4692,-0.020,-0.310
4693,-0.025,-0.340
4694,-0.025,-0.340
4695,-0.010,-0.325
4696,-0.005,-0.340
4697,-0.030,-0.345
4698,0.000,-0.335
4699,-0.015,-0.330
4700,-0.015,-0.340
4701,-0.010,-0.320
4702,-0.015,-0.330
4703,0.010,-0.340
4704,0.005,-0.340
4705,0.020,-0.345
4706,0.005,-0.355
4707,0.005,-0.360
4708,0.000,-0.355
4709,0.015,-0.335
4710,0.000,-0.345
4711,0.025,-0.355
4712,0.025,-0.360
4713,0.015,-0.340
4714,0.015,-0.350
4715,0.015,-0.350
4716,0.015,-0.340
4717,0.000,-0.340
4718,0.025,-0.350
4719,0.005,-0.350
4720,0.020,-0.350
4721,0.000,-0.355
4722,0.010,-0.350
4723,0.005,-0.360
4724,0.000,-0.355
4725,0.000,-0.340
4726,0.000,-0.320
4727,0.010,-0.345
4728,0.000,-0.350
4729,-0.005,-0.340
4730,-0.010,-0.330
4731,-0.020,-0.345
4732,-0.025,-0.360
4733,-0.045,-0.340
4734,-0.030,-0.360
4735,-0.010,-0.335
4736,-0.020,-0.355
4737,-0.015,-0.370
4738,-0.025,-0.360
4739,-0.025,-0.370
4740,-0.035,-0.355
4741,-0.035,-0.360
4742,-0.020,-0.355
4743,-0.025,-0.350
4744,-0.025,-0.340
4745,-0.015,-0.340
4746,-0.055,-0.355
4747,-0.045,-0.345
4748,-0.025,-0.340
4749,-0.050,-0.345
4750,-0.030,-0.360
4751,-0.030,-0.345
4752,-0.030,-0.330
4753,-0.035,-0.335
4754,-0.030,-0.350
4755,-0.060,-0.355
4756,-0.050,-0.360
4757,-0.040,-0.340
4758,-0.050,-0.340
4759,-0.040,-0.325
4760,-0.040,-0.305
4761,-0.050,-0.290
4762,-0.035,-0.235
4763,-0.030,-0.200
4764,-0.025,-0.175
4765,-0.025,-0.180
4766,0.000,-0.165
4767,0.020,-0.155
4768,0.035,-0.155
4769,0.040,-0.175
4770,0.030,-0.180
4771,0.065,-0.175
4772,0.060,-0.165
4773,0.040,-0.170
4774,0.060,-0.145
4775,0.030,-0.175
4776,-0.005,-0.210
4777,0.010,-0.265
4778,-0.020,-0.300
4779,-0.050,-0.260
4780,-0.070,-0.265
4781,-0.080,-0.280
4782,-0.075,-0.280
4783,-0.130,-0.315
4784,-0.100,-0.300
4785,-0.120,-0.295
4786,-0.100,-0.305
4787,-0.105,-0.295
4788,-0.085,-0.310
4789,-0.090,-0.320
4790,-0.070,-0.365
4791,-0.080,-0.365
4792,-0.055,-0.365
4793,-0.045,-0.365
4794,-0.030,-0.370
4795,-0.015,-0.370
4796,-0.040,-0.375
4797,-0.055,-0.370
4798,-0.075,-0.360
4799,-0.030,-0.380
4800,-0.025,-0.385
4801,-0.065,-0.380
4802,-0.060,-0.370
4803,-0.055,-0.365
4804,-0.055,-0.365
4805,-0.065,-0.360
4806,-0.060,-0.340
4807,-0.070,-0.320
4808,-0.080,-0.275
4809,-0.050,-0.275
4810,-0.060,-0.255
4811,-0.065,-0.155
4812,-0.050,0.050
4813,-0.030,0.305
4814,-0.015,0.555
4815,0.000,0.765
4816,-0.035,0.915
4817,-0.080,0.970
4818,-0.110,0.905
4819,-0.155,0.710
4820,-0.275,0.365
4821,-0.435,0.070
4822,-0.760,0.045
4823,-1.030,0.085
4824,-1.265,-0.010
4825,-1.335,-0.285
4826,-1.335,-0.555
4827,-1.125,-0.735
4828,-0.745,-0.820
4829,-0.405,-0.810
4830,-0.225,-0.720
4831,-0.200,-0.615
4832,-0.210,-0.560
4833,-0.205,-0.550
4834,-0.210,-0.545
4835,-0.185,-0.545
4836,-0.160,-0.550
4837,-0.100,-0.550
4838,-0.025,-0.555
4839,0.005,-0.545
4840,0.000,-0.555
4841,0.015,-0.540
4842,0.025,-0.540
4843,0.025,-0.550
4844,0.035,-0.560
4845,0.020,-0.560
4846,0.025,-0.565
4847,0.050,-0.560
4848,0.045,-0.570
4849,0.050,-0.560
4850,0.050,-0.545
4851,0.055,-0.560
4852,0.045,-0.575
4853,0.060,-0.570
4854,0.040,-0.560
4855,0.040,-0.570
4856,0.040,-0.550
4857,0.050,-0.565
4858,0.055,-0.585
4859,0.045,-0.590
4860,0.020,-0.580
4861,0.045,-0.595
4862,0.045,-0.595
4863,0.050,-0.600
4864,0.045,-0.595
4865,0.050,-0.620
4866,0.050,-0.610
4867,0.050,-0.605
4868,0.020,-0.620
4869,0.035,-0.605
4870,0.035,-0.605
4871,0.030,-0.625
4872,0.015,-0.625
4873,0.025,-0.610
4874,0.020,-0.615
4875,0.030,-0.615
4876,0.015,-0.600
4877,0.010,-0.620
4878,0.020,-0.620
4879,0.005,-0.580
4880,0.020,-0.575
4881,0.010,-0.570
4882,0.020,-0.580
4883,0.000,-0.555
4884,0.000,-0.535
4885,0.000,-0.510
4886,-0.015,-0.510
4887,0.005,-0.475
4888,-0.020,-0.460
4889,-0.010,-0.435
4890,-0.035,-0.425
4891,-0.020,-0.425
4892,-0.040,-0.415
4893,-0.040,-0.385
4894,-0.050,-0.400
4895,-0.040,-0.395
4896,-0.045,-0.400
4897,-0.040,-0.390
4898,-0.025,-0.385
4899,-0.030,-0.395
4900,-0.030,-0.380
4901,-0.015,-0.390
4902,-0.020,-0.370
4903,-0.010,-0.385
4904,-0.015,-0.390
4905,-0.020,-0.395
4906,-0.035,-0.410
4907,-0.010,-0.410
4908,-0.020,-0.405
4909,-0.010,-0.395
4910,-0.010,-0.400
4911,-0.010,-0.410
4912,0.005,-0.410
4913,0.005,-0.415
4914,-0.020,-0.395
4915,0.000,-0.400
4916,0.000,-0.400
4917,0.005,-0.400
4918,0.030,-0.410
4919,0.000,-0.410
4920,0.005,-0.405
4921,0.010,-0.420
4922,0.015,-0.400
4923,0.010,-0.410
4924,0.005,-0.405
4925,0.000,-0.410
4926,0.020,-0.420
4927,0.010,-0.400
4928,0.000,-0.410
4929,0.000,-0.410
4930,0.010,-0.395
4931,0.010,-0.415
4932,0.000,-0.405
4933,0.005,-0.410
4934,0.020,-0.420
4935,0.005,-0.425
4936,0.010,-0.415
4937,0.015,-0.410
4938,0.030,-0.420
4939,0.020,-0.400
4940,0.010,-0.410
4941,0.000,-0.400
4942,0.015,-0.405
4943,0.010,-0.405
4944,0.015,-0.420
4945,0.015,-0.390
4946,-0.020,-0.405
4947,0.000,-0.425
4948,-0.010,-0.400
4949,0.000,-0.400
4950,0.010,-0.400
4951,0.015,-0.380
4952,0.015,-0.400
4953,0.000,-0.380
4954,0.010,-0.395
4955,0.010,-0.400
4956,0.000,-0.375
4957,0.000,-0.390
4958,0.005,-0.400
4959,0.005,-0.400
4960,0.035,-0.400
4961,0.020,-0.415
4962,0.020,-0.410
4963,0.015,-0.390
4964,0.020,-0.400
4965,0.000,-0.400
4966,0.005,-0.400
4967,0.010,-0.405
4968,0.015,-0.420
4969,0.020,-0.390
4970,0.025,-0.400
4971,0.020,-0.420
4972,0.020,-0.400
4973,0.010,-0.370
4974,0.010,-0.350
4975,-0.005,-0.335
4976,0.000,-0.285
4977,0.020,-0.255
4978,0.020,-0.245
4979,0.040,-0.250
4980,0.065,-0.225
4981,0.065,-0.220
4982,0.110,-0.215
4983,0.110,-0.225
4984,0.110,-0.250
4985,0.120,-0.255
4986,0.125,-0.235
4987,0.120,-0.235
4988,0.090,-0.235
4989,0.085,-0.250
4990,0.060,-0.280
4991,0.030,-0.340
4992,0.010,-0.370
4993,-0.035,-0.370
4994,-0.025,-0.355
4995,-0.035,-0.350
4996,-0.050,-0.340
4997,-0.065,-0.335
4998,-0.045,-0.325
4999,-0.040,-0.325
5000,-0.050,-0.360
5001,-0.050,-0.365
5002,-0.035,-0.360
5003,-0.040,-0.370
5004,-0.025,-0.395
5005,-0.020,-0.420
5006,-0.020,-0.440
5007,-0.020,-0.430
5008,0.010,-0.440
5009,0.005,-0.415
5010,0.035,-0.430
5011,0.015,-0.430
5012,0.010,-0.425
5013,0.020,-0.405
5014,0.020,-0.410
5015,0.030,-0.420
5016,0.000,-0.425
5017,0.005,-0.415
5018,0.015,-0.400
5019,0.015,-0.405
5020,0.000,-0.395
5021,-0.010,-0.395
5022,0.005,-0.365
5023,0.005,-0.320
5024,0.005,-0.295
5025,0.025,-0.300
5026,0.015,-0.250
5027,-0.010,-0.105
5028,0.000,0.150
5029,0.045,0.440
5030,0.065,0.645
5031,0.080,0.800
5032,0.040,0.905
5033,-0.015,0.920
5034,-0.055,0.785
5035,-0.085,0.525
5036,-0.225,0.145
5037,-0.495,-0.155
5038,-0.785,-0.130
5039,-1.135,0.055
5040,-1.375,0.080
5041,-1.490,-0.180
5042,-1.490,-0.490
5043,-1.280,-0.705
5044,-0.885,-0.825
5045,-0.450,-0.855
5046,-0.160,-0.795
5047,-0.090,-0.685
5048,-0.085,-0.605
5049,-0.130,-0.565
5050,-0.140,-0.590
5051,-0.135,-0.585
5052,-0.090,-0.575
5053,-0.035,-0.575
5054,0.035,-0.580
5055,0.075,-0.580
5056,0.095,-0.570
5057,0.100,-0.585
5058,0.090,-0.575
5059,0.095,-0.590
5060,0.095,-0.585
5061,0.100,-0.560
5062,0.100,-0.560
5063,0.110,-0.580
5064,0.090,-0.580
5065,0.110,-0.560
5066,0.120,-0.560
5067,0.115,-0.555
5068,0.130,-0.560
5069,0.115,-0.565
5070,0.110,-0.580
5071,0.125,-0.565
5072,0.125,-0.585
5073,0.110,-0.550
5074,0.115,-0.555
5075,0.110,-0.560
5076,0.115,-0.590
5077,0.110,-0.560
5078,0.115,-0.560
5079,0.110,-0.570
5080,0.115,-0.560
5081,0.105,-0.585
5082,0.135,-0.580
5083,0.125,-0.580
5084,0.095,-0.585
5085,0.095,-0.595
5086,0.105,-0.590
5087,0.105,-0.585
5088,0.110,-0.585
5089,0.095,-0.580
5090,0.095,-0.605
5091,0.095,-0.590
5092,0.110,-0.595
5093,0.090,-0.595
5094,0.110,-0.590
5095,0.100,-0.570
5096,0.105,-0.570
5097,0.105,-0.555
5098,0.095,-0.525
5099,0.085,-0.535
5100,0.070,-0.500
5101,0.075,-0.470
5102,0.075,-0.475
5103,0.055,-0.445
5104,0.040,-0.455
5105,0.045,-0.430
5106,0.030,-0.405
5107,0.030,-0.395
5108,0.025,-0.400
5109,0.015,-0.390
5110,0.015,-0.380
5111,0.010,-0.365
5112,-0.010,-0.370
5113,-0.010,-0.380
5114,-0.010,-0.360
5115,-0.020,-0.370
5116,0.020,-0.370
5117,-0.005,-0.360
5118,-0.020,-0.375
5119,-0.020,-0.395
5120,-0.015,-0.360
5121,0.000,-0.390
5122,-0.025,-0.425
5123,0.005,-0.420
5124,-0.005,-0.395
5125,0.000,-0.400
5126,0.000,-0.410
5127,0.000,-0.410
5128,0.000,-0.395
5129,0.015,-0.420
5130,0.015,-0.415
5131,0.015,-0.415
5132,0.020,-0.420
5133,0.005,-0.420
5134,0.015,-0.415
5135,0.015,-0.440
5136,0.025,-0.440
5137,0.015,-0.430
5138,0.030,-0.430
5139,0.015,-0.460
5140,0.020,-0.435
5141,0.030,-0.435
5142,0.040,-0.420
5143,0.020,-0.440
5144,0.035,-0.440
5145,0.030,-0.445
5146,0.035,-0.440
5147,0.065,-0.435
5148,0.020,-0.450
5149,0.025,-0.430
5150,0.025,-0.430
5151,0.035,-0.430
5152,0.015,-0.410
5153,0.030,-0.445
5154,0.010,-0.420
5155,0.060,-0.445
5156,0.020,-0.445
5157,0.015,-0.435
5158,0.005,-0.420
5159,0.020,-0.430
5160,0.020,-0.440
5161,0.025,-0.420
5162,0.030,-0.420
5163,0.020,-0.440
5164,0.015,-0.445
5165,-0.010,-0.435
5166,-0.005,-0.415
5167,0.010,-0.430
5168,0.015,-0.430
5169,0.015,-0.435
5170,0.000,-0.430
5171,0.025,-0.435
5172,0.010,-0.445
5173,0.015,-0.430
5174,0.005,-0.445
5175,0.005,-0.420
5176,-0.005,-0.420
5177,0.000,-0.440
5178,0.000,-0.420
5179,0.005,-0.410
5180,0.000,-0.435
5181,0.000,-0.425
5182,0.000,-0.410
5183,0.005,-0.410
5184,0.005,-0.425
5185,0.015,-0.430
5186,0.005,-0.410
5187,-0.010,-0.410
5188,0.020,-0.435
5189,0.025,-0.435
5190,0.015,-0.420
5191,0.015,-0.400
5192,-0.010,-0.395
5193,0.015,-0.360
5194,0.025,-0.340
5195,0.020,-0.295
5196,0.005,-0.250
5197,0.040,-0.250
5198,0.055,-0.230
5199,0.040,-0.225
5200,0.090,-0.230
5201,0.095,-0.245
5202,0.135,-0.235
5203,0.155,-0.240
5204,0.145,-0.235
5205,0.115,-0.215
5206,0.115,-0.215
5207,0.100,-0.235
5208,0.050,-0.265
5209,0.060,-0.300
5210,0.020,-0.340
5211,0.015,-0.330
5212,0.000,-0.350
5213,-0.020,-0.340
5214,-0.025,-0.320
5215,-0.030,-0.305
5216,-0.040,-0.320
5217,-0.050,-0.335
5218,-0.035,-0.330
5219,-0.025,-0.350
5220,-0.010,-0.370
5221,-0.010,-0.385
5222,0.000,-0.385
5223,-0.015,-0.395
5224,0.005,-0.405
5225,0.010,-0.410
5226,0.040,-0.425
5227,0.035,-0.410
5228,0.035,-0.400
5229,0.050,-0.420
5230,0.005,-0.420
5231,0.035,-0.410
5232,0.020,-0.405
5233,0.020,-0.400
5234,0.030,-0.420
5235,0.015,-0.400
5236,0.015,-0.365
5237,0.010,-0.375
5238,0.000,-0.365
5239,0.000,-0.380
5240,0.000,-0.350
5241,-0.020,-0.305
5242,0.010,-0.275
5243,0.000,-0.245
5244,0.015,-0.200
5245,0.000,-0.060
5246,0.015,0.210
5247,0.050,0.490
5248,0.070,0.680
5249,0.055,0.795
5250,0.025,0.840
5251,-0.025,0.770
5252,-0.060,0.570
5253,-0.155,0.230
5254,-0.320,-0.125
5255,-0.655,-0.200
5256,-0.980,0.005
5257,-1.330,0.120
5258,-1.525,-0.070
5259,-1.560,-0.355
5260,-1.460,-0.610
5261,-1.125,-0.800
5262,-0.640,-0.850
5263,-0.290,-0.780
5264,-0.110,-0.670
5265,-0.080,-0.570
5266,-0.105,-0.525
5267,-0.115,-0.530
5268,-0.130,-0.520
5269,-0.120,-0.520
5270,-0.040,-0.510
5271,0.000,-0.510
5272,0.045,-0.510
5273,0.085,-0.495
5274,0.105,-0.500
5275,0.100,-0.515
5276,0.105,-0.500
5277,0.105,-0.500
5278,0.095,-0.500
5279,0.105,-0.505
5280,0.105,-0.515
5281,0.115,-0.490
5282,0.115,-0.490
5283,0.120,-0.510
5284,0.120,-0.505
5285,0.105,-0.490
5286,0.120,-0.490
5287,0.120,-0.500
5288,0.120,-0.505
5289,0.120,-0.510
5290,0.115,-0.505
5291,0.105,-0.495
5292,0.115,-0.495
5293,0.110,-0.520
5294,0.115,-0.515
5295,0.110,-0.530
5296,0.120,-0.520
5297,0.125,-0.515
5298,0.105,-0.520
5299,0.110,-0.520
5300,0.105,-0.520
5301,0.100,-0.530
5302,0.090,-0.525
5303,0.095,-0.540
5304,0.105,-0.520
5305,0.070,-0.515
5306,0.085,-0.530
5307,0.065,-0.540
5308,0.070,-0.530
5309,0.070,-0.525
5310,0.085,-0.535
5311,0.075,-0.510
5312,0.045,-0.470
5313,0.060,-0.465
5314,0.045,-0.455
5315,0.030,-0.445
5316,0.025,-0.435
5317,0.035,-0.445
5318,0.010,-0.400
5319,0.020,-0.385
5320,0.030,-0.360
5321,0.000,-0.355
5322,0.000,-0.345
5323,-0.025,-0.345
5324,-0.030,-0.335
5325,-0.050,-0.350
5326,-0.050,-0.335
5327,-0.040,-0.320
5328,-0.050,-0.305
5329,-0.065,-0.325
5330,-0.065,-0.330
5331,-0.075,-0.315
5332,-0.060,-0.335
5333,-0.060,-0.340
5334,-0.075,-0.335
5335,-0.080,-0.350
5336,-0.070,-0.335
5337,-0.085,-0.355
5338,-0.090,-0.340
5339,-0.070,-0.365
5340,-0.055,-0.350
5341,-0.050,-0.365
5342,-0.065,-0.355
5343,-0.070,-0.385
5344,-0.060,-0.380
5345,-0.065,-0.400
5346,-0.055,-0.405
5347,-0.050,-0.390
5348,-0.040,-0.390
5349,-0.045,-0.400
5350,-0.040,-0.420
5351,-0.030,-0.400
5352,-0.040,-0.395
5353,-0.040,-0.390
5354,-0.040,-0.390
5355,-0.020,-0.400
5356,-0.030,-0.395
5357,-0.030,-0.400
5358,-0.040,-0.385
5359,-0.025,-0.370
5360,-0.020,-0.375
5361,-0.025,-0.370
5362,-0.025,-0.395
5363,-0.015,-0.380
5364,-0.035,-0.375
5365,-0.035,-0.390
5366,-0.045,-0.385
5367,-0.035,-0.395
5368,-0.005,-0.395
5369,-0.025,-0.395
5370,-0.020,-0.380
5371,-0.035,-0.395
5372,-0.040,-0.385
5373,-0.045,-0.390
5374,-0.040,-0.380
5375,-0.055,-0.380
5376,-0.060,-0.385
5377,-0.040,-0.390
5378,-0.055,-0.370
5379,-0.045,-0.360
5380,-0.060,-0.360
5381,-0.070,-0.395
5382,-0.085,-0.385
5383,-0.080,-0.370
5384,-0.070,-0.375
5385,-0.045,-0.360
5386,-0.055,-0.365
5387,-0.070,-0.370
5388,-0.075,-0.370
5389,-0.060,-0.370
5390,-0.090,-0.395
5391,-0.070,-0.375
5392,-0.070,-0.385
5393,-0.070,-0.360
5394,-0.090,-0.365
5395,-0.060,-0.385
5396,-0.075,-0.380
5397,-0.100,-0.395
5398,-0.090,-0.385
5399,-0.080,-0.395
5400,-0.080,-0.405
5401,-0.075,-0.385
5402,-0.095,-0.360
5403,-0.095,-0.360
5404,-0.100,-0.340
5405,-0.085,-0.330
5406,-0.080,-0.300
5407,-0.070,-0.260
5408,-0.075,-0.240
5409,-0.080,-0.205
5410,-0.050,-0.210
5411,-0.055,-0.210
5412,-0.050,-0.205
5413,0.000,-0.195
5414,-0.005,-0.215
5415,0.015,-0.235
5416,0.015,-0.215
5417,0.005,-0.215
5418,0.000,-0.200
5419,-0.020,-0.210
5420,-0.035,-0.230
5421,-0.040,-0.275
5422,-0.065,-0.335
5423,-0.075,-0.345
5424,-0.095,-0.340
5425,-0.130,-0.330
5426,-0.140,-0.315
5427,-0.140,-0.335
5428,-0.150,-0.320
5429,-0.160,-0.320
5430,-0.140,-0.325
5431,-0.140,-0.355
5432,-0.110,-0.355
5433,-0.120,-0.340
5434,-0.135,-0.365
5435,-0.105,-0.390
5436,-0.120,-0.410
5437,-0.085,-0.390
5438,-0.095,-0.395
5439,-0.090,-0.385
5440,-0.090,-0.370
5441,-0.065,-0.390
5442,-0.080,-0.375
5443,-0.065,-0.375
5444,-0.070,-0.360
5445,-0.090,-0.355
5446,-0.055,-0.370
5447,-0.080,-0.375
5448,-0.085,-0.360
5449,-0.070,-0.345
5450,-0.085,-0.345
5451,-0.075,-0.320
5452,-0.060,-0.280
5453,-0.075,-0.270
5454,-0.080,-0.255
5455,-0.085,-0.200
5456,-0.065,-0.020
5457,-0.060,0.235
5458,-0.025,0.495
5459,-0.030,0.700
5460,-0.025,0.855
5461,-0.080,0.920
5462,-0.120,0.910
5463,-0.145,0.725
5464,-0.240,0.385
5465,-0.410,0.075
5466,-0.710,0.020
5467,-1.010,0.130
5468,-1.275,0.085
5469,-1.405,-0.150
5470,-1.435,-0.480
5471,-1.260,-0.705
5472,-0.895,-0.780
5473,-0.475,-0.795
5474,-0.240,-0.690
5475,-0.160,-0.585
5476,-0.200,-0.520
5477,-0.195,-0.495
5478,-0.200,-0.505
5479,-0.170,-0.505
5480,-0.135,-0.490
5481,-0.110,-0.510
5482,-0.025,-0.510
5483,0.000,-0.520
5484,0.005,-0.505
5485,0.010,-0.515
5486,0.000,-0.495
5487,0.010,-0.480
5488,0.020,-0.490
5489,0.010,-0.495
5490,0.020,-0.510
5491,0.000,-0.515
5492,0.025,-0.505
5493,0.045,-0.490
5494,0.005,-0.490
5495,0.025,-0.515
5496,0.030,-0.515
5497,0.020,-0.515
5498,0.020,-0.525
5499,0.025,-0.535
5500,0.025,-0.520
5501,0.015,-0.525
5502,0.030,-0.515
5503,0.030,-0.520
5504,0.030,-0.525
5505,0.030,-0.520
5506,0.030,-0.500
5507,0.015,-0.525
5508,0.020,-0.535
5509,0.010,-0.540
5510,0.005,-0.520
5511,0.025,-0.540
5512,0.000,-0.545
5513,0.015,-0.545
5514,0.000,-0.540
5515,0.010,-0.535
5516,-0.005,-0.540
5517,-0.025,-0.535
5518,-0.025,-0.525
5519,-0.015,-0.530
5520,-0.030,-0.540
5521,-0.005,-0.545
5522,-0.010,-0.510
5523,0.000,-0.520
5524,-0.030,-0.505
5525,-0.025,-0.495
5526,-0.040,-0.465
5527,-0.030,-0.465
5528,-0.035,-0.430
5529,-0.050,-0.420
5530,-0.060,-0.415
5531,-0.065,-0.385
5532,-0.065,-0.345
5533,-0.070,-0.350
5534,-0.070,-0.325
5535,-0.090,-0.320
5536,-0.090,-0.310
5537,-0.080,-0.305
5538,-0.120,-0.310
5539,-0.110,-0.275
5540,-0.100,-0.285
5541,-0.100,-0.280
5542,-0.100,-0.285
5543,-0.090,-0.280
5544,-0.105,-0.290
5545,-0.105,-0.300
5546,-0.110,-0.290
5547,-0.100,-0.310
5548,-0.100,-0.300
5549,-0.100,-0.305
5550,-0.135,-0.320
5551,-0.090,-0.335
5552,-0.080,-0.320
5553,-0.060,-0.310
5554,-0.065,-0.320
5555,-0.110,-0.310
5556,-0.075,-0.330
5557,-0.070,-0.335
5558,-0.075,-0.320
5559,-0.080,-0.330
5560,-0.085,-0.320
5561,-0.075,-0.345
5562,-0.075,-0.340
5563,-0.075,-0.320
5564,-0.080,-0.330
5565,-0.080,-0.325
5566,-0.080,-0.320
5567,-0.080,-0.335
5568,-0.095,-0.345
5569,-0.080,-0.345
5570,-0.055,-0.340
5571,-0.070,-0.320
5572,-0.085,-0.340
5573,-0.085,-0.350
5574,-0.130,-0.320
5575,-0.100,-0.350
5576,-0.095,-0.335
5577,-0.085,-0.340
5578,-0.100,-0.335
5579,-0.120,-0.350
5580,-0.120,-0.340
5581,-0.100,-0.360
5582,-0.130,-0.350
5583,-0.120,-0.350
5584,-0.120,-0.345
5585,-0.125,-0.340
5586,-0.130,-0.335
5587,-0.120,-0.350
5588,-0.115,-0.355
5589,-0.110,-0.370
5590,-0.120,-0.375
5591,-0.120,-0.340
5592,-0.105,-0.360
5593,-0.125,-0.340
5594,-0.115,-0.350
5595,-0.115,-0.350
5596,-0.100,-0.340
5597,-0.125,-0.340
5598,-0.120,-0.345
5599,-0.125,-0.355
5600,-0.115,-0.335
5601,-0.130,-0.350
5602,-0.130,-0.355
5603,-0.110,-0.330
5604,-0.140,-0.340
5605,-0.120,-0.325
5606,-0.135,-0.345
5607,-0.090,-0.330
5608,-0.120,-0.335
5609,-0.125,-0.330
5610,-0.135,-0.340
5611,-0.135,-0.335
5612,-0.110,-0.325
5613,-0.110,-0.345
5614,-0.135,-0.330
5615,-0.145,-0.325
5616,-0.130,-0.300
5617,-0.125,-0.280
5618,-0.125,-0.250
5619,-0.130,-0.215
5620,-0.110,-0.180
5621,-0.110,-0.145
5622,-0.115,-0.155
5623,-0.105,-0.140
5624,-0.065,-0.140
5625,-0.065,-0.140
5626,-0.045,-0.150
5627,-0.030,-0.155
5628,-0.025,-0.160
5629,-0.015,-0.160
5630,0.000,-0.150
5631,-0.025,-0.135
5632,-0.040,-0.155
5633,-0.060,-0.180
5634,-0.080,-0.220
5635,-0.110,-0.280
5636,-0.130,-0.270
5637,-0.155,-0.290
5638,-0.185,-0.255
5639,-0.170,-0.250
5640,-0.175,-0.255
5641,-0.165,-0.260
5642,-0.185,-0.250
5643,-0.165,-0.280
5644,-0.165,-0.265
5645,-0.150,-0.285
5646,-0.155,-0.300
5647,-0.145,-0.320
5648,-0.135,-0.350
5649,-0.155,-0.340
5650,-0.130,-0.335
5651,-0.120,-0.340
5652,-0.080,-0.345
5653,-0.075,-0.330
5654,-0.095,-0.345
5655,-0.120,-0.330
5656,-0.115,-0.340
5657,-0.105,-0.350
5658,-0.080,-0.345
5659,-0.090,-0.330
5660,-0.080,-0.330
5661,-0.095,-0.310
5662,-0.100,-0.315
5663,-0.105,-0.305
5664,-0.105,-0.290
5665,-0.105,-0.270
5666,-0.110,-0.230
5667,-0.120,-0.220
5668,-0.075,-0.175
5669,-0.115,-0.060
5670,-0.085,0.185
5671,-0.065,0.455
5672,-0.035,0.695
5673,-0.030,0.880
5674,-0.065,0.995
5675,-0.105,1.030
5676,-0.145,0.950
5677,-0.195,0.680
5678,-0.300,0.295
5679,-0.520,0.020
5680,-0.860,0.025
5681,-1.160,0.140
5682,-1.380,0.050
5683,-1.460,-0.210
5684,-1.460,-0.470
5685,-1.220,-0.680
5686,-0.800,-0.735
5687,-0.415,-0.730
5688,-0.220,-0.610
5689,-0.200,-0.515
5690,-0.215,-0.430
5691,-0.215,-0.425
5692,-0.185,-0.445
5693,-0.190,-0.445
5694,-0.145,-0.430
5695,-0.085,-0.430
5696,-0.050,-0.445
5697,-0.010,-0.460
5698,0.010,-0.440
5699,0.015,-0.440
5700,0.030,-0.440
5701,0.010,-0.440
5702,0.030,-0.425
5703,0.040,-0.410
5704,0.055,-0.420
5705,0.055,-0.420
5706,0.035,-0.425
5707,0.055,-0.410
5708,0.060,-0.420
5709,0.055,-0.405
5710,0.085,-0.395
5711,0.075,-0.410
5712,0.075,-0.400
5713,0.060,-0.400
5714,0.075,-0.400
5715,0.075,-0.410
5716,0.065,-0.405
5717,0.040,-0.400
5718,0.050,-0.395
5719,0.040,-0.405
5720,0.050,-0.420
5721,0.050,-0.405
5722,0.065,-0.415
5723,0.050,-0.420
5724,0.065,-0.425
5725,0.065,-0.425
5726,0.055,-0.425
5727,0.050,-0.440
5728,0.055,-0.450
5729,0.040,-0.445
5730,0.045,-0.445
5731,0.030,-0.460
5732,0.045,-0.435
5733,0.065,-0.440
5734,0.050,-0.430
5735,0.035,-0.430
5736,0.020,-0.420
5737,0.035,-0.410
5738,0.025,-0.400
5739,0.025,-0.385
5740,0.010,-0.375
5741,0.015,-0.360
5742,0.010,-0.350
5743,0.005,-0.320
5744,0.005,-0.290
5745,0.000,-0.265
5746,0.000,-0.265
5747,-0.020,-0.225
5748,-0.030,-0.235
5749,-0.035,-0.205
5750,-0.050,-0.220
5751,-0.050,-0.205
5752,-0.045,-0.190
5753,-0.050,-0.195
5754,-0.045,-0.185
5755,-0.055,-0.185
5756,-0.040,-0.190
5757,-0.040,-0.190
5758,-0.040,-0.195
5759,-0.030,-0.200
5760,-0.045,-0.200
5761,-0.070,-0.195
5762,-0.030,-0.190
5763,-0.045,-0.195
5764,-0.025,-0.190
5765,-0.015,-0.195
5766,-0.040,-0.205
5767,-0.025,-0.205
5768,-0.020,-0.210
5769,-0.020,-0.220
5770,-0.030,-0.235
5771,-0.020,-0.240
5772,-0.020,-0.225
5773,-0.005,-0.210
5774,-0.025,-0.235
5775,-0.020,-0.235
5776,-0.015,-0.225
5777,-0.015,-0.240
5778,-0.005,-0.230
5779,-0.025,-0.235
5780,-0.010,-0.225
5781,0.000,-0.225
5782,-0.005,-0.235
5783,-0.025,-0.225
5784,-0.010,-0.230
5785,0.005,-0.225
5786,0.000,-0.215
5787,-0.010,-0.230
5788,0.000,-0.215
5789,-0.015,-0.225
5790,0.000,-0.225
5791,-0.005,-0.240
5792,-0.010,-0.215
5793,-0.015,-0.220
5794,-0.015,-0.220
5795,-0.030,-0.255
5796,-0.025,-0.225
5797,-0.035,-0.220
5798,-0.020,-0.235
5799,-0.020,-0.230
5800,-0.035,-0.230
5801,-0.020,-0.215
5802,-0.035,-0.230
5803,-0.030,-0.230
5804,-0.060,-0.230
5805,-0.020,-0.210
5806,-0.025,-0.230
5807,-0.020,-0.225
5808,-0.020,-0.220
5809,-0.050,-0.230
5810,-0.030,-0.230
5811,-0.045,-0.245
5812,-0.050,-0.225
5813,-0.055,-0.215
5814,-0.055,-0.215
5815,-0.050,-0.210
5816,-0.060,-0.240
5817,-0.055,-0.245
5818,-0.050,-0.220
5819,-0.040,-0.240
5820,-0.070,-0.220
5821,-0.055,-0.225
5822,-0.070,-0.220
5823,-0.070,-0.235
5824,-0.055,-0.215
5825,-0.070,-0.235
5826,-0.055,-0.235
5827,-0.060,-0.235
5828,-0.070,-0.215
5829,-0.070,-0.225
5830,-0.070,-0.230
5831,-0.060,-0.220
5832,-0.060,-0.200
5833,-0.055,-0.200
5834,-0.065,-0.175
5835,-0.060,-0.150
5836,-0.065,-0.095
5837,-0.070,-0.090
5838,-0.065,-0.040
5839,-0.080,-0.055
5840,-0.025,-0.070
5841,-0.005,-0.040
5842,0.015,-0.055
5843,0.025,-0.060
5844,0.040,-0.080
5845,0.015,-0.055
5846,0.025,-0.050
5847,0.015,-0.035
5848,0.010,-0.065
5849,-0.010,-0.080
5850,-0.030,-0.095
5851,-0.065,-0.160
5852,-0.090,-0.205
5853,-0.115,-0.190
5854,-0.150,-0.185
5855,-0.140,-0.180
5856,-0.160,-0.145
5857,-0.165,-0.170
5858,-0.160,-0.170
5859,-0.155,-0.180
5860,-0.175,-0.190
5861,-0.130,-0.200
5862,-0.135,-0.230
5863,-0.125,-0.215
5864,-0.125,-0.245
5865,-0.135,-0.265
5866,-0.135,-0.255
5867,-0.100,-0.275
5868,-0.090,-0.260
5869,-0.075,-0.270
5870,-0.085,-0.260
5871,-0.080,-0.260
5872,-0.095,-0.265
5873,-0.085,-0.265
5874,-0.060,-0.255
5875,-0.080,-0.245
5876,-0.095,-0.255
5877,-0.080,-0.255
5878,-0.075,-0.250
5879,-0.105,-0.235
5880,-0.080,-0.255
5881,-0.095,-0.230
5882,-0.105,-0.175
5883,-0.080,-0.140
5884,-0.080,-0.125
5885,-0.100,-0.100
5886,-0.100,0.060
5887,-0.100,0.345
5888,-0.075,0.580
5889,-0.030,0.795
5890,-0.045,0.930
5891,-0.085,0.995
5892,-0.135,0.940
5893,-0.170,0.765
5894,-0.250,0.435
5895,-0.440,0.060
5896,-0.725,-0.045
5897,-1.070,0.110
5898,-1.390,0.250
5899,-1.605,0.115
5900,-1.650,-0.215
5901,-1.575,-0.470
5902,-1.240,-0.650
5903,-0.755,-0.680
5904,-0.395,-0.660
5905,-0.215,-0.545
5906,-0.205,-0.440
5907,-0.215,-0.400
5908,-0.225,-0.415
5909,-0.200,-0.400
5910,-0.200,-0.410
5911,-0.140,-0.400
5912,-0.075,-0.420
5913,-0.030,-0.400
5914,-0.010,-0.405
5915,0.005,-0.400
5916,0.010,-0.395
5917,0.030,-0.390
5918,0.025,-0.395
5919,0.010,-0.385
5920,0.010,-0.385
5921,0.020,-0.405
5922,0.020,-0.375
5923,0.025,-0.380
5924,0.040,-0.390
5925,0.055,-0.385
5926,0.050,-0.390
5927,0.050,-0.370
5928,0.040,-0.375
5929,0.055,-0.400
5930,0.040,-0.385
5931,0.025,-0.380
5932,0.030,-0.410
5933,0.060,-0.375
5934,0.055,-0.385
5935,0.045,-0.380
5936,0.065,-0.385
5937,0.050,-0.375
5938,0.045,-0.390
5939,0.035,-0.390
5940,0.040,-0.390
5941,0.050,-0.390
5942,0.035,-0.405
5943,0.050,-0.370
5944,0.050,-0.380
5945,0.045,-0.390
5946,0.065,-0.390
5947,0.025,-0.395
5948,0.050,-0.400
5949,0.045,-0.390
5950,0.045,-0.355
5951,0.025,-0.380
5952,0.035,-0.385
5953,0.015,-0.360
5954,0.010,-0.355
5955,0.015,-0.345
5956,0.010,-0.335
5957,0.005,-0.320
5958,0.015,-0.290
5959,0.035,-0.295
5960,0.000,-0.290
5961,0.015,-0.260
5962,-0.010,-0.240
5963,-0.015,-0.200
5964,-0.010,-0.200
5965,-0.045,-0.205
5966,-0.040,-0.190
5967,-0.055,-0.205
5968,-0.045,-0.190
5969,-0.065,-0.190
5970,-0.055,-0.185
5971,-0.075,-0.190
5972,-0.085,-0.185
5973,-0.085,-0.185
5974,-0.065,-0.180
5975,-0.075,-0.185
5976,-0.060,-0.185
5977,-0.070,-0.190
5978,-0.075,-0.195
5979,-0.050,-0.200
5980,-0.060,-0.205
5981,-0.070,-0.185
5982,-0.060,-0.210
5983,-0.055,-0.210
5984,-0.035,-0.215
5985,-0.060,-0.220
5986,-0.060,-0.230
5987,-0.040,-0.230
5988,-0.075,-0.235
5989,-0.055,-0.245
5990,-0.055,-0.230
5991,-0.050,-0.235
5992,-0.045,-0.230
5993,-0.040,-0.245
5994,-0.050,-0.245
5995,-0.050,-0.250
5996,-0.035,-0.245
5997,-0.045,-0.230
5998,-0.055,-0.230
5999,-0.055,-0.250
6000,-0.040,-0.240
6001,-0.030,-0.230
6002,-0.040,-0.240
6003,-0.055,-0.230
6004,-0.035,-0.230
6005,-0.015,-0.225
6006,-0.030,-0.240
6007,-0.045,-0.255
6008,-0.040,-0.235
6009,-0.040,-0.230
6010,-0.045,-0.220
6011,-0.030,-0.225
6012,-0.025,-0.235
6013,-0.045,-0.235
6014,-0.040,-0.230
6015,-0.045,-0.230
6016,-0.050,-0.250
6017,-0.045,-0.220
6018,-0.065,-0.245
6019,-0.040,-0.215
6020,-0.060,-0.215
6021,-0.070,-0.230
6022,-0.060,-0.220
6023,-0.065,-0.220
6024,-0.085,-0.235
6025,-0.055,-0.220
6026,-0.080,-0.230
6027,-0.085,-0.225
6028,-0.075,-0.240
6029,-0.055,-0.230
6030,-0.075,-0.245
6031,-0.075,-0.235
6032,-0.085,-0.245
6033,-0.085,-0.220
6034,-0.070,-0.230
6035,-0.080,-0.215
6036,-0.070,-0.255
6037,-0.060,-0.255
6038,-0.090,-0.245
6039,-0.075,-0.230
6040,-0.070,-0.240
6041,-0.075,-0.255
6042,-0.090,-0.240
6043,-0.080,-0.235
6044,-0.090,-0.260
6045,-0.090,-0.255
6046,-0.085,-0.250
6047,-0.090,-0.230
6048,-0.085,-0.230
6049,-0.080,-0.210
6050,-0.085,-0.220
6051,-0.100,-0.195
6052,-0.080,-0.150
6053,-0.080,-0.110
6054,-0.090,-0.100
6055,-0.060,-0.080
6056,-0.065,-0.100
6057,-0.040,-0.080
6058,-0.040,-0.110
6059,-0.020,-0.095
6060,-0.005,-0.090
6061,0.015,-0.120
6062,0.020,-0.090
6063,0.020,-0.090
6064,0.005,-0.090
6065,-0.020,-0.105
6066,-0.035,-0.110
6067,-0.080,-0.145
6068,-0.075,-0.195
6069,-0.105,-0.230
6070,-0.125,-0.240
6071,-0.155,-0.245
6072,-0.170,-0.215
6073,-0.160,-0.195
6074,-0.175,-0.210
6075,-0.190,-0.210
6076,-0.180,-0.215
6077,-0.180,-0.235
6078,-0.180,-0.240
6079,-0.150,-0.235
6080,-0.150,-0.245
6081,-0.165,-0.285
6082,-0.160,-0.300
6083,-0.150,-0.315
6084,-0.120,-0.310
6085,-0.115,-0.305
6086,-0.095,-0.315
6087,-0.085,-0.315
6088,-0.100,-0.305
6089,-0.095,-0.290
6090,-0.105,-0.300
6091,-0.105,-0.305
6092,-0.130,-0.300
6093,-0.120,-0.305
6094,-0.150,-0.300
6095,-0.135,-0.310
6096,-0.155,-0.305
6097,-0.140,-0.290
6098,-0.130,-0.260
6099,-0.130,-0.245
6100,-0.140,-0.205
6101,-0.145,-0.160
6102,-0.140,-0.170
6103,-0.150,-0.105
6104,-0.120,0.050
6105,-0.115,0.310
6106,-0.100,0.530
6107,-0.060,0.700
6108,-0.095,0.805
6109,-0.155,0.840
6110,-0.200,0.770
6111,-0.215,0.640
6112,-0.290,0.360
6113,-0.470,0.040
6114,-0.780,-0.065
6115,-1.105,0.065
6116,-1.420,0.175
6117,-1.590,0.050
6118,-1.645,-0.250
6119,-1.550,-0.505
6120,-1.225,-0.655
6121,-0.775,-0.710
6122,-0.400,-0.680
6123,-0.250,-0.585
6124,-0.235,-0.495
6125,-0.240,-0.435
6126,-0.280,-0.430
6127,-0.270,-0.435
6128,-0.280,-0.450
6129,-0.195,-0.435
6130,-0.155,-0.440
6131,-0.100,-0.440
6132,-0.050,-0.420
6133,-0.070,-0.435
6134,-0.055,-0.445
6135,-0.035,-0.435
6136,-0.030,-0.445
6137,-0.055,-0.435
6138,-0.035,-0.445
6139,-0.035,-0.420
6140,-0.025,-0.425
6141,-0.030,-0.425
6142,-0.015,-0.415
6143,-0.030,-0.420
6144,-0.035,-0.445
6145,-0.035,-0.435
6146,-0.035,-0.420
6147,-0.045,-0.430
6148,-0.020,-0.435
6149,-0.040,-0.420
6150,-0.030,-0.440
6151,-0.030,-0.440
6152,-0.020,-0.440
6153,-0.035,-0.430
6154,-0.040,-0.445
6155,-0.040,-0.455
6156,-0.025,-0.455
6157,-0.030,-0.465
6158,-0.040,-0.455
6159,-0.020,-0.465
6160,-0.030,-0.450
6161,-0.040,-0.470
6162,-0.035,-0.465
6163,-0.030,-0.460
6164,-0.040,-0.475
6165,-0.030,-0.460
6166,-0.035,-0.475
6167,-0.045,-0.475
6168,-0.065,-0.475
6169,-0.050,-0.440
6170,-0.050,-0.470
6171,-0.055,-0.435
6172,-0.060,-0.435
6173,-0.050,-0.430
6174,-0.095,-0.420
6175,-0.060,-0.395
6176,-0.090,-0.390
6177,-0.080,-0.385
6178,-0.090,-0.360
6179,-0.110,-0.335
6180,-0.110,-0.320
6181,-0.100,-0.310
6182,-0.105,-0.305
6183,-0.135,-0.275
6184,-0.115,-0.270
6185,-0.135,-0.280
6186,-0.115,-0.250
6187,-0.130,-0.250
6188,-0.130,-0.260
6189,-0.145,-0.260
6190,-0.130,-0.260
6191,-0.135,-0.260
6192,-0.140,-0.265
6193,-0.155,-0.260
6194,-0.145,-0.260
6195,-0.150,-0.270
6196,-0.155,-0.275
6197,-0.145,-0.270
6198,-0.145,-0.250
6199,-0.125,-0.275
6200,-0.130,-0.265
6201,-0.130,-0.280
6202,-0.120,-0.260
6203,-0.130,-0.260
6204,-0.125,-0.255
6205,-0.130,-0.265
6206,-0.130,-0.295
6207,-0.120,-0.275
6208,-0.120,-0.265
6209,-0.105,-0.280
6210,-0.125,-0.285
6211,-0.105,-0.270
6212,-0.120,-0.280
6213,-0.110,-0.265
6214,-0.115,-0.245
6215,-0.100,-0.270
6216,-0.105,-0.280
6217,-0.075,-0.255
6218,-0.085,-0.285
6219,-0.085,-0.275
6220,-0.070,-0.265
6221,-0.085,-0.275
6222,-0.090,-0.265
6223,-0.090,-0.285
6224,-0.110,-0.285
6225,-0.090,-0.285
6226,-0.095,-0.280
6227,-0.075,-0.280
6228,-0.080,-0.290
6229,-0.090,-0.275
6230,-0.095,-0.280
6231,-0.125,-0.265
6232,-0.105,-0.280
6233,-0.095,-0.290
6234,-0.100,-0.295
6235,-0.110,-0.285
6236,-0.110,-0.285
6237,-0.100,-0.280
6238,-0.095,-0.275
6239,-0.090,-0.265
6240,-0.125,-0.285
6241,-0.125,-0.295
6242,-0.115,-0.275
6243,-0.110,-0.280
6244,-0.130,-0.280
6245,-0.105,-0.275
6246,-0.100,-0.270
6247,-0.130,-0.275
6248,-0.120,-0.275
6249,-0.125,-0.270
6250,-0.130,-0.295
6251,-0.150,-0.275
6252,-0.140,-0.280
6253,-0.130,-0.280
6254,-0.125,-0.280
6255,-0.140,-0.275
6256,-0.125,-0.275
6257,-0.095,-0.270
6258,-0.135,-0.275
6259,-0.140,-0.270
6260,-0.170,-0.265
6261,-0.155,-0.270
6262,-0.125,-0.275
6263,-0.140,-0.260
6264,-0.135,-0.280
6265,-0.150,-0.300
6266,-0.145,-0.265
6267,-0.135,-0.270
6268,-0.130,-0.270
6269,-0.120,-0.280
6270,-0.125,-0.275
6271,-0.140,-0.270
6272,-0.135,-0.265
6273,-0.145,-0.225
6274,-0.145,-0.210
6275,-0.145,-0.165
6276,-0.130,-0.115
6277,-0.140,-0.120
6278,-0.130,-0.140
6279,-0.125,-0.130
6280,-0.090,-0.110
6281,-0.070,-0.105
6282,-0.055,-0.110
6283,-0.040,-0.140
6284,-0.040,-0.130
6285,-0.020,-0.120
6286,-0.040,-0.090
6287,-0.035,-0.095
6288,-0.060,-0.095
6289,-0.075,-0.140
6290,-0.115,-0.170
6291,-0.130,-0.215
6292,-0.145,-0.240
6293,-0.165,-0.250
6294,-0.185,-0.230
6295,-0.165,-0.235
6296,-0.200,-0.200
6297,-0.230,-0.210
6298,-0.220,-0.225
6299,-0.200,-0.205
6300,-0.200,-0.245
6301,-0.195,-0.230
6302,-0.190,-0.250
6303,-0.180,-0.285
6304,-0.195,-0.310
6305,-0.195,-0.315
6306,-0.180,-0.305
6307,-0.140,-0.305
6308,-0.135,-0.310
6309,-0.140,-0.300
6310,-0.125,-0.305
6311,-0.140,-0.290
6312,-0.145,-0.300
6313,-0.155,-0.300
6314,-0.155,-0.295
6315,-0.130,-0.300
6316,-0.145,-0.295
6317,-0.155,-0.290
6318,-0.160,-0.280
6319,-0.155,-0.285
6320,-0.150,-0.305
6321,-0.145,-0.265
6322,-0.165,-0.250
6323,-0.160,-0.210
6324,-0.185,-0.200
6325,-0.175,-0.155
6326,-0.175,-0.015
6327,-0.145,0.220
6328,-0.140,0.475
6329,-0.140,0.695
6330,-0.115,0.865
6331,-0.145,0.975
6332,-0.220,0.985
6333,-0.255,0.870
6334,-0.295,0.575
6335,-0.415,0.235
6336,-0.670,0.065
6337,-0.965,0.090
6338,-1.260,0.135
6339,-1.420,-0.040
6340,-1.460,-0.320
6341,-1.360,-0.565
6342,-1.075,-0.710
6343,-0.695,-0.755
6344,-0.385,-0.720
6345,-0.280,-0.605
6346,-0.285,-0.520
6347,-0.305,-0.460
6348,-0.305,-0.470
6349,-0.300,-0.465
6350,-0.285,-0.480
6351,-0.230,-0.455
6352,-0.160,-0.460
6353,-0.100,-0.450
6354,-0.080,-0.455
6355,-0.100,-0.465
6356,-0.085,-0.460
6357,-0.065,-0.470
6358,-0.080,-0.445
6359,-0.080,-0.455
6360,-0.070,-0.455
6361,-0.080,-0.455
6362,-0.050,-0.465
6363,-0.060,-0.465
6364,-0.075,-0.475
6365,-0.060,-0.455
6366,-0.060,-0.455
6367,-0.060,-0.465
6368,-0.035,-0.475
6369,-0.070,-0.465
6370,-0.055,-0.465
6371,-0.050,-0.465
6372,-0.040,-0.465
6373,-0.040,-0.460
6374,-0.045,-0.465
6375,-0.035,-0.470
6376,-0.055,-0.495
6377,-0.070,-0.485
6378,-0.055,-0.510
6379,-0.040,-0.500
6380,-0.020,-0.505
6381,-0.055,-0.510
6382,-0.075,-0.535
6383,-0.050,-0.515
6384,-0.080,-0.510
6385,-0.075,-0.520
6386,-0.060,-0.515
6387,-0.055,-0.520
6388,-0.075,-0.535
6389,-0.075,-0.525
6390,-0.075,-0.530
6391,-0.080,-0.510
6392,-0.065,-0.510
6393,-0.090,-0.500
6394,-0.075,-0.510
6395,-0.080,-0.485
6396,-0.070,-0.465
6397,-0.070,-0.465
6398,-0.075,-0.460
6399,-0.070,-0.430
6400,-0.090,-0.400
6401,-0.090,-0.390
6402,-0.095,-0.375
6403,-0.115,-0.350
6404,-0.115,-0.315
6405,-0.115,-0.335
6406,-0.110,-0.315
6407,-0.125,-0.310
6408,-0.130,-0.300
6409,-0.135,-0.290
6410,-0.135,-0.280
6411,-0.145,-0.285
6412,-0.130,-0.265
6413,-0.125,-0.280
6414,-0.120,-0.275
6415,-0.130,-0.285
6416,-0.120,-0.280
6417,-0.130,-0.305
6418,-0.120,-0.300
6419,-0.100,-0.300
6420,-0.080,-0.300
6421,-0.110,-0.300
6422,-0.115,-0.315
6423,-0.110,-0.305
6424,-0.080,-0.310
6425,-0.100,-0.335
6426,-0.100,-0.300
6427,-0.110,-0.325
6428,-0.080,-0.315
6429,-0.080,-0.330
6430,-0.090,-0.315
6431,-0.110,-0.325
6432,-0.090,-0.300
6433,-0.080,-0.310
6434,-0.085,-0.310
6435,-0.075,-0.305
6436,-0.055,-0.310
6437,-0.080,-0.320
6438,-0.075,-0.345
6439,-0.060,-0.310
6440,-0.070,-0.335
6441,-0.070,-0.305
6442,-0.070,-0.315
6443,-0.075,-0.315
6444,-0.085,-0.315
6445,-0.045,-0.330
6446,-0.070,-0.320
6447,-0.040,-0.310
6448,-0.030,-0.305
6449,-0.045,-0.320
6450,-0.090,-0.295
6451,-0.060,-0.305
6452,-0.065,-0.300
6453,-0.050,-0.285
6454,-0.065,-0.295
6455,-0.060,-0.290
6456,-0.065,-0.300
6457,-0.075,-0.300
6458,-0.040,-0.300
6459,-0.040,-0.300
6460,-0.065,-0.300
6461,-0.065,-0.290
6462,-0.055,-0.295
6463,-0.035,-0.280
6464,-0.040,-0.295
6465,-0.070,-0.280
6466,-0.050,-0.280
6467,-0.040,-0.290
6468,-0.065,-0.285
6469,-0.075,-0.285
6470,-0.050,-0.285
6471,-0.050,-0.305
6472,-0.045,-0.295
6473,-0.045,-0.285
6474,-0.055,-0.300
6475,-0.050,-0.290
6476,-0.060,-0.270
6477,-0.065,-0.295
6478,-0.060,-0.295
6479,-0.060,-0.290
6480,-0.040,-0.295
6481,-0.060,-0.290
6482,-0.055,-0.290
6483,-0.050,-0.285
6484,-0.055,-0.275
6485,-0.050,-0.285
6486,-0.080,-0.275
6487,-0.065,-0.255
6488,-0.035,-0.245
6489,-0.060,-0.210
6490,-0.055,-0.170
6491,-0.075,-0.130
6492,-0.035,-0.125
6493,-0.025,-0.100
6494,-0.025,-0.105
6495,0.000,-0.105
6496,0.015,-0.100
6497,0.025,-0.095
6498,0.025,-0.120
6499,0.050,-0.120
6500,0.050,-0.100
6501,0.040,-0.100
6502,0.035,-0.115
6503,0.015,-0.120
6504,-0.005,-0.185
6505,-0.030,-0.210
6506,-0.070,-0.240
6507,-0.080,-0.245
6508,-0.090,-0.225
6509,-0.130,-0.215
6510,-0.110,-0.215
6511,-0.115,-0.190
6512,-0.120,-0.210
6513,-0.120,-0.195
6514,-0.105,-0.230
6515,-0.100,-0.225
6516,-0.080,-0.240
6517,-0.075,-0.265
6518,-0.080,-0.305
6519,-0.085,-0.310
6520,-0.070,-0.305
6521,-0.050,-0.305
6522,-0.030,-0.305
6523,-0.025,-0.290
6524,-0.015,-0.300
6525,-0.025,-0.300
6526,-0.035,-0.295
6527,-0.020,-0.290
6528,-0.040,-0.290
6529,-0.050,-0.290
6530,-0.040,-0.275
6531,-0.050,-0.295
6532,-0.050,-0.270
6533,-0.060,-0.285
6534,-0.055,-0.260
6535,-0.040,-0.245
6536,-0.050,-0.190
6537,-0.065,-0.185
6538,-0.040,-0.150
6539,-0.040,-0.070
6540,-0.050,0.140
6541,-0.040,0.435
6542,0.020,0.690
6543,0.025,0.840
6544,0.000,0.960
6545,-0.025,0.975
6546,-0.070,0.845
6547,-0.130,0.555
6548,-0.270,0.150
6549,-0.520,-0.045
6550,-0.840,0.055
6551,-1.180,0.215
6552,-1.435,0.100
6553,-1.565,-0.205
6554,-1.525,-0.465
6555,-1.250,-0.625
6556,-0.770,-0.690
6557,-0.385,-0.665
6558,-0.200,-0.580
6559,-0.135,-0.470
6560,-0.160,-0.400
6561,-0.175,-0.400
6562,-0.165,-0.390
6563,-0.140,-0.390
6564,-0.090,-0.400
6565,-0.030,-0.400
6566,0.010,-0.405
6567,0.040,-0.400
6568,0.055,-0.390
6569,0.050,-0.385
6570,0.050,-0.410
6571,0.060,-0.400
6572,0.075,-0.410
6573,0.090,-0.380
6574,0.075,-0.390
6575,0.075,-0.395
6576,0.085,-0.400
