'sample interval','ECG','ECG'
'0.004 sec','mV','mV'
0,0.045,0.020
1,0.105,0.060
2,0.065,0.065
3,0.015,0.105
4,0.065,0.100
5,0.085,0.050
6,0.090,0.045
7,0.015,0.035
8,0.010,0.035
9,0.050,0.070
10,0.075,0.045
11,0.110,0.065
12,0.070,0.070
13,0.065,0.065
14,0.090,0.060
15,0.090,0.030
16,0.055,0.060
17,0.060,0.075
18,0.105,0.020
19,0.110,0.010
20,0.080,0.060
21,0.110,0.070
22,0.130,0.010
23,0.115,-0.010
24,0.100,0.035
25,0.110,0.055
26,0.150,0.010
27,0.130,0.005
28,0.120,0.040
29,0.155,0.040
30,0.175,0.030
31,0.175,0.050
32,0.190,0.115
33,0.205,0.185
34,0.270,0.175
35,0.315,0.230
36,0.330,0.240
37,0.390,0.270
38,0.465,0.270
39,0.450,0.240
40,0.380,0.230
41,0.380,0.235
42,0.405,0.210
43,0.350,0.215
44,0.225,0.225
45,0.190,0.240
46,0.220,0.160
47,0.155,0.115
48,0.115,0.110
49,0.110,0.125
50,0.110,0.095
51,0.095,0.110
52,0.070,0.085
53,0.120,0.065
54,0.125,0.030
55,0.100,0.040
56,0.110,0.085
57,0.125,0.055
58,0.150,-0.040
59,0.110,-0.085
60,0.135,-0.080
61,0.145,-0.180
62,0.130,-0.265
63,0.085,-0.245
64,0.055,-0.185
65,0.070,-0.255
66,0.040,-0.235
67,0.025,-0.225
68,0.020,-0.200
69,0.045,-0.195
70,0.035,-0.215
71,0.015,-0.180
72,0.035,-0.040
73,0.080,-0.010
74,0.115,-0.045
75,0.160,-0.090
76,0.130,-0.155
77,0.070,-0.340
78,0.025,-0.475
79,-0.025,-0.370
80,-0.090,-0.325
81,-0.165,-0.285
82,-0.190,-0.130
83,-0.225,-0.080
84,-0.265,-0.335
85,-0.215,-0.710
86,-0.165,-0.950
87,-0.250,-0.915
88,-0.225,-0.660
89,-0.135,-0.325
90,-0.025,0.130
91,0.150,0.320
92,0.475,0.130
93,0.865,-0.195
94,1.125,-0.525
95,1.400,-0.865
96,1.750,-1.255
97,2.040,-1.630
98,2.255,-1.890
99,2.455,-1.970
100,2.645,-1.835
101,2.630,-1.625
102,2.415,-1.475
103,2.150,-1.235
104,1.800,-1.015
105,1.275,-0.790
106,0.765,-0.530
107,0.510,-0.380
108,0.355,-0.315
109,0.265,-0.295
110,0.165,-0.190
111,0.135,-0.165
112,0.095,-0.135
113,0.055,-0.125
114,-0.025,-0.095
115,-0.040,-0.035
116,-0.020,-0.045
117,-0.065,-0.070
118,-0.095,-0.025
119,-0.100,0.000
120,-0.090,-0.020
121,-0.110,-0.045
122,-0.135,-0.010
123,-0.150,-0.030
124,-0.135,-0.040
125,-0.145,-0.040
126,-0.135,0.020
127,-0.145,0.025
128,-0.160,0.005
129,-0.145,0.015
130,-0.145,0.065
131,-0.175,0.070
132,-0.160,0.040
133,-0.175,0.025
134,-0.210,0.035
135,-0.250,0.015
136,-0.225,0.005
137,-0.235,-0.040
138,-0.270,-0.040
139,-0.285,-0.010
140,-0.275,-0.040
141,-0.260,-0.055
142,-0.265,-0.005
143,-0.265,0.010
144,-0.295,-0.075
145,-0.305,-0.035
146,-0.330,0.020
147,-0.330,0.000
148,-0.350,-0.030
149,-0.440,0.010
150,-0.390,0.020
151,-0.300,-0.020
152,-0.370,-0.030
153,-0.445,-0.025
154,-0.360,-0.010
155,-0.335,0.020
156,-0.440,0.020
157,-0.330,-0.020
158,-0.280,-0.005
159,-0.310,-0.020
160,-0.325,-0.030
161,-0.285,-0.010
162,-0.230,0.025
163,-0.195,-0.055
164,-0.095,-0.010
165,-0.095,0.005
166,-0.070,0.005
167,0.000,0.015
168,-0.030,0.040
169,0.020,0.035
170,0.025,-0.085
171,0.115,-0.265
172,0.115,-0.500
173,0.065,-0.620
174,0.030,-0.605
175,-0.035,-0.685
176,-0.095,-0.525
177,-0.120,-0.280
178,-0.120,-0.075
179,-0.055,0.030
180,0.015,0.200
181,0.020,0.460
182,0.115,0.560
183,0.240,0.550
184,0.370,0.420
185,0.475,0.235
186,0.695,0.165
187,1.005,0.070
188,1.355,-0.170
189,1.570,-0.400
190,1.615,-0.630
191,1.835,-0.705
192,2.145,-0.830
193,2.500,-1.170
194,2.855,-1.435
195,3.365,-1.695
196,4.000,-1.895
197,4.165,-1.805
198,4.405,-1.450
199,4.090,-1.195
200,3.720,-0.905
201,3.205,-0.560
202,2.565,-0.285
203,2.120,-0.135
204,1.635,-0.020
205,1.025,0.025
206,0.625,0.030
207,0.430,0.040
208,0.285,0.045
209,0.210,0.055
210,0.170,0.125
211,0.135,0.130
212,0.075,0.200
213,0.000,0.250
214,0.025,0.285
215,0.010,0.285
216,-0.025,0.355
217,-0.030,0.460
218,0.040,0.505
219,0.080,0.495
220,0.045,0.535
221,0.060,0.580
222,0.080,0.585
223,0.085,0.555
224,0.045,0.580
225,0.050,0.635
226,-0.015,0.605
227,-0.085,0.570
228,-0.240,0.610
229,-0.305,0.675
230,-0.270,0.630
231,-0.280,0.550
232,-0.330,0.565
233,-0.390,0.585
234,-0.375,0.600
235,-0.370,0.580
236,-0.410,0.575
237,-0.420,0.590
238,-0.390,0.610
239,-0.385,0.570
240,-0.470,0.600
241,-0.495,0.645
242,-0.440,0.620
243,-0.440,0.500
244,-0.485,0.460
245,-0.465,0.470
246,-0.430,0.430
247,-0.505,0.375
248,-0.580,0.425
249,-0.635,0.445
250,-0.545,0.400
251,-0.510,0.400
252,-0.490,0.420
253,-0.465,0.440
254,-0.440,0.370
255,-0.430,0.375
256,-0.430,0.425
257,-0.425,0.445
258,-0.345,0.385
259,-0.280,0.395
260,-0.270,0.415
261,-0.190,0.420
262,-0.090,0.380
263,-0.040,0.375
264,0.015,0.410
265,0.045,0.395
266,0.090,0.355
267,0.150,0.365
268,0.170,0.400
269,0.195,0.425
270,0.245,0.385
271,0.235,0.385
272,0.205,0.420
273,0.255,0.420
274,0.265,0.410
275,0.270,0.445
276,0.240,0.485
277,0.275,0.460
278,0.300,0.450
279,0.280,0.480
280,0.265,0.485
281,0.310,0.475
282,0.300,0.440
283,0.270,0.450
284,0.280,0.530
285,0.335,0.540
286,0.345,0.465
287,0.325,0.495
288,0.335,0.535
289,0.360,0.565
290,0.355,0.525
291,0.340,0.540
292,0.355,0.555
293,0.360,0.535
294,0.355,0.510
295,0.330,0.520
296,0.310,0.535
297,0.375,0.510
298,0.355,0.510
299,0.340,0.520
300,0.310,0.560
301,0.325,0.550
302,0.400,0.550
303,0.385,0.590
304,0.360,0.595
305,0.305,0.585
306,0.320,0.550
307,0.395,0.585
308,0.350,0.590
309,0.305,0.540
310,0.350,0.575
311,0.375,0.620
312,0.360,0.610
313,0.385,0.595
314,0.370,0.625
315,0.335,0.670
316,0.345,0.655
317,0.335,0.630
318,0.345,0.650
319,0.320,0.645
320,0.330,0.635
321,0.355,0.665
322,0.360,0.690
323,0.335,0.700
324,0.320,0.695
325,0.365,0.680
326,0.365,0.680
327,0.290,0.655
328,0.285,0.680
329,0.320,0.640
330,0.305,0.680
331,0.305,0.720
332,0.320,0.705
333,0.310,0.715
334,0.300,0.725
335,0.265,0.740
336,0.325,0.745
337,0.335,0.700
338,0.300,0.730
339,0.310,0.770
340,0.350,0.725
341,0.365,0.730
342,0.360,0.765
343,0.365,0.800
344,0.380,0.775
345,0.365,0.785
346,0.340,0.815
347,0.370,0.840
348,0.350,0.815
349,0.330,0.820
350,0.320,0.865
351,0.355,0.890
352,0.345,0.860
353,0.350,0.830
354,0.335,0.900
355,0.360,0.905
356,0.370,0.910
357,0.375,0.905
358,0.340,0.940
359,0.360,0.945
360,0.355,0.925
361,0.330,0.915
362,0.330,0.950
363,0.335,0.985
364,0.350,0.935
365,0.310,0.930
366,0.300,0.985
367,0.350,0.960
368,0.365,0.895
369,0.320,0.965
370,0.300,1.010
371,0.375,0.990
372,0.365,0.950
373,0.325,1.010
374,0.335,0.965
375,0.330,0.970
376,0.355,0.960
377,0.315,0.990
378,0.325,1.030
379,0.350,1.015
380,0.335,0.985
381,0.310,0.990
382,0.325,1.040
383,0.355,1.000
384,0.370,0.995
385,0.315,0.995
386,0.335,1.055
387,0.400,1.035
388,0.385,1.020
389,0.350,1.055
390,0.370,1.065
391,0.410,1.035
392,0.350,1.035
393,0.360,1.075
394,0.395,1.060
395,0.425,1.060
396,0.395,1.060
397,0.350,1.075
398,0.395,1.105
399,0.450,1.080
400,0.390,1.095
401,0.425,1.145
402,0.465,1.155
403,0.490,1.135
404,0.495,1.210
405,0.500,1.275
406,0.560,1.295
407,0.620,1.335
408,0.640,1.380
409,0.645,1.375
410,0.695,1.370
411,0.670,1.360
412,0.650,1.350
413,0.650,1.380
414,0.655,1.350
415,0.595,1.375
416,0.535,1.420
417,0.520,1.430
418,0.535,1.365
419,0.510,1.365
420,0.450,1.365
421,0.435,0.725
422,0.435,0.085
423,0.065,0.720
424,-0.575,1.355
425,-1.215,1.990
426,-0.580,2.625
427,0.055,3.260
428,0.690,3.895
429,1.325,4.530
430,1.710,5.165
431,1.625,5.420
432,1.550,5.015
433,1.480,4.625
434,1.355,4.000
435,1.255,3.625
436,1.160,3.260
437,1.080,2.665
438,0.985,2.065
439,0.805,1.475
440,0.725,1.025
441,0.660,0.590
442,0.545,0.065
443,0.375,-0.425
444,0.240,-0.715
445,0.020,-0.900
446,-0.205,-1.125
447,-0.385,-1.360
448,-0.595,-1.560
449,-0.840,-1.640
450,-1.050,-1.590
451,-1.195,-1.480
452,-1.190,-1.330
453,-1.020,-1.145
454,-0.835,-0.735
455,-0.750,-0.295
456,-0.665,0.120
457,-0.470,0.540
458,-0.315,1.030
459,-0.240,1.375
460,-0.010,1.650
461,0.320,1.825
462,0.470,1.830
463,0.525,1.860
464,0.605,1.855
465,0.700,1.925
466,0.695,2.015
467,0.705,1.970
468,0.755,1.890
469,0.750,1.940
470,0.750,1.960
471,0.775,1.925
472,0.795,1.960
473,0.805,2.005
474,0.810,2.015
475,0.820,2.035
476,0.855,2.050
477,0.855,2.035
478,0.845,2.045
479,0.895,2.060
480,0.895,2.085
481,0.845,2.090
482,0.875,2.225
483,0.935,2.245
484,0.950,2.255
485,0.940,2.345
486,1.030,2.355
487,1.105,2.340
488,1.100,2.355
489,1.055,2.435
490,1.105,2.505
491,1.110,2.555
492,1.130,2.635
493,1.200,2.680
494,1.285,2.660
495,1.345,2.655
496,1.355,2.800
497,1.365,2.930
498,1.410,2.945
499,1.485,2.900
500,1.545,2.920
501,1.630,2.985
502,1.605,3.005
503,1.595,3.065
504,1.660,3.085
505,1.760,3.035
506,1.890,2.960
507,1.805,2.990
508,1.755,2.990
509,1.785,3.005
510,1.900,2.950
511,1.950,2.855
512,1.780,2.795
513,1.710,2.790
514,1.795,2.780
515,1.850,2.660
516,1.690,2.570
517,1.600,2.455
518,1.580,2.315
519,1.480,2.210
520,1.395,2.130
521,1.410,2.015
522,1.365,1.885
523,1.260,1.780
524,1.165,1.710
525,1.125,1.610
526,1.055,1.485
527,0.930,1.430
528,0.905,1.350
529,0.875,1.250
530,0.805,1.180
531,0.745,1.140
532,0.770,1.140
533,0.755,1.045
534,0.680,1.035
535,0.665,1.050
536,0.685,1.060
537,0.715,0.965
538,0.660,0.960
539,0.650,0.995
540,0.705,0.995
541,0.685,0.985
542,0.650,0.980
543,0.640,1.025
544,0.680,1.005
545,0.690,1.005
546,0.660,1.020
547,0.650,1.025
548,0.645,1.040
549,0.695,1.025
550,0.665,1.035
551,0.630,1.105
552,0.695,1.095
553,0.725,1.080
554,0.645,1.090
555,0.670,1.135
556,0.750,1.090
557,0.725,1.070
558,0.665,1.095
559,0.680,1.160
560,0.730,1.135
561,0.730,1.100
562,0.700,1.170
563,0.710,1.200
564,0.760,1.130
565,0.735,1.150
566,0.690,1.155
567,0.720,1.155
568,0.755,1.170
569,0.765,1.165
570,0.730,1.160
571,0.700,1.150
572,0.730,1.140
573,0.685,1.120
574,0.670,1.160
575,0.700,1.120
576,0.700,1.070
577,0.695,1.110
578,0.695,1.095
579,0.715,1.045
580,0.685,1.025
581,0.645,1.055
582,0.700,1.075
583,0.725,1.045
584,0.730,1.025
585,0.725,1.085
586,0.745,1.115
587,0.790,1.150
588,0.805,1.190
589,0.845,1.215
590,0.905,1.235
591,0.945,1.210
592,0.935,1.195
593,0.890,1.250
594,0.910,1.240
595,0.910,1.210
596,0.875,1.205
597,0.785,1.230
598,0.725,1.245
599,0.740,1.220
600,0.730,1.165
601,0.685,1.160
602,0.675,1.165
603,0.680,1.165
604,0.625,1.130
605,0.595,1.130
606,0.645,1.125
607,0.675,1.060
608,0.630,1.040
609,0.565,1.080
610,0.605,1.115
611,0.690,1.080
612,0.660,1.055
613,0.655,0.975
614,0.645,0.895
615,0.630,0.840
616,0.635,0.880
617,0.685,0.895
618,0.640,0.860
619,0.605,0.835
620,0.595,0.910
621,0.635,0.960
622,0.635,0.890
623,0.630,0.875
624,0.595,0.935
625,0.635,1.025
626,0.685,1.080
627,0.700,1.095
628,0.725,1.090
629,0.805,1.025
630,0.780,0.915
631,0.740,0.750
632,0.685,0.735
633,0.580,0.795
634,0.555,0.855
635,0.495,1.025
636,0.460,1.130
637,0.460,1.025
638,0.515,0.740
639,0.530,0.480
640,0.535,0.435
641,0.530,0.560
642,0.575,0.840
643,0.615,1.270
644,0.785,1.555
645,1.080,1.450
646,1.385,1.055
647,1.600,0.775
648,1.850,0.505
649,2.245,0.145
650,2.525,-0.235
651,2.570,-0.440
652,2.915,-0.430
653,3.270,-0.410
654,3.110,-0.245
655,3.040,-0.055
656,2.795,0.080
657,2.355,0.240
658,2.050,0.410
659,1.640,0.640
660,1.270,0.780
661,1.070,0.820
662,0.925,0.860
663,0.810,0.925
664,0.785,0.930
665,0.785,0.935
666,0.740,0.980
667,0.700,1.015
668,0.680,0.990
669,0.655,0.985
670,0.625,1.030
671,0.580,1.070
672,0.560,1.060
673,0.570,1.050
674,0.560,1.050
675,0.535,1.090
676,0.535,1.060
677,0.535,1.045
678,0.510,1.055
679,0.475,1.095
680,0.490,1.070
681,0.510,1.070
682,0.470,1.060
683,0.495,1.100
684,0.505,1.085
685,0.510,1.040
686,0.460,1.030
687,0.420,1.080
688,0.440,1.040
689,0.460,1.025
690,0.395,1.010
691,0.380,1.095
692,0.395,1.050
693,0.370,1.025
694,0.330,1.020
695,0.305,1.035
696,0.315,1.025
697,0.275,0.990
698,0.255,1.010
699,0.245,1.060
700,0.255,1.025
701,0.230,0.990
702,0.230,1.005
703,0.175,1.025
704,0.175,0.995
705,0.150,1.010
706,0.135,1.000
707,0.130,1.015
708,0.145,1.050
709,0.180,1.010
710,0.175,0.990
711,0.130,0.990
712,0.175,0.975
713,0.215,0.960
714,0.200,0.960
715,0.200,1.040
716,0.280,1.020
717,0.310,0.985
718,0.340,1.015
719,0.380,1.050
720,0.440,1.050
721,0.475,1.000
722,0.485,1.100
723,0.550,1.110
724,0.575,1.055
725,0.615,1.075
726,0.595,1.110
727,0.625,1.120
728,0.670,1.080
729,0.660,1.060
730,0.660,1.060
731,0.630,1.075
732,0.640,1.100
733,0.705,1.075
734,0.680,1.090
735,0.650,1.095
736,0.665,1.090
737,0.680,1.085
738,0.675,1.125
739,0.650,1.110
740,0.680,1.120
741,0.720,1.100
742,0.670,1.100
743,0.640,1.120
744,0.680,1.125
745,0.715,1.075
746,0.695,1.105
747,0.660,1.160
748,0.720,1.135
749,0.720,1.115
750,0.695,1.150
751,0.690,1.175
752,0.700,1.135
753,0.720,1.090
754,0.695,1.095
755,0.685,1.170
756,0.725,1.160
757,0.735,1.115
758,0.655,1.150
759,0.620,1.190
760,0.720,1.185
761,0.775,1.140
762,0.715,1.090
763,0.630,1.140
764,0.655,1.115
765,0.750,1.175
766,0.740,1.210
767,0.680,1.185
768,0.665,1.150
769,0.675,1.150
770,0.670,1.175
771,0.680,1.165
772,0.685,1.145
773,0.735,1.150
774,0.710,1.170
775,0.720,1.250
776,0.740,1.275
777,0.790,1.290
778,0.830,1.355
779,0.845,1.380
780,0.905,1.380
781,0.905,1.350
782,0.885,1.360
783,0.900,1.395
784,0.930,1.385
785,0.935,1.365
786,0.840,1.375
787,0.780,1.415
788,0.740,1.395
789,0.705,1.325
790,0.685,1.330
791,0.650,1.315
792,0.645,1.295
793,0.600,1.280
794,0.550,1.320
795,0.585,1.315
796,0.625,1.230
797,0.600,1.220
798,0.555,1.230
799,0.580,1.250
800,0.595,1.215
801,0.605,1.165
802,0.580,1.165
803,0.585,1.135
804,0.635,1.090
805,0.630,1.035
806,0.580,1.015
807,0.560,1.010
808,0.580,1.030
809,0.580,1.000
810,0.545,1.015
811,0.535,1.065
812,0.570,1.030
813,0.560,1.050
814,0.535,1.060
815,0.530,1.145
816,0.580,1.210
817,0.605,1.205
818,0.620,1.235
819,0.665,1.160
820,0.645,1.075
821,0.615,0.900
822,0.525,0.795
823,0.465,0.870
824,0.395,0.900
825,0.325,1.015
826,0.300,1.175
827,0.295,1.185
828,0.295,0.935
829,0.360,0.605
830,0.350,0.510
831,0.355,0.535
832,0.380,0.705
833,0.410,1.080
834,0.475,1.500
835,0.710,1.580
836,1.040,1.375
837,1.375,1.020
838,1.600,0.800
839,1.835,0.570
840,2.140,0.175
841,2.335,-0.265
842,2.565,-0.390
843,2.895,-0.335
844,3.155,-0.295
845,3.080,-0.190
846,2.855,-0.035
847,2.650,0.150
848,2.380,0.305
849,1.980,0.515
850,1.500,0.760
851,1.155,0.885
852,0.975,0.955
853,0.810,1.015
854,0.695,1.080
855,0.680,1.080
856,0.665,1.085
857,0.635,1.110
858,0.595,1.180
859,0.575,1.120
860,0.535,1.140
861,0.465,1.185
862,0.465,1.190
863,0.460,1.210
864,0.490,1.190
865,0.485,1.230
866,0.455,1.240
867,0.455,1.205
868,0.460,1.195
869,0.420,1.225
870,0.410,1.240
871,0.450,1.210
872,0.430,1.195
873,0.360,1.175
874,0.340,1.165
875,0.390,1.205
876,0.415,1.180
877,0.395,1.155
878,0.345,1.165
879,0.355,1.185
880,0.360,1.150
881,0.310,1.155
882,0.280,1.195
883,0.295,1.165
884,0.290,1.115
885,0.230,1.150
886,0.190,1.175
887,0.215,1.145
888,0.185,1.125
889,0.165,1.160
890,0.175,1.175
891,0.195,1.175
892,0.170,1.170
893,0.100,1.145
894,0.115,1.180
895,0.110,1.165
896,0.060,1.155
897,0.050,1.200
898,0.065,1.185
899,0.095,1.105
900,0.105,1.105
901,0.080,1.150
902,0.065,1.140
903,0.095,1.125
904,0.115,1.160
905,0.125,1.175
906,0.175,1.185
907,0.255,1.180
908,0.305,1.145
909,0.305,1.180
910,0.345,1.215
911,0.395,1.195
912,0.385,1.190
913,0.475,1.200
914,0.525,1.235
915,0.485,1.215
916,0.575,1.180
917,0.610,1.175
918,0.570,1.140
919,0.600,1.120
920,0.675,1.145
921,0.650,1.195
922,0.635,1.195
923,0.615,1.160
924,0.670,1.175
925,0.690,1.160
926,0.690,1.135
927,0.700,1.140
928,0.675,1.120
929,0.630,1.165
930,0.630,1.175
931,0.690,1.145
932,0.675,1.190
933,0.635,1.195
934,0.670,1.200
935,0.710,1.180
936,0.660,1.175
937,0.665,1.190
938,0.690,1.175
939,0.695,1.170
940,0.660,1.135
941,0.635,1.150
942,0.670,1.165
943,0.695,1.080
944,0.665,1.145
945,0.655,1.185
946,0.705,1.155
947,0.695,1.130
948,0.665,1.145
949,0.700,1.185
950,0.720,1.160
951,0.695,1.145
952,0.720,1.190
953,0.690,1.195
954,0.710,1.170
955,0.725,1.130
956,0.705,1.190
957,0.710,1.175
958,0.725,1.160
959,0.710,1.165
960,0.695,1.130
961,0.695,1.145
962,0.710,1.135
963,0.720,1.095
964,0.675,1.160
965,0.675,1.185
966,0.700,1.160
967,0.725,1.165
968,0.710,1.240
969,0.705,1.250
970,0.765,1.265
971,0.815,1.340
972,0.835,1.345
973,0.835,1.370
974,0.885,1.330
975,0.875,1.305
976,0.825,1.345
977,0.850,1.315
978,0.855,1.305
979,0.810,1.315
980,0.725,1.345
981,0.695,1.360
982,0.725,1.345
983,0.690,1.310
984,0.645,1.325
985,0.650,1.300
986,0.660,1.295
987,0.635,1.310
988,0.580,1.305
989,0.625,1.255
990,0.650,1.195
991,0.605,1.240
992,0.585,1.245
993,0.610,1.235
994,0.630,1.215
995,0.600,1.190
996,0.615,1.160
997,0.650,1.075
998,0.660,1.050
999,0.640,1.065
1000,0.615,1.050
1001,0.620,1.025
1002,0.595,1.035
1003,0.585,1.025
1004,0.575,1.040
1005,0.590,1.045
1006,0.590,1.050
1007,0.530,1.085
1008,0.535,1.170
1009,0.570,1.190
1010,0.630,1.190
1011,0.670,1.175
1012,0.685,1.060
1013,0.670,0.975
1014,0.620,0.845
1015,0.520,0.885
1016,0.445,1.010
1017,0.380,1.070
1018,0.325,1.220
1019,0.270,1.260
1020,0.285,1.055
1021,0.385,0.780
1022,0.385,0.450
1023,0.360,0.375
1024,0.380,0.520
1025,0.400,0.875
1026,0.465,1.350
1027,0.650,1.575
1028,0.945,1.395
1029,1.240,1.060
1030,1.515,0.845
1031,1.755,0.610
1032,2.005,0.260
1033,2.250,-0.175
1034,2.455,-0.445
1035,2.735,-0.500
1036,3.015,-0.440
1037,2.985,-0.340
1038,2.785,-0.160
1039,2.565,0.005
1040,2.320,0.155
1041,2.015,0.445
1042,1.555,0.695
1043,1.215,0.860
1044,1.045,0.930
1045,0.870,0.990
1046,0.755,1.075
1047,0.705,1.095
1048,0.640,1.090
1049,0.625,1.115
1050,0.605,1.130
1051,0.610,1.155
1052,0.595,1.125
1053,0.545,1.135
1054,0.515,1.190
1055,0.535,1.190
1056,0.535,1.195
1057,0.475,1.165
1058,0.460,1.225
1059,0.470,1.220
1060,0.470,1.170
1061,0.400,1.175
1062,0.375,1.195
1063,0.455,1.210
1064,0.500,1.180
1065,0.415,1.190
1066,0.340,1.205
1067,0.430,1.195
1068,0.455,1.205
1069,0.305,1.240
1070,0.340,1.170
1071,0.440,1.130
1072,0.295,1.105
1073,0.265,1.125
1074,0.350,1.145
1075,0.345,1.080
1076,0.285,1.070
1077,0.240,1.115
1078,0.230,1.170
1079,0.260,1.110
1080,0.235,1.120
1081,0.215,1.150
1082,0.210,1.130
1083,0.210,1.115
1084,0.190,1.150
1085,0.150,1.160
1086,0.180,1.115
1087,0.185,1.085
1088,0.115,1.110
1089,0.090,1.115
1090,0.130,1.120
1091,0.115,1.100
1092,0.115,1.075
1093,0.110,1.095
1094,0.170,1.100
1095,0.185,1.075
1096,0.175,1.110
1097,0.170,1.130
1098,0.275,1.095
1099,0.325,1.125
1100,0.350,1.135
1101,0.390,1.140
1102,0.430,1.110
1103,0.490,1.115
1104,0.500,1.135
1105,0.535,1.135
1106,0.595,1.095
1107,0.620,1.125
1108,0.580,1.130
1109,0.600,1.115
1110,0.670,1.085
1111,0.660,1.105
1112,0.645,1.145
1113,0.660,1.150
1114,0.680,1.100
1115,0.680,1.110
1116,0.645,1.160
1117,0.650,1.125
1118,0.740,1.130
1119,0.725,1.135
1120,0.685,1.145
1121,0.685,1.140
1122,0.735,1.130
1123,0.740,1.145
1124,0.670,1.145
1125,0.700,1.160
1126,0.755,1.145
1127,0.715,1.140
1128,0.690,1.175
1129,0.725,1.160
1130,0.725,1.130
1131,0.685,1.150
1132,0.700,1.185
1133,0.755,1.195
1134,0.740,1.135
1135,0.690,1.170
1136,0.700,1.215
1137,0.725,1.165
1138,0.730,1.170
1139,0.720,1.210
1140,0.725,1.235
1141,0.735,1.175
1142,0.730,1.200
1143,0.715,1.240
1144,0.720,1.250
1145,0.715,1.230
1146,0.735,1.235
1147,0.735,1.260
1148,0.690,1.210
1149,0.715,1.205
1150,0.725,1.225
1151,0.715,1.255
1152,0.735,1.230
1153,0.725,1.220
1154,0.730,1.230
1155,0.710,1.255
1156,0.725,1.265
1157,0.725,1.255
1158,0.715,1.210
1159,0.695,1.230
1160,0.715,1.300
1161,0.760,1.245
1162,0.720,1.275
1163,0.710,1.325
1164,0.730,1.275
1165,0.750,1.280
1166,0.710,1.345
1167,0.725,1.420
1168,0.785,1.450
1169,0.825,1.415
1170,0.855,1.490
1171,0.870,1.520
1172,0.895,1.465
1173,0.905,1.470
1174,0.880,1.500
1175,0.900,1.495
1176,0.860,1.435
1177,0.785,1.465
1178,0.730,1.505
1179,0.695,1.530
1180,0.715,1.490
1181,0.710,1.435
1182,0.665,1.455
1183,0.625,1.470
1184,0.615,1.445
1185,0.595,1.450
1186,0.600,1.470
1187,0.635,1.430
1188,0.640,1.405
1189,0.615,1.400
1190,0.615,1.430
1191,0.625,1.380
1192,0.645,1.305
1193,0.620,1.255
1194,0.620,1.270
1195,0.625,1.205
1196,0.610,1.170
1197,0.605,1.180
1198,0.585,1.185
1199,0.590,1.160
1200,0.585,1.160
1201,0.575,1.180
1202,0.550,1.180
1203,0.590,1.185
1204,0.570,1.195
1205,0.545,1.315
1206,0.585,1.395
1207,0.640,1.340
1208,0.685,1.290
1209,0.670,1.260
1210,0.645,1.170
1211,0.630,1.010
1212,0.555,0.975
1213,0.455,1.055
1214,0.420,1.110
1215,0.435,1.205
1216,0.425,1.225
1217,0.330,1.095
1218,0.290,0.835
1219,0.395,0.575
1220,0.475,0.540
1221,0.375,0.730
1222,0.320,1.040
1223,0.505,1.485
1224,0.730,1.710
1225,0.905,1.500
1226,1.165,1.175
1227,1.495,0.985
1228,1.700,0.730
1229,1.865,0.415
1230,2.150,0.085
1231,2.500,-0.160
1232,2.665,-0.270
1233,2.720,-0.210
1234,2.870,-0.085
1235,2.880,0.070
1236,2.560,0.280
1237,2.200,0.455
1238,1.875,0.610
1239,1.430,0.805
1240,1.095,1.000
1241,0.945,1.090
1242,0.885,1.115
1243,0.810,1.150
1244,0.705,1.235
1245,0.655,1.270
1246,0.665,1.260
1247,0.605,1.270
1248,0.530,1.290
1249,0.530,1.305
1250,0.510,1.280
1251,0.510,1.310
1252,0.480,1.340
1253,0.460,1.335
1254,0.480,1.325
1255,0.495,1.315
1256,0.450,1.330
1257,0.425,1.355
1258,0.490,1.320
1259,0.480,1.310
1260,0.420,1.305
1261,0.435,1.315
1262,0.480,1.305
1263,0.400,1.280
1264,0.350,1.300
1265,0.370,1.290
1266,0.395,1.280
1267,0.365,1.265
1268,0.335,1.290
1269,0.320,1.285
1270,0.380,1.250
1271,0.350,1.240
1272,0.280,1.250
1273,0.310,1.245
1274,0.320,1.245
1275,0.305,1.240
1276,0.255,1.225
1277,0.250,1.245
1278,0.275,1.180
1279,0.215,1.195
1280,0.185,1.250
1281,0.195,1.215
1282,0.215,1.225
1283,0.170,1.220
1284,0.130,1.235
1285,0.165,1.205
1286,0.160,1.155
1287,0.095,1.205
1288,0.115,1.210
1289,0.150,1.190
1290,0.160,1.135
1291,0.155,1.180
1292,0.145,1.180
1293,0.175,1.145
1294,0.235,1.155
1295,0.250,1.165
1296,0.280,1.160
1297,0.335,1.165
1298,0.355,1.135
1299,0.350,1.150
1300,0.395,1.185
1301,0.455,1.150
1302,0.480,1.155
1303,0.510,1.210
1304,0.485,1.155
1305,0.550,1.155
1306,0.545,1.130
1307,0.560,1.185
1308,0.570,1.160
1309,0.575,1.135
1310,0.595,1.155
1311,0.570,1.145
1312,0.555,1.140
1313,0.600,1.140
1314,0.605,1.120
1315,0.570,1.115
1316,0.595,1.135
1317,0.610,1.105
1318,0.595,1.110
1319,0.555,1.150
1320,0.575,1.140
1321,0.640,1.120
1322,0.610,1.120
1323,0.575,1.115
1324,0.590,1.080
1325,0.595,1.075
1326,0.580,1.090
1327,0.565,1.120
1328,0.615,1.125
1329,0.605,1.075
1330,0.600,1.095
1331,0.590,1.135
1332,0.595,1.085
1333,0.610,1.105
1334,0.615,1.080
1335,0.585,1.115
1336,0.595,1.100
1337,0.595,1.090
1338,0.605,1.115
1339,0.585,1.120
1340,0.580,1.060
1341,0.605,1.055
1342,0.600,1.095
1343,0.590,1.095
1344,0.620,1.085
1345,0.635,1.075
1346,0.580,1.065
1347,0.590,1.110
1348,0.610,1.070
1349,0.600,1.055
1350,0.570,1.100
1351,0.600,1.115
1352,0.620,1.090
1353,0.620,1.065
1354,0.570,1.095
1355,0.580,1.145
1356,0.605,1.075
1357,0.595,1.055
1358,0.600,1.095
1359,0.595,1.090
1360,0.610,1.050
1361,0.595,1.045
1362,0.545,1.120
1363,0.575,1.095
1364,0.660,1.095
1365,0.680,1.110
1366,0.690,1.185
1367,0.675,1.295
1368,0.685,1.310
1369,0.785,1.215
1370,0.805,1.230
1371,0.795,1.310
1372,0.775,1.305
1373,0.740,1.300
1374,0.805,1.305
1375,0.810,1.275
1376,0.765,1.215
1377,0.695,1.225
1378,0.635,1.255
1379,0.605,1.235
1380,0.630,1.185
1381,0.640,1.200
1382,0.575,1.170
1383,0.535,1.175
1384,0.530,1.165
1385,0.510,1.135
1386,0.505,1.160
1387,0.540,1.115
1388,0.545,1.105
1389,0.510,1.110
1390,0.510,1.125
1391,0.555,1.125
1392,0.605,1.075
1393,0.605,1.030
1394,0.585,0.975
1395,0.565,0.925
1396,0.545,0.880
1397,0.495,0.895
1398,0.480,0.900
1399,0.475,0.880
1400,0.490,0.870
1401,0.510,0.875
1402,0.515,0.895
1403,0.535,0.900
1404,0.555,0.880
1405,0.515,0.975
1406,0.460,1.080
1407,0.505,1.065
1408,0.580,1.025
1409,0.610,1.020
1410,0.630,0.980
1411,0.625,0.820
1412,0.590,0.665
1413,0.475,0.680
1414,0.375,0.785
1415,0.350,0.855
1416,0.335,0.965
1417,0.285,0.985
1418,0.275,0.805
1419,0.375,0.530
1420,0.425,0.315
1421,0.405,0.335
1422,0.355,0.570
1423,0.385,0.825
1424,0.510,1.145
1425,0.650,1.385
1426,0.850,1.280
1427,1.180,0.920
1428,1.495,0.635
1429,1.755,0.320
1430,1.985,-0.040
1431,2.175,-0.405
1432,2.385,-0.645
1433,2.630,-0.635
1434,2.935,-0.520
1435,2.800,-0.385
1436,2.560,-0.280
1437,2.390,-0.045
1438,2.185,0.135
1439,1.740,0.310
1440,1.265,0.460
1441,0.960,0.660
1442,0.820,0.760
1443,0.745,0.815
1444,0.675,0.810
1445,0.570,0.870
1446,0.570,0.935
1447,0.585,0.925
1448,0.540,0.935
1449,0.480,0.940
1450,0.470,0.970
1451,0.490,0.985
1452,0.460,0.940
1453,0.400,0.975
1454,0.420,1.005
1455,0.440,0.975
1456,0.400,0.960
1457,0.355,0.980
1458,0.360,0.975
1459,0.415,0.980
1460,0.355,0.940
1461,0.315,0.995
1462,0.340,1.020
1463,0.365,1.000
1464,0.340,0.980
1465,0.305,0.995
1466,0.310,1.025
1467,0.335,0.955
1468,0.270,0.950
1469,0.275,0.995
1470,0.325,0.980
1471,0.325,0.955
1472,0.265,0.930
1473,0.240,0.975
1474,0.305,0.985
1475,0.275,0.890
1476,0.200,0.905
1477,0.200,0.935
1478,0.185,0.920
1479,0.170,0.875
1480,0.155,0.920
1481,0.145,0.900
1482,0.125,0.870
1483,0.140,0.890
1484,0.115,0.885
1485,0.075,0.885
1486,0.090,0.885
1487,0.105,0.885
1488,0.075,0.855
1489,0.060,0.870
1490,0.105,0.865
1491,0.100,0.825
1492,0.100,0.830
1493,0.090,0.870
1494,0.165,0.840
1495,0.165,0.845
1496,0.185,0.845
1497,0.200,0.900
1498,0.290,0.875
1499,0.320,0.865
1500,0.320,0.890
1501,0.340,0.915
1502,0.380,0.920
1503,0.430,0.915
1504,0.450,0.940
1505,0.470,0.880
1506,0.530,0.880
1507,0.535,0.855
1508,0.510,0.875
1509,0.465,0.860
1510,0.480,0.865
1511,0.545,0.840
1512,0.565,0.790
1513,0.500,0.870
1514,0.515,0.955
1515,0.595,0.910
1516,0.565,0.830
1517,0.495,0.880
1518,0.545,0.870
1519,0.550,0.885
1520,0.520,0.945
1521,0.545,0.940
1522,0.595,0.915
1523,0.530,0.895
1524,0.495,0.915
1525,0.535,0.915
1526,0.575,0.865
1527,0.575,0.900
1528,0.560,0.925
1529,0.570,0.900
1530,0.590,0.860
1531,0.555,0.910
1532,0.515,0.925
1533,0.525,0.890
1534,0.520,0.895
1535,0.525,0.920
1536,0.500,0.955
1537,0.545,0.925
1538,0.580,0.870
1539,0.555,0.910
1540,0.550,0.935
1541,0.580,0.915
1542,0.555,0.845
1543,0.500,0.920
1544,0.495,0.960
1545,0.550,0.930
1546,0.545,0.910
1547,0.515,0.930
1548,0.560,0.940
1549,0.610,0.885
1550,0.585,0.880
1551,0.525,0.940
1552,0.475,0.890
1553,0.510,0.870
1554,0.505,0.870
1555,0.475,0.905
1556,0.550,0.895
1557,0.575,0.845
1558,0.555,0.845
1559,0.445,0.870
1560,0.470,0.895
1561,0.470,0.840
1562,0.480,0.865
1563,0.470,0.885
1564,0.525,0.850
1565,0.580,0.855
1566,0.550,0.880
1567,0.500,0.935
1568,0.525,0.915
1569,0.555,0.940
1570,0.545,1.025
1571,0.590,1.085
1572,0.625,1.095
1573,0.695,1.055
1574,0.740,1.095
1575,0.725,1.125
1576,0.785,1.115
1577,0.775,1.055
1578,0.720,1.085
1579,0.680,1.105
1580,0.655,1.070
1581,0.575,1.070
1582,0.525,1.070
1583,0.520,1.055
1584,0.535,0.975
1585,0.475,0.950
1586,0.435,0.980
1587,0.410,1.000
1588,0.445,0.935
1589,0.395,0.880
1590,0.415,0.935
1591,0.425,0.930
1592,0.450,0.890
1593,0.430,0.915
1594,0.405,0.915
1595,0.450,0.875
1596,0.460,0.795
1597,0.415,0.770
1598,0.425,0.770
1599,0.460,0.730
1600,0.400,0.710
1601,0.360,0.720
1602,0.370,0.780
1603,0.405,0.720
1604,0.390,0.695
1605,0.350,0.765
1606,0.395,0.760
1607,0.400,0.755
1608,0.390,0.810
1609,0.400,0.940
1610,0.425,0.955
1611,0.470,0.915
1612,0.540,0.860
1613,0.465,0.740
1614,0.410,0.585
1615,0.400,0.540
1616,0.335,0.650
1617,0.270,0.770
1618,0.235,0.930
1619,0.250,0.930
1620,0.220,0.780
1621,0.250,0.495
1622,0.295,0.300
1623,0.320,0.250
1624,0.285,0.455
1625,0.275,0.835
1626,0.365,1.110
1627,0.595,1.275
1628,0.835,1.135
1629,1.090,0.835
1630,1.360,0.570
1631,1.625,0.285
1632,1.875,-0.165
1633,2.130,-0.525
1634,2.435,-0.660
1635,2.575,-0.710
1636,2.665,-0.595
1637,2.745,-0.400
1638,2.570,-0.295
1639,2.165,-0.105
1640,1.875,0.130
1641,1.590,0.350
1642,1.175,0.440
1643,0.910,0.615
1644,0.740,0.730
1645,0.645,0.770
1646,0.575,0.760
1647,0.535,0.780
1648,0.465,0.825
1649,0.455,0.860
1650,0.445,0.825
1651,0.400,0.850
1652,0.360,0.885
1653,0.330,0.870
1654,0.335,0.860
1655,0.330,0.910
1656,0.320,0.975
1657,0.315,0.905
1658,0.330,0.875
1659,0.280,0.920
1660,0.285,0.965
1661,0.310,0.900
1662,0.270,0.910
1663,0.255,0.935
1664,0.215,0.935
1665,0.200,0.860
1666,0.215,0.890
1667,0.270,0.985
1668,0.200,1.025
1669,0.140,0.895
1670,0.200,0.835
1671,0.210,0.880
1672,0.155,0.920
1673,0.125,0.915
1674,0.145,0.875
1675,0.165,0.920
1676,0.155,0.870
1677,0.175,0.840
1678,0.130,0.840
1679,0.075,0.880
1680,0.095,0.850
1681,0.090,0.835
1682,0.045,0.815
1683,-0.005,0.845
1684,0.005,0.865
1685,-0.005,0.830
1686,0.010,0.885
1687,-0.010,0.910
1688,0.005,0.840
1689,0.020,0.830
1690,-0.030,0.845
1691,-0.030,0.860
1692,0.000,0.840
1693,0.040,0.840
1694,0.040,0.875
1695,0.035,0.875
1696,0.115,0.880
1697,0.115,0.855
1698,0.115,0.895
1699,0.130,0.885
1700,0.205,0.905
1701,0.240,0.890
1702,0.220,0.875
1703,0.240,0.905
1704,0.310,0.850
1705,0.340,0.880
1706,0.355,0.890
1707,0.405,0.890
1708,0.470,0.885
1709,0.470,0.920
1710,0.400,0.895
1711,0.415,0.895
1712,0.450,0.895
1713,0.410,0.890
1714,0.435,0.930
1715,0.515,0.915
1716,0.530,0.880
1717,0.485,0.890
1718,0.440,0.910
1719,0.445,0.885
1720,0.455,0.865
1721,0.415,0.885
1722,0.425,0.860
1723,0.445,0.855
1724,0.450,0.865
1725,0.465,0.895
1726,0.460,0.905
1727,0.465,0.840
1728,0.460,0.860
1729,0.430,0.895
1730,0.415,0.895
1731,0.410,0.840
1732,0.415,0.885
1733,0.390,0.910
1734,0.390,0.890
1735,0.420,0.845
1736,0.410,0.880
1737,0.395,0.940
1738,0.425,0.890
1739,0.430,0.850
1740,0.405,0.925
1741,0.415,0.975
1742,0.445,0.935
1743,0.435,0.885
1744,0.430,0.925
1745,0.420,0.950
1746,0.435,0.895
1747,0.460,0.925
1748,0.445,0.945
1749,0.425,0.935
1750,0.450,0.885
1751,0.450,0.905
1752,0.435,0.935
1753,0.420,0.910
1754,0.430,0.845
1755,0.420,0.865
1756,0.405,0.940
1757,0.425,0.920
1758,0.420,0.870
1759,0.380,0.870
1760,0.380,0.905
1761,0.390,0.895
1762,0.400,0.855
1763,0.370,0.875
1764,0.355,0.900
1765,0.380,0.895
1766,0.370,0.845
1767,0.350,0.890
1768,0.320,0.895
1769,0.375,0.910
1770,0.420,0.910
1771,0.390,0.935
1772,0.370,1.025
1773,0.470,1.070
1774,0.510,1.080
1775,0.545,1.140
1776,0.555,1.130
1777,0.580,1.115
1778,0.595,1.105
1779,0.550,1.145
1780,0.575,1.095
1781,0.555,1.050
1782,0.515,1.095
1783,0.445,1.140
1784,0.380,1.160
1785,0.375,1.095
1786,0.395,1.070
1787,0.385,1.065
1788,0.330,1.015
1789,0.290,1.020
1790,0.280,1.010
1791,0.235,1.000
1792,0.270,0.970
1793,0.280,0.920
1794,0.275,0.940
1795,0.215,0.955
1796,0.235,0.940
1797,0.285,0.875
1798,0.265,0.885
1799,0.260,0.825
1800,0.290,0.760
1801,0.285,0.755
1802,0.215,0.730
1803,0.215,0.775
1804,0.225,0.700
1805,0.205,0.640
1806,0.185,0.715
1807,0.190,0.735
1808,0.215,0.710
1809,0.175,0.700
1810,0.200,0.815
1811,0.225,0.885
1812,0.275,0.885
1813,0.275,0.890
1814,0.285,0.910
1815,0.295,0.825
1816,0.310,0.600
1817,0.260,0.445
1818,0.135,0.505
1819,-0.010,0.585
1820,0.055,0.740
1821,0.065,0.965
1822,-0.035,0.850
1823,-0.065,0.620
1824,0.015,0.345
1825,0.020,0.220
1826,0.015,0.330
1827,0.045,0.550
1828,0.105,0.835
1829,0.225,1.180
1830,0.445,1.235
1831,0.770,0.980
1832,1.115,0.660
1833,1.405,0.410
1834,1.635,0.140
1835,1.860,-0.265
1836,2.145,-0.575
1837,2.445,-0.700
1838,2.710,-0.635
1839,2.715,-0.585
1840,2.690,-0.465
1841,2.465,-0.230
1842,2.020,-0.055
1843,1.740,0.115
1844,1.330,0.280
1845,0.910,0.495
1846,0.690,0.620
1847,0.545,0.640
1848,0.395,0.680
1849,0.310,0.745
1850,0.225,0.740
1851,0.235,0.745
1852,0.235,0.795
1853,0.205,0.825
1854,0.210,0.860
1855,0.235,0.835
1856,0.200,0.835
1857,0.120,0.880
1858,0.105,0.900
1859,0.105,0.880
1860,0.090,0.850
1861,0.045,0.860
1862,0.075,0.890
1863,0.105,0.885
1864,0.080,0.865
1865,0.040,0.890
1866,0.055,0.880
1867,0.045,0.825
1868,-0.005,0.825
1869,-0.040,0.890
1870,-0.035,0.885
1871,0.010,0.830
1872,-0.045,0.815
1873,-0.040,0.875
1874,-0.065,0.845
1875,-0.085,0.810
1876,-0.085,0.825
1877,-0.115,0.815
1878,-0.115,0.805
1879,-0.100,0.800
1880,-0.120,0.760
1881,-0.150,0.795
1882,-0.140,0.790
1883,-0.135,0.800
1884,-0.160,0.785
1885,-0.220,0.780
1886,-0.210,0.840
1887,-0.205,0.770
1888,-0.240,0.770
1889,-0.270,0.795
1890,-0.245,0.820
1891,-0.235,0.765
1892,-0.260,0.775
1893,-0.275,0.795
1894,-0.245,0.790
1895,-0.230,0.745
1896,-0.230,0.745
1897,-0.260,0.780
1898,-0.220,0.750
1899,-0.165,0.735
1900,-0.150,0.760
1901,-0.155,0.785
1902,-0.120,0.760
1903,-0.050,0.775
1904,-0.025,0.785
1905,-0.010,0.775
1906,0.045,0.795
1907,0.105,0.775
1908,0.140,0.790
1909,0.110,0.785
1910,0.155,0.810
1911,0.220,0.800
1912,0.190,0.785
1913,0.170,0.785
1914,0.210,0.820
1915,0.260,0.805
1916,0.260,0.765
1917,0.255,0.805
1918,0.290,0.790
1919,0.325,0.790
1920,0.290,0.755
1921,0.265,0.820
1922,0.315,0.825
1923,0.330,0.775
1924,0.295,0.780
1925,0.290,0.825
1926,0.320,0.800
1927,0.330,0.775
1928,0.310,0.770
1929,0.280,0.830
1930,0.290,0.820
1931,0.315,0.790
1932,0.290,0.795
1933,0.290,0.825
1934,0.300,0.810
1935,0.315,0.765
1936,0.285,0.790
1937,0.260,0.805
1938,0.270,0.805
1939,0.285,0.785
1940,0.305,0.800
1941,0.285,0.830
1942,0.265,0.820
1943,0.295,0.770
1944,0.290,0.820
1945,0.260,0.810
1946,0.295,0.830
1947,0.350,0.805
1948,0.275,0.805
1949,0.290,0.860
1950,0.315,0.845
1951,0.335,0.800
1952,0.290,0.785
1953,0.310,0.830
1954,0.335,0.830
1955,0.335,0.800
1956,0.275,0.775
1957,0.295,0.830
1958,0.325,0.805
1959,0.330,0.765
1960,0.290,0.805
1961,0.270,0.795
1962,0.330,0.785
1963,0.305,0.770
1964,0.270,0.810
1965,0.230,0.820
1966,0.270,0.805
1967,0.335,0.765
1968,0.355,0.780
1969,0.275,0.850
1970,0.240,0.840
1971,0.295,0.700
1972,0.315,0.670
1973,0.265,0.735
1974,0.250,0.735
1975,0.260,0.770
1976,0.265,0.770
1977,0.250,0.780
1978,0.260,0.750
1979,0.285,0.750
1980,0.290,0.775
1981,0.260,0.800
1982,0.280,0.795
1983,0.310,0.760
1984,0.310,0.815
1985,0.335,0.885
1986,0.400,0.940
1987,0.475,0.965
1988,0.500,0.930
1989,0.505,0.995
1990,0.520,0.965
1991,0.510,0.960
1992,0.490,0.965
1993,0.455,0.975
1994,0.500,0.955
1995,0.445,0.930
1996,0.380,0.990
1997,0.295,1.000
1998,0.330,0.965
1999,0.345,0.920
2000,0.280,0.900
2001,0.255,0.895
2002,0.270,0.905
2003,0.210,0.900
2004,0.155,0.870
2005,0.175,0.880
2006,0.230,0.855
2007,0.205,0.780
2008,0.180,0.835
2009,0.200,0.860
2010,0.245,0.800
2011,0.270,0.710
2012,0.275,0.705
2013,0.270,0.670
2014,0.265,0.630
2015,0.230,0.615
2016,0.175,0.640
2017,0.165,0.640
2018,0.150,0.625
2019,0.175,0.615
2020,0.155,0.630
2021,0.175,0.700
2022,0.220,0.635
2023,0.230,0.635
2024,0.245,0.765
2025,0.260,0.830
2026,0.360,0.765
2027,0.390,0.755
2028,0.350,0.725
2029,0.335,0.620
2030,0.330,0.440
2031,0.215,0.375
2032,0.135,0.500
2033,0.070,0.545
2034,0.040,0.695
2035,0.030,0.780
2036,-0.025,0.645
2037,0.000,0.370
2038,0.055,0.125
2039,0.045,-0.035
2040,0.015,0.120
2041,0.050,0.425
2042,0.150,0.790
2043,0.325,1.055
2044,0.500,1.045
2045,0.840,0.805
2046,1.175,0.510
2047,1.390,0.270
2048,1.605,-0.020
2049,1.845,-0.365
2050,2.160,-0.660
2051,2.460,-0.805
2052,2.635,-0.750
2053,2.650,-0.640
2054,2.535,-0.550
2055,2.385,-0.350
2056,2.115,-0.110
2057,1.815,0.040
2058,1.390,0.180
2059,0.955,0.370
2060,0.750,0.525
2061,0.620,0.540
2062,0.535,0.555
2063,0.430,0.585
2064,0.365,0.635
2065,0.360,0.655
2066,0.350,0.660
2067,0.250,0.645
2068,0.230,0.680
2069,0.235,0.690
2070,0.220,0.670
2071,0.185,0.735
2072,0.185,0.745
2073,0.180,0.755
2074,0.140,0.705
2075,0.135,0.795
2076,0.160,0.795
2077,0.155,0.770
2078,0.155,0.775
2079,0.120,0.745
2080,0.095,0.755
2081,0.115,0.740
2082,0.120,0.725
2083,0.095,0.710
2084,0.090,0.755
2085,0.110,0.715
2086,0.115,0.700
2087,0.045,0.715
2088,0.040,0.745
2089,0.060,0.680
2090,0.015,0.670
2091,0.000,0.730
2092,0.050,0.725
2093,0.015,0.690
2094,-0.040,0.660
2095,-0.035,0.710
2096,-0.060,0.715
2097,-0.050,0.665
2098,-0.095,0.625
2099,-0.100,0.675
2100,-0.110,0.665
2101,-0.075,0.650
2102,-0.070,0.630
2103,-0.100,0.650
2104,-0.110,0.680
2105,-0.080,0.655
2106,-0.110,0.625
2107,-0.110,0.660
2108,-0.105,0.650
2109,-0.085,0.610
2110,-0.085,0.630
2111,-0.125,0.655
2112,-0.130,0.630
2113,-0.045,0.660
2114,0.050,0.640
2115,0.040,0.695
2116,0.075,0.655
2117,0.105,0.650
2118,0.100,0.625
2119,0.165,0.695
2120,0.270,0.765
2121,0.280,0.710
2122,0.235,0.670
2123,0.335,0.650
2124,0.385,0.665
2125,0.385,0.630
2126,0.340,0.675
2127,0.385,0.700
2128,0.440,0.685
2129,0.445,0.650
2130,0.445,0.660
2131,0.425,0.685
2132,0.450,0.725
2133,0.490,0.700
2134,0.435,0.660
2135,0.440,0.690
2136,0.465,0.690
2137,0.490,0.690
2138,0.460,0.680
2139,0.445,0.730
2140,0.470,0.690
2141,0.475,0.655
2142,0.465,0.665
2143,0.455,0.660
2144,0.480,0.650
2145,0.480,0.640
2146,0.455,0.670
2147,0.420,0.675
2148,0.495,0.685
2149,0.470,0.635
2150,0.450,0.660
2151,0.450,0.690
2152,0.475,0.670
2153,0.465,0.675
2154,0.460,0.700
2155,0.480,0.690
2156,0.490,0.655
2157,0.505,0.725
2158,0.510,0.720
2159,0.520,0.720
2160,0.540,0.690
2161,0.540,0.715
2162,0.535,0.680
2163,0.510,0.680
2164,0.550,0.690
2165,0.545,0.635
2166,0.500,0.660
2167,0.490,0.685
2168,0.530,0.680
2169,0.510,0.685
2170,0.475,0.730
2171,0.505,0.720
2172,0.530,0.670
2173,0.470,0.685
2174,0.470,0.665
2175,0.500,0.645
2176,0.500,0.625
2177,0.485,0.655
2178,0.470,0.680
2179,0.500,0.660
2180,0.510,0.670
2181,0.460,0.645
2182,0.490,0.675
2183,0.525,0.645
2184,0.485,0.630
2185,0.475,0.620
2186,0.475,0.650
2187,0.485,0.620
2188,0.505,0.605
2189,0.465,0.665
2190,0.465,0.715
2191,0.485,0.670
2192,0.465,0.655
2193,0.455,0.710
2194,0.455,0.705
2195,0.510,0.675
2196,0.490,0.700
2197,0.480,0.775
2198,0.570,0.790
2199,0.620,0.800
2200,0.630,0.820
2201,0.630,0.885
2202,0.685,0.895
2203,0.705,0.795
2204,0.660,0.820
2205,0.675,0.880
2206,0.675,0.875
2207,0.635,0.820
2208,0.550,0.875
2209,0.470,0.895
2210,0.510,0.890
2211,0.465,0.865
2212,0.410,0.820
2213,0.375,0.825
2214,0.415,0.860
2215,0.450,0.835
2216,0.395,0.765
2217,0.380,0.760
2218,0.415,0.740
2219,0.440,0.695
2220,0.355,0.735
2221,0.340,0.800
2222,0.390,0.745
2223,0.415,0.640
2224,0.405,0.650
2225,0.425,0.590
2226,0.440,0.525
2227,0.370,0.495
2228,0.340,0.530
2229,0.360,0.575
2230,0.350,0.555
2231,0.340,0.560
2232,0.315,0.570
2233,0.290,0.565
2234,0.330,0.520
2235,0.325,0.575
2236,0.320,0.675
2237,0.365,0.680
2238,0.490,0.650
2239,0.475,0.630
2240,0.410,0.550
2241,0.370,0.410
2242,0.365,0.340
2243,0.260,0.395
2244,0.110,0.500
2245,0.080,0.660
2246,0.090,0.725
2247,0.045,0.585
2248,0.040,0.340
2249,0.150,0.090
2250,0.155,-0.085
2251,0.125,-0.010
2252,0.100,0.295
2253,0.205,0.650
2254,0.415,0.950
2255,0.615,0.940
2256,0.875,0.670
2257,1.230,0.445
2258,1.505,0.230
2259,1.700,-0.110
2260,1.935,-0.465
2261,2.195,-0.800
2262,2.460,-0.960
2263,2.605,-0.860
2264,2.740,-0.690
2265,2.630,-0.670
2266,2.395,-0.550
2267,2.080,-0.290
2268,1.760,-0.075
2269,1.295,0.080
2270,0.965,0.225
2271,0.770,0.420
2272,0.630,0.470
2273,0.610,0.500
2274,0.485,0.565
2275,0.410,0.575
2276,0.480,0.585
2277,0.420,0.600
2278,0.375,0.645
2279,0.290,0.680
2280,0.265,0.680
2281,0.290,0.645
2282,0.270,0.705
2283,0.260,0.690
2284,0.260,0.645
2285,0.255,0.625
2286,0.225,0.675
2287,0.225,0.690
2288,0.190,0.675
2289,0.165,0.700
2290,0.145,0.715
2291,0.180,0.715
2292,0.185,0.635
2293,0.175,0.645
2294,0.160,0.685
2295,0.165,0.700
2296,0.175,0.640
2297,0.165,0.655
2298,0.105,0.685
2299,0.135,0.685
2300,0.135,0.645
2301,0.065,0.655
2302,0.035,0.625
2303,0.060,0.600
2304,0.050,0.575
2305,0.015,0.595
2306,-0.010,0.605
2307,0.030,0.625
2308,0.015,0.585
2309,-0.010,0.585
2310,-0.025,0.595
2311,-0.045,0.550
2312,-0.055,0.525
2313,-0.090,0.545
2314,-0.110,0.565
2315,-0.105,0.595
2316,-0.105,0.530
2317,-0.170,0.515
2318,-0.150,0.505
2319,-0.115,0.450
2320,-0.090,0.455
2321,-0.110,0.520
2322,-0.075,0.540
2323,-0.015,0.510
2324,-0.010,0.500
2325,-0.010,0.530
2326,0.070,0.515
2327,0.115,0.470
2328,0.135,0.520
2329,0.130,0.570
2330,0.185,0.570
2331,0.225,0.515
2332,0.215,0.535
2333,0.245,0.525
2334,0.330,0.520
2335,0.350,0.485
2336,0.365,0.490
2337,0.345,0.545
2338,0.400,0.535
2339,0.410,0.535
2340,0.350,0.550
2341,0.330,0.560
2342,0.360,0.510
2343,0.355,0.475
2344,0.365,0.470
2345,0.350,0.530
2346,0.400,0.515
2347,0.415,0.540
2348,0.380,0.545
2349,0.325,0.575
2350,0.380,0.550
2351,0.345,0.525
2352,0.320,0.535
2353,0.385,0.530
2354,0.445,0.555
2355,0.425,0.575
2356,0.415,0.600
2357,0.400,0.610
2358,0.390,0.565
2359,0.370,0.530
2360,0.360,0.595
2361,0.440,0.630
2362,0.485,0.625
2363,0.425,0.660
2364,0.415,0.685
2365,0.410,0.660
2366,0.390,0.620
2367,0.375,0.635
2368,0.410,0.645
2369,0.455,0.645
2370,0.455,0.635
2371,0.425,0.690
2372,0.440,0.705
2373,0.445,0.700
2374,0.415,0.650
2375,0.360,0.655
2376,0.350,0.670
2377,0.390,0.615
2378,0.375,0.630
2379,0.375,0.675
2380,0.395,0.710
2381,0.430,0.670
2382,0.395,0.670
2383,0.375,0.680
2384,0.390,0.705
2385,0.415,0.645
2386,0.375,0.635
2387,0.360,0.690
2388,0.370,0.680
2389,0.340,0.615
2390,0.320,0.600
2391,0.325,0.670
2392,0.375,0.675
2393,0.385,0.655
2394,0.390,0.665
2395,0.380,0.695
2396,0.400,0.665
2397,0.405,0.650
2398,0.350,0.660
2399,0.315,0.650
2400,0.340,0.660
2401,0.360,0.635
2402,0.340,0.700
2403,0.360,0.725
2404,0.430,0.745
2405,0.480,0.760
2406,0.445,0.825
2407,0.490,0.890
2408,0.545,0.925
2409,0.565,0.955
2410,0.530,0.970
2411,0.610,1.000
2412,0.680,0.955
2413,0.610,0.950
2414,0.610,0.965
2415,0.640,0.935
2416,0.490,0.940
2417,0.515,0.960
2418,0.440,0.980
2419,0.370,1.015
2420,0.490,0.990
2421,0.465,0.915
2422,0.390,0.900
2423,0.335,0.970
2424,0.300,0.915
2425,0.295,0.895
2426,0.320,0.900
2427,0.345,0.915
2428,0.365,0.895
2429,0.395,0.885
2430,0.350,0.905
2431,0.360,0.870
2432,0.410,0.820
2433,0.400,0.795
2434,0.370,0.740
2435,0.370,0.725
2436,0.370,0.695
2437,0.350,0.660
2438,0.320,0.640
2439,0.285,0.665
2440,0.320,0.640
2441,0.360,0.645
2442,0.330,0.690
2443,0.315,0.705
2444,0.365,0.690
2445,0.360,0.780
2446,0.360,0.860
2447,0.390,0.900
2448,0.510,0.885
2449,0.530,0.800
2450,0.465,0.685
2451,0.400,0.520
2452,0.390,0.455
2453,0.310,0.470
2454,0.195,0.585
2455,0.155,0.750
2456,0.150,0.810
2457,0.095,0.680
2458,0.100,0.425
2459,0.190,0.185
2460,0.185,0.065
2461,0.145,0.225
2462,0.170,0.565
2463,0.285,0.945
2464,0.495,1.175
2465,0.745,1.170
2466,1.035,0.900
2467,1.340,0.660
2468,1.675,0.410
2469,1.870,0.025
2470,2.110,-0.375
2471,2.460,-0.690
2472,2.795,-0.825
2473,2.895,-0.710
2474,2.900,-0.490
2475,2.815,-0.370
2476,2.585,-0.245
2477,2.270,-0.040
2478,1.860,0.195
2479,1.385,0.365
2480,1.000,0.540
2481,0.790,0.695
2482,0.650,0.745
2483,0.605,0.800
2484,0.535,0.810
2485,0.475,0.870
2486,0.425,0.885
2487,0.420,0.920
2488,0.425,0.910
2489,0.345,0.955
2490,0.335,0.975
2491,0.340,0.965
2492,0.370,0.950
2493,0.305,0.995
2494,0.290,1.065
2495,0.345,1.015
2496,0.295,1.000
2497,0.265,1.070
2498,0.290,1.075
2499,0.290,1.030
2500,0.245,1.035
2501,0.235,1.140
2502,0.250,1.110
2503,0.295,1.075
2504,0.260,1.065
2505,0.230,1.095
2506,0.280,1.120
2507,0.275,1.085
2508,0.190,1.090
2509,0.150,1.125
2510,0.180,1.120
2511,0.220,1.075
2512,0.210,1.045
2513,0.170,1.090
2514,0.200,1.105
2515,0.190,1.065
2516,0.160,1.065
2517,0.125,1.095
2518,0.140,1.090
2519,0.075,1.060
2520,0.060,1.065
2521,0.045,1.090
2522,0.040,1.105
2523,0.070,1.090
2524,0.040,1.085
2525,0.035,1.160
2526,0.070,1.115
2527,0.065,1.080
2528,0.035,1.105
2529,0.020,1.145
2530,0.045,1.135
2531,0.080,1.120
2532,0.080,1.095
2533,0.040,1.130
2534,0.090,1.125
2535,0.180,1.130
2536,0.165,1.145
2537,0.205,1.125
2538,0.270,1.160
2539,0.370,1.180
2540,0.395,1.180
2541,0.410,1.245
2542,0.475,1.225
2543,0.530,1.215
2544,0.535,1.215
2545,0.540,1.265
2546,0.605,1.255
2547,0.605,1.235
2548,0.605,1.270
2549,0.645,1.285
2550,0.675,1.285
2551,0.695,1.260
2552,0.665,1.280
2553,0.685,1.355
2554,0.760,1.330
2555,0.740,1.285
2556,0.715,1.330
2557,0.710,1.335
2558,0.720,1.345
2559,0.745,1.310
2560,0.775,1.390
2561,0.720,1.465
2562,0.695,1.375
2563,0.805,1.305
2564,0.765,1.355
2565,0.695,1.390
2566,0.735,1.400
2567,0.790,1.415
2568,0.765,1.440
2569,0.780,1.490
2570,0.820,1.435
2571,0.805,1.450
2572,0.755,1.430
2573,0.755,1.440
2574,0.790,1.465
2575,0.790,1.465
2576,0.750,1.470
2577,0.750,1.465
2578,0.820,1.475
2579,0.785,1.465
2580,0.745,1.495
2581,0.780,1.505
2582,0.815,1.510
2583,0.820,1.480
2584,0.805,1.545
2585,0.845,1.565
2586,0.895,1.505
2587,0.860,1.540
2588,0.820,1.570
2589,0.885,1.575
2590,0.875,1.555
2591,0.810,1.550
2592,0.785,1.610
2593,0.810,1.625
2594,0.860,1.595
2595,0.825,1.600
2596,0.805,1.635
2597,0.865,1.595
2598,0.915,1.615
2599,0.885,1.610
2600,0.845,1.645
2601,0.850,1.655
2602,0.855,1.635
2603,0.840,1.640
2604,0.820,1.695
2605,0.860,1.695
2606,0.905,1.640
2607,0.905,1.670
2608,0.910,1.710
2609,0.900,1.730
2610,0.895,1.735
2611,0.885,1.785
2612,0.890,1.835
2613,0.935,1.775
2614,0.960,1.800
2615,1.010,1.945
2616,1.025,1.995
2617,1.145,2.015
2618,1.205,2.020
2619,1.160,2.070
2620,1.165,2.080
2621,1.160,2.080
2622,1.185,2.110
2623,1.205,2.115
2624,1.165,2.130
2625,1.165,2.105
2626,1.100,2.110
2627,1.015,2.145
2628,0.995,2.125
2629,1.060,2.055
2630,1.035,2.065
2631,0.950,2.075
2632,0.920,2.115
2633,0.925,2.110
2634,0.935,2.075
2635,0.935,2.095
2636,0.945,2.095
2637,0.935,2.030
2638,0.935,2.045
2639,0.905,2.035
2640,0.910,2.050
2641,0.985,1.980
2642,0.995,1.950
2643,0.970,1.930
2644,0.925,1.900
2645,0.985,1.870
2646,0.965,1.895
2647,0.940,1.900
2648,0.930,1.925
2649,0.950,1.960
2650,0.965,1.915
2651,0.925,1.960
2652,0.940,1.990
2653,0.985,1.980
2654,0.995,2.055
2655,0.965,2.150
2656,1.030,2.165
2657,1.105,2.120
2658,1.120,2.075
2659,1.045,1.975
2660,0.985,1.810
2661,0.990,1.765
2662,0.940,1.845
2663,0.850,1.930
2664,0.820,2.120
2665,0.820,2.180
2666,0.825,2.070
2667,0.800,1.790
2668,0.880,1.580
2669,0.905,1.510
2670,0.850,1.670
2671,0.845,2.020
2672,0.950,2.385
2673,1.195,2.570
2674,1.415,2.475
2675,1.660,2.220
2676,1.965,1.955
2677,2.300,1.715
2678,2.590,1.340
2679,2.665,0.920
2680,2.930,0.655
2681,3.325,0.530
2682,3.485,0.620
2683,3.345,0.850
2684,3.340,1.010
2685,3.170,1.125
2686,2.730,1.360
2687,2.345,1.585
2688,1.975,1.815
2689,1.695,1.950
2690,1.510,2.050
2691,1.355,2.135
2692,1.275,2.195
2693,1.230,2.170
2694,1.125,2.190
2695,1.100,2.275
2696,1.100,2.255
2697,1.070,2.275
2698,1.065,2.385
2699,1.025,2.395
2700,1.040,2.305
2701,1.055,2.320
2702,1.010,2.365
2703,1.010,2.395
2704,1.020,2.430
2705,0.995,2.410
2706,0.995,2.435
2707,0.970,2.345
2708,0.990,2.330
2709,1.005,2.470
2710,0.915,2.410
2711,0.870,2.320
2712,0.985,2.505
2713,0.985,2.415
2714,0.950,2.315
2715,0.895,2.460
2716,0.905,2.515
2717,0.915,2.380
2718,0.880,2.365
2719,0.860,2.400
2720,0.905,2.455
2721,0.920,2.465
2722,0.835,2.450
2723,0.860,2.420
2724,0.855,2.350
2725,0.820,2.295
2726,0.780,2.390
2727,0.740,2.415
2728,0.765,2.405
2729,0.755,2.350
2730,0.740,2.350
2731,0.745,2.355
2732,0.745,2.310
2733,0.755,2.350
2734,0.715,2.415
2735,0.675,2.350
2736,0.685,2.345
2737,0.670,2.330
2738,0.670,2.315
2739,0.685,2.310
2740,0.710,2.290
2741,0.690,2.325
2742,0.710,2.355
2743,0.775,2.350
2744,0.855,2.300
2745,0.840,2.280
2746,0.830,2.320
2747,0.855,2.290
2748,0.855,2.315
2749,0.910,2.330
2750,0.965,2.395
2751,1.020,2.315
2752,1.095,2.315
2753,1.090,2.350
2754,1.030,2.345
2755,1.050,2.320
2756,1.145,2.335
2757,1.165,2.370
2758,1.160,2.360
2759,1.160,2.365
2760,1.165,2.320
2761,1.130,2.305
2762,1.110,2.325
2763,1.180,2.320
2764,1.260,2.315
2765,1.190,2.375
2766,1.135,2.380
2767,1.155,2.360
2768,1.135,2.300
2769,1.105,2.335
2770,1.125,2.320
2771,1.210,2.295
2772,1.225,2.335
2773,1.190,2.390
2774,1.190,2.390
2775,1.160,2.335
2776,1.115,2.290
2777,1.100,2.295
2778,1.110,2.270
2779,1.130,2.315
2780,1.115,2.365
2781,1.140,2.405
2782,1.175,2.345
2783,1.185,2.255
2784,1.170,2.305
2785,1.165,2.340
2786,1.145,2.355
2787,1.180,2.335
2788,1.125,2.385
2789,1.110,2.360
2790,1.115,2.300
2791,1.135,2.260
2792,1.100,2.305
2793,1.105,2.360
2794,1.200,2.360
2795,1.185,2.320
2796,1.110,2.310
2797,1.125,2.290
2798,1.175,2.285
2799,1.160,2.265
2800,1.085,2.280
2801,1.090,2.310
2802,1.135,2.320
2803,1.110,2.285
2804,1.055,2.245
2805,1.080,2.205
2806,1.105,2.200
2807,1.095,2.205
2808,1.065,2.230
2809,1.085,2.240
2810,1.075,2.215
2811,1.050,2.235
2812,1.015,2.225
2813,1.015,2.175
2814,1.060,2.130
2815,1.055,2.170
2816,1.065,2.180
2817,1.045,2.150
2818,1.100,2.185
2819,1.075,2.265
2820,1.055,2.225
2821,1.085,2.200
2822,1.110,2.240
2823,1.095,2.330
2824,1.125,2.345
2825,1.220,2.425
2826,1.280,2.470
2827,1.270,2.420
2828,1.295,2.345
2829,1.340,2.365
2830,1.310,2.360
2831,1.205,2.405
2832,1.155,2.380
2833,1.125,2.320
2834,1.050,2.330
2835,1.000,2.300
2836,1.005,2.225
2837,1.010,2.195
2838,0.975,2.260
2839,0.935,2.250
2840,0.935,2.195
2841,0.910,2.120
2842,0.905,2.105
2843,0.895,2.135
2844,0.865,2.095
2845,0.845,2.095
2846,0.835,2.200
2847,0.855,2.090
2848,0.920,1.940
2849,0.925,1.920
2850,0.890,1.960
2851,0.850,1.885
2852,0.855,1.880
2853,0.840,1.855
2854,0.795,1.820
2855,0.825,1.785
2856,0.865,1.745
2857,0.860,1.805
2858,0.840,1.915
2859,0.835,1.880
2860,0.825,1.760
2861,0.830,2.010
2862,0.890,2.160
2863,0.985,1.865
2864,1.000,1.890
2865,0.915,1.895
2866,0.905,1.645
2867,0.855,1.505
2868,0.745,1.605
2869,0.625,1.720
2870,0.625,1.915
2871,0.655,1.965
2872,0.640,1.795
2873,0.635,1.465
2874,0.675,1.205
2875,0.665,1.135
2876,0.645,1.360
2877,0.665,1.780
2878,0.775,2.140
2879,1.000,2.315
2880,1.305,2.165
2881,1.640,1.815
2882,1.990,1.490
2883,2.185,1.120
2884,2.400,0.685
2885,2.725,0.290
2886,3.065,0.100
2887,3.170,0.060
2888,3.410,0.235
2889,3.325,0.425
2890,2.945,0.605
2891,2.775,0.765
2892,2.435,0.965
2893,1.830,1.205
2894,1.470,1.355
2895,1.255,1.470
2896,1.135,1.560
2897,1.065,1.550
2898,0.950,1.575
2899,0.855,1.595
2900,0.810,1.645
2901,0.795,1.660
2902,0.835,1.630
2903,0.805,1.670
2904,0.755,1.690
2905,0.725,1.700
2906,0.710,1.695
2907,0.665,1.725
2908,0.625,1.730
2909,0.645,1.695
2910,0.705,1.665
2911,0.670,1.665
2912,0.645,1.680
2913,0.650,1.625
2914,0.640,1.620
2915,0.550,1.655
2916,0.525,1.615
2917,0.550,1.615
2918,0.565,1.625
2919,0.500,1.630
2920,0.500,1.655
2921,0.555,1.605
2922,0.505,1.595
2923,0.465,1.600
2924,0.490,1.580
2925,0.485,1.510
2926,0.445,1.530
2927,0.440,1.550
2928,0.410,1.475
2929,0.420,1.495
2930,0.390,1.490
2931,0.335,1.490
2932,0.330,1.450
2933,0.325,1.415
2934,0.275,1.475
2935,0.255,1.470
2936,0.250,1.415
2937,0.250,1.400
2938,0.190,1.420
2939,0.180,1.410
2940,0.235,1.400
2941,0.205,1.365
2942,0.140,1.365
2943,0.165,1.360
2944,0.235,1.355
2945,0.200,1.330
2946,0.190,1.345
2947,0.210,1.360
2948,0.270,1.335
2949,0.295,1.330
2950,0.310,1.385
2951,0.380,1.340
2952,0.455,1.325
2953,0.460,1.330
2954,0.495,1.375
2955,0.560,1.385
2956,0.620,1.310
2957,0.590,1.335
2958,0.575,1.335
2959,0.630,1.330
2960,0.690,1.330
2961,0.685,1.295
2962,0.660,1.315
2963,0.710,1.295
2964,0.710,1.265
2965,0.685,1.265
2966,0.655,1.275
2967,0.695,1.280
2968,0.685,1.260
2969,0.630,1.265
2970,0.645,1.255
2971,0.675,1.250
2972,0.660,1.250
2973,0.635,1.290
2974,0.655,1.285
2975,0.670,1.280
2976,0.660,1.240
2977,0.630,1.255
2978,0.670,1.225
2979,0.705,1.190
2980,0.675,1.240
2981,0.670,1.230
2982,0.695,1.210
2983,0.680,1.210
2984,0.655,1.170
2985,0.630,1.250
2986,0.645,1.235
2987,0.685,1.230
2988,0.635,1.250
2989,0.625,1.265
2990,0.645,1.235
2991,0.655,1.185
2992,0.620,1.220
2993,0.610,1.210
2994,0.630,1.215
2995,0.630,1.175
2996,0.595,1.170
2997,0.590,1.175
2998,0.630,1.160
2999,0.670,1.125
3000,0.605,1.175
3001,0.580,1.180
3002,0.640,1.160
3003,0.645,1.165
3004,0.615,1.205
3005,0.610,1.175
3006,0.615,1.055
3007,0.570,1.035
3008,0.490,1.115
3009,0.595,1.195
3010,0.605,1.095
3011,0.570,0.985
3012,0.520,1.075
3013,0.510,1.100
3014,0.540,1.080
3015,0.530,1.090
3016,0.510,1.115
3017,0.560,1.065
3018,0.555,1.025
3019,0.535,1.060
3020,0.545,1.070
3021,0.565,1.075
3022,0.605,1.085
3023,0.540,1.100
3024,0.545,1.135
3025,0.590,1.140
3026,0.640,1.200
3027,0.615,1.290
3028,0.670,1.335
3029,0.770,1.335
3030,0.770,1.330
3031,0.750,1.320
3032,0.820,1.405
3033,0.900,1.370
3034,0.835,1.315
3035,0.735,1.300
3036,0.680,1.305
3037,0.625,1.320
3038,0.545,1.275
3039,0.495,1.280
3040,0.505,1.275
3041,0.530,1.200
3042,0.480,1.200
3043,0.430,1.215
3044,0.450,1.220
3045,0.480,1.125
3046,0.465,1.135
3047,0.415,1.165
3048,0.400,1.120
3049,0.420,1.120
3050,0.380,1.105
3051,0.355,1.080
3052,0.400,1.060
3053,0.470,0.970
3054,0.465,0.960
3055,0.430,0.955
3056,0.405,0.920
3057,0.410,0.890
3058,0.365,0.870
3059,0.320,0.920
3060,0.355,0.880
3061,0.345,0.900
3062,0.370,0.865
3063,0.325,0.910
3064,0.380,0.940
3065,0.445,0.990
3066,0.445,1.070
3067,0.445,1.090
3068,0.540,1.050
3069,0.555,0.955
3070,0.475,0.855
3071,0.435,0.700
3072,0.395,0.685
3073,0.295,0.710
3074,0.220,0.825
3075,0.195,0.975
3076,0.185,1.065
3077,0.180,0.890
3078,0.195,0.630
3079,0.250,0.440
3080,0.240,0.325
3081,0.235,0.455
3082,0.215,0.790
3083,0.320,1.190
3084,0.560,1.380
3085,0.850,1.285
3086,1.090,0.940
3087,1.345,0.675
3088,1.675,0.450
3089,1.985,0.060
3090,2.255,-0.375
3091,2.540,-0.655
3092,2.785,-0.755
3093,2.945,-0.710
3094,2.940,-0.475
3095,2.855,-0.265
3096,2.570,-0.105
3097,2.195,0.055
3098,1.770,0.230
3099,1.325,0.420
3100,0.980,0.525
3101,0.775,0.610
3102,0.620,0.725
3103,0.540,0.780
3104,0.480,0.785
3105,0.430,0.790
3106,0.410,0.865
3107,0.350,0.880
3108,0.335,0.880
3109,0.310,0.865
3110,0.280,0.895
3111,0.270,0.915
3112,0.270,0.935
3113,0.265,0.915
3114,0.220,0.930
3115,0.215,0.970
3116,0.240,0.925
3117,0.225,0.920
3118,0.190,0.960
3119,0.165,0.975
3120,0.190,0.950
3121,0.210,0.905
3122,0.165,0.955
3123,0.155,0.995
3124,0.180,0.960
3125,0.165,0.935
3126,0.145,0.930
3127,0.120,0.975
3128,0.145,0.920
3129,0.120,0.925
3130,0.110,0.970
3131,0.090,0.950
3132,0.110,0.910
3133,0.075,0.910
3134,0.035,0.935
3135,0.035,0.910
3136,0.050,0.890
3137,0.010,0.875
3138,-0.010,0.880
3139,-0.025,0.875
3140,-0.015,0.840
3141,-0.065,0.825
3142,-0.100,0.915
3143,-0.095,0.875
3144,-0.080,0.810
3145,-0.090,0.830
3146,-0.115,0.845
3147,-0.120,0.885
3148,-0.130,0.835
3149,-0.145,0.805
3150,-0.170,0.820
3151,-0.175,0.820
3152,-0.090,0.800
3153,-0.035,0.775
3154,-0.075,0.785
3155,-0.120,0.870
3156,0.045,0.895
3157,0.105,0.785
3158,0.030,0.790
3159,0.055,0.840
3160,0.180,0.830
3161,0.230,0.840
3162,0.235,0.860
3163,0.285,0.870
3164,0.310,0.800
3165,0.325,0.825
3166,0.320,0.845
3167,0.335,0.840
3168,0.365,0.830
3169,0.380,0.810
3170,0.375,0.835
3171,0.360,0.820
3172,0.415,0.795
3173,0.430,0.800
3174,0.390,0.805
3175,0.395,0.835
3176,0.455,0.815
3177,0.395,0.785
3178,0.380,0.785
3179,0.415,0.825
3180,0.440,0.780
3181,0.445,0.755
3182,0.370,0.805
3183,0.365,0.830
3184,0.430,0.820
3185,0.405,0.770
3186,0.395,0.815
3187,0.390,0.825
3188,0.395,0.805
3189,0.375,0.795
3190,0.370,0.800
3191,0.375,0.785
3192,0.420,0.800
3193,0.455,0.785
3194,0.420,0.810
3195,0.445,0.870
3196,0.470,0.770
3197,0.380,0.755
3198,0.355,0.830
3199,0.360,0.845
3200,0.380,0.770
3201,0.375,0.780
3202,0.375,0.805
3203,0.400,0.795
3204,0.390,0.785
3205,0.400,0.780
3206,0.410,0.830
3207,0.405,0.810
3208,0.430,0.805
3209,0.410,0.780
3210,0.365,0.805
3211,0.375,0.825
3212,0.405,0.785
3213,0.410,0.785
3214,0.365,0.820
3215,0.380,0.855
3216,0.400,0.795
3217,0.370,0.780
3218,0.350,0.800
3219,0.370,0.795
3220,0.340,0.750
3221,0.325,0.750
3222,0.335,0.785
3223,0.340,0.735
3224,0.340,0.715
3225,0.330,0.740
3226,0.320,0.745
3227,0.275,0.710
3228,0.330,0.705
3229,0.335,0.685
3230,0.300,0.725
3231,0.280,0.770
3232,0.355,0.720
3233,0.335,0.735
3234,0.285,0.735
3235,0.330,0.795
3236,0.385,0.795
3237,0.355,0.830
3238,0.395,0.900
3239,0.480,0.870
3240,0.520,0.870
3241,0.505,0.845
3242,0.510,0.925
3243,0.525,0.885
3244,0.530,0.840
3245,0.460,0.865
3246,0.410,0.890
3247,0.380,0.910
3248,0.355,0.885
3249,0.335,0.910
3250,0.285,0.835
3251,0.285,0.840
3252,0.285,0.830
3253,0.165,0.830
3254,0.135,0.855
3255,0.200,0.860
3256,0.240,0.810
3257,0.205,0.790
3258,0.195,0.820
3259,0.215,0.800
3260,0.230,0.755
3261,0.180,0.725
3262,0.210,0.695
3263,0.265,0.655
3264,0.260,0.565
3265,0.195,0.545
3266,0.190,0.600
3267,0.190,0.560
3268,0.180,0.525
3269,0.170,0.555
3270,0.150,0.570
3271,0.155,0.545
3272,0.180,0.555
3273,0.140,0.565
3274,0.110,0.590
3275,0.180,0.680
3276,0.215,0.685
3277,0.225,0.705
3278,0.295,0.660
3279,0.290,0.595
3280,0.235,0.470
3281,0.150,0.340
3282,0.115,0.400
3283,0.070,0.465
3284,-0.015,0.535
3285,-0.070,0.700
3286,-0.090,0.725
3287,-0.080,0.505
3288,-0.060,0.195
3289,-0.070,-0.015
3290,-0.045,-0.045
3291,-0.030,0.125
3292,-0.005,0.480
3293,0.090,0.895
3294,0.315,1.020
3295,0.640,0.905
3296,0.935,0.570
3297,1.160,0.335
3298,1.410,0.120
3299,1.710,-0.150
3300,1.945,-0.500
3301,2.160,-0.685
3302,2.470,-0.750
3303,2.750,-0.710
3304,2.725,-0.575
3305,2.535,-0.435
3306,2.285,-0.305
3307,2.015,-0.175
3308,1.625,0.000
3309,1.170,0.180
3310,0.815,0.340
3311,0.620,0.390
3312,0.455,0.425
3313,0.330,0.465
3314,0.275,0.515
3315,0.265,0.520
3316,0.220,0.565
3317,0.175,0.590
3318,0.170,0.580
3319,0.175,0.565
3320,0.130,0.595
3321,0.110,0.615
3322,0.125,0.620
3323,0.110,0.605
3324,0.075,0.620
3325,0.045,0.675
3326,0.100,0.615
3327,0.070,0.585
3328,0.030,0.620
3329,0.035,0.650
3330,0.045,0.585
3331,0.020,0.580
3332,-0.030,0.625
3333,-0.030,0.600
3334,-0.040,0.555
3335,-0.045,0.570
3336,-0.065,0.580
3337,-0.060,0.530
3338,-0.045,0.565
3339,-0.075,0.530
3340,-0.140,0.560
3341,-0.105,0.545
3342,-0.100,0.525
3343,-0.150,0.490
3344,-0.190,0.520
3345,-0.160,0.465
3346,-0.185,0.450
3347,-0.215,0.455
3348,-0.250,0.480
3349,-0.235,0.450
3350,-0.260,0.420
3351,-0.280,0.455
3352,-0.300,0.440
3353,-0.320,0.380
3354,-0.305,0.390
3355,-0.330,0.445
3356,-0.340,0.390
3357,-0.315,0.380
3358,-0.315,0.380
3359,-0.280,0.435
3360,-0.310,0.400
3361,-0.305,0.340
3362,-0.265,0.370
3363,-0.260,0.390
3364,-0.245,0.395
3365,-0.190,0.375
3366,-0.160,0.355
3367,-0.140,0.370
3368,-0.095,0.390
3369,-0.025,0.365
3370,0.005,0.345
3371,0.005,0.370
3372,0.075,0.400
3373,0.140,0.340
3374,0.130,0.375
3375,0.170,0.405
3376,0.205,0.385
3377,0.230,0.350
3378,0.215,0.360
3379,0.205,0.375
3380,0.255,0.375
3381,0.270,0.330
3382,0.270,0.355
3383,0.250,0.370
3384,0.290,0.365
3385,0.290,0.320
3386,0.250,0.335
3387,0.255,0.340
3388,0.290,0.320
3389,0.270,0.290
3390,0.240,0.290
3391,0.270,0.285
3392,0.240,0.320
3393,0.265,0.300
3394,0.225,0.330
3395,0.205,0.345
3396,0.240,0.340
3397,0.275,0.370
3398,0.270,0.385
3399,0.280,0.360
3400,0.305,0.335
3401,0.310,0.325
3402,0.270,0.320
3403,0.285,0.340
3404,0.320,0.280
3405,0.310,0.305
3406,0.255,0.315
3407,0.280,0.330
3408,0.305,0.315
3409,0.295,0.300
3410,0.265,0.320
3411,0.280,0.350
3412,0.285,0.300
3413,0.280,0.315
3414,0.245,0.380
3415,0.280,0.335
3416,0.275,0.290
3417,0.260,0.320
3418,0.265,0.315
3419,0.255,0.295
3420,0.270,0.280
3421,0.285,0.305
3422,0.240,0.285
3423,0.260,0.305
3424,0.275,0.275
3425,0.245,0.265
3426,0.260,0.275
3427,0.260,0.220
3428,0.300,0.220
3429,0.270,0.250
3430,0.255,0.250
3431,0.285,0.245
3432,0.285,0.220
3433,0.225,0.245
3434,0.245,0.285
3435,0.290,0.250
3436,0.270,0.215
3437,0.230,0.215
3438,0.270,0.250
3439,0.305,0.220
3440,0.250,0.210
3441,0.245,0.250
3442,0.275,0.280
3443,0.335,0.260
3444,0.330,0.280
3445,0.320,0.370
3446,0.390,0.375
3447,0.450,0.380
3448,0.440,0.425
3449,0.400,0.450
3450,0.420,0.425
3451,0.490,0.385
3452,0.495,0.440
3453,0.405,0.380
3454,0.340,0.360
3455,0.370,0.390
3456,0.365,0.460
3457,0.290,0.425
3458,0.255,0.350
3459,0.215,0.330
3460,0.190,0.390
3461,0.185,0.375
3462,0.225,0.370
3463,0.230,0.300
3464,0.215,0.310
3465,0.205,0.285
3466,0.220,0.295
3467,0.220,0.275
3468,0.180,0.265
3469,0.200,0.255
3470,0.245,0.205
3471,0.250,0.185
3472,0.240,0.190
3473,0.205,0.150
3474,0.225,0.125
3475,0.205,0.125
3476,0.170,0.135
3477,0.160,0.120
3478,0.185,0.055
3479,0.155,0.095
3480,0.165,0.150
3481,0.210,0.120
3482,0.210,0.185
3483,0.215,0.245
3484,0.250,0.270
3485,0.325,0.195
3486,0.320,0.090
3487,0.255,-0.025
3488,0.185,-0.090
3489,0.165,-0.040
3490,0.085,0.045
3491,0.045,0.190
3492,0.055,0.325
3493,0.000,0.215
3494,-0.035,-0.085
3495,-0.020,-0.395
3496,0.010,-0.565
3497,0.000,-0.545
3498,-0.030,-0.275
3499,0.010,0.210
3500,0.210,0.530
3501,0.435,0.495
3502,0.685,0.205
3503,0.965,0.005
3504,1.250,-0.210
3505,1.400,-0.615
3506,1.565,-1.005
3507,1.770,-1.200
3508,2.085,-1.290
3509,2.385,-1.345
3510,2.415,-1.290
3511,2.270,-1.120
3512,2.090,-0.965
3513,1.825,-0.750
3514,1.595,-0.510
3515,1.270,-0.355
3516,0.900,-0.220
3517,0.660,-0.100
3518,0.490,0.025
3519,0.435,0.065
3520,0.375,0.065
3521,0.300,0.120
3522,0.245,0.145
3523,0.265,0.185
3524,0.230,0.150
3525,0.200,0.180
3526,0.185,0.230
3527,0.195,0.185
3528,0.185,0.180
3529,0.130,0.195
3530,0.165,0.240
3531,0.190,0.205
3532,0.155,0.210
3533,0.120,0.245
3534,0.105,0.235
3535,0.120,0.205
3536,0.105,0.225
3537,0.080,0.235
3538,0.080,0.235
3539,0.065,0.240
3540,0.050,0.240
3541,0.015,0.245
3542,0.000,0.230
3543,0.030,0.175
3544,0.015,0.195
3545,0.015,0.205
3546,0.045,0.220
3547,0.070,0.175
3548,0.020,0.215
3549,-0.020,0.225
3550,-0.020,0.230
3551,-0.015,0.185
3552,-0.070,0.180
3553,-0.075,0.205
3554,-0.070,0.145
3555,-0.060,0.115
3556,-0.090,0.140
3557,-0.090,0.170
3558,-0.090,0.165
3559,-0.105,0.110
3560,-0.150,0.180
3561,-0.150,0.225
3562,-0.115,0.150
3563,-0.150,0.130
3564,-0.215,0.145
3565,-0.180,0.165
3566,-0.145,0.130
3567,-0.180,0.070
3568,-0.160,0.110
3569,-0.120,0.125
3570,-0.075,0.100
3571,-0.070,0.080
3572,-0.065,0.120
3573,-0.005,0.150
3574,0.055,0.095
3575,0.065,0.115
3576,0.100,0.185
3577,0.165,0.170
3578,0.175,0.120
3579,0.180,0.180
3580,0.235,0.205
3581,0.265,0.180
3582,0.290,0.115
3583,0.280,0.135
3584,0.255,0.130
3585,0.265,0.095
3586,0.300,0.100
3587,0.300,0.155
3588,0.310,0.170
3589,0.310,0.120
3590,0.315,0.140
3591,0.315,0.140
3592,0.300,0.140
3593,0.350,0.165
3594,0.365,0.115
3595,0.320,0.140
3596,0.335,0.155
3597,0.355,0.140
3598,0.305,0.120
3599,0.240,0.115
3600,0.340,0.110
3601,0.365,0.155
3602,0.285,0.160
3603,0.215,0.185
3604,0.315,0.160
3605,0.365,0.180
3606,0.325,0.105
3607,0.260,0.150
3608,0.255,0.140
3609,0.295,0.175
3610,0.285,0.135
3611,0.270,0.160
3612,0.290,0.190
3613,0.335,0.175
3614,0.315,0.145
3615,0.295,0.195
3616,0.305,0.190
3617,0.365,0.230
3618,0.355,0.190
3619,0.305,0.195
3620,0.320,0.235
3621,0.360,0.225
3622,0.360,0.205
3623,0.340,0.235
3624,0.365,0.240
3625,0.375,0.225
3626,0.375,0.200
3627,0.325,0.220
3628,0.315,0.190
3629,0.365,0.220
3630,0.365,0.225
3631,0.350,0.250
3632,0.350,0.255
3633,0.365,0.235
3634,0.340,0.205
3635,0.320,0.250
3636,0.315,0.260
3637,0.365,0.225
3638,0.300,0.195
3639,0.265,0.200
3640,0.290,0.170
3641,0.340,0.190
3642,0.315,0.170
3643,0.285,0.185
3644,0.305,0.190
3645,0.320,0.225
3646,0.315,0.220
3647,0.295,0.255
3648,0.355,0.245
3649,0.400,0.265
3650,0.395,0.255
3651,0.355,0.295
3652,0.395,0.325
3653,0.415,0.370
3654,0.420,0.400
3655,0.470,0.500
3656,0.550,0.510
3657,0.550,0.465
3658,0.515,0.510
3659,0.545,0.530
3660,0.560,0.490
3661,0.545,0.450
3662,0.475,0.480
3663,0.445,0.535
3664,0.405,0.545
3665,0.380,0.490
3666,0.360,0.485
3667,0.345,0.460
3668,0.350,0.435
3669,0.330,0.420
3670,0.285,0.470
3671,0.290,0.450
3672,0.280,0.350
3673,0.300,0.350
3674,0.315,0.385
3675,0.270,0.365
3676,0.265,0.350
3677,0.300,0.380
3678,0.310,0.350
3679,0.295,0.290
3680,0.315,0.270
3681,0.345,0.215
3682,0.300,0.215
3683,0.285,0.190
3684,0.290,0.160
3685,0.285,0.135
3686,0.235,0.170
3687,0.275,0.175
3688,0.275,0.145
3689,0.250,0.135
3690,0.230,0.245
3691,0.285,0.305
3692,0.300,0.355
3693,0.330,0.330
3694,0.330,0.335
3695,0.415,0.290
3696,0.405,0.155
3697,0.310,-0.055
3698,0.275,-0.060
3699,0.230,0.025
3700,0.175,0.055
3701,0.140,0.205
3702,0.065,0.310
3703,0.065,0.205
3704,0.105,-0.060
3705,0.110,-0.415
3706,0.140,-0.500
3707,0.160,-0.400
3708,0.155,-0.105
3709,0.160,0.320
3710,0.285,0.665
3711,0.525,0.670
3712,0.805,0.395
3713,1.075,0.080
3714,1.235,-0.165
3715,1.460,-0.495
3716,1.735,-0.910
3717,2.000,-1.350
3718,2.185,-1.505
3719,2.335,-1.420
3720,2.430,-1.290
3721,2.405,-1.115
3722,2.315,-0.920
3723,2.060,-0.710
3724,1.715,-0.560
3725,1.240,-0.305
3726,0.885,-0.055
3727,0.720,0.050
3728,0.580,0.085
3729,0.445,0.210
3730,0.410,0.275
3731,0.395,0.235
3732,0.350,0.220
3733,0.300,0.335
3734,0.290,0.340
3735,0.265,0.320
3736,0.220,0.325
3737,0.205,0.355
3738,0.170,0.350
3739,0.205,0.320
3740,0.220,0.350
3741,0.190,0.370
3742,0.100,0.355
3743,0.105,0.405
3744,0.170,0.390
3745,0.185,0.415
3746,0.085,0.420
3747,0.100,0.390
3748,0.190,0.350
3749,0.100,0.415
3750,0.050,0.420
3751,0.120,0.385
3752,0.125,0.370
3753,0.075,0.415
3754,0.090,0.435
3755,0.115,0.395
3756,0.080,0.370
3757,0.050,0.425
3758,0.050,0.430
3759,0.060,0.360
3760,0.010,0.345
3761,-0.020,0.380
3762,0.000,0.380
3763,0.010,0.310
3764,-0.030,0.355
3765,-0.065,0.405
3766,-0.045,0.400
3767,-0.020,0.295
3768,-0.115,0.330
3769,-0.125,0.380
3770,-0.090,0.370
3771,-0.100,0.300
3772,-0.155,0.325
3773,-0.175,0.325
3774,-0.165,0.310
3775,-0.135,0.305
3776,-0.150,0.340
3777,-0.150,0.350
3778,-0.110,0.340
3779,-0.080,0.350
3780,-0.070,0.365
3781,-0.035,0.375
3782,-0.025,0.335
3783,0.025,0.345
3784,0.040,0.365
3785,0.080,0.400
3786,0.145,0.340
3787,0.165,0.365
3788,0.200,0.385
3789,0.255,0.370
3790,0.285,0.335
3791,0.295,0.345
3792,0.260,0.360
3793,0.250,0.405
3794,0.290,0.415
3795,0.285,0.385
3796,0.285,0.420
3797,0.310,0.440
3798,0.335,0.385
3799,0.325,0.390
3800,0.315,0.405
3801,0.355,0.420
3802,0.385,0.380
3803,0.360,0.375
3804,0.360,0.405
3805,0.375,0.405
3806,0.365,0.340
3807,0.360,0.385
3808,0.365,0.440
3809,0.355,0.395
3810,0.340,0.385
3811,0.360,0.420
3812,0.345,0.470
3813,0.345,0.410
3814,0.375,0.450
3815,0.385,0.455
3816,0.345,0.470
3817,0.345,0.475
3818,0.390,0.455
3819,0.385,0.480
3820,0.350,0.505
3821,0.375,0.530
3822,0.390,0.515
3823,0.385,0.485
3824,0.355,0.545
3825,0.390,0.500
3826,0.385,0.515
3827,0.395,0.535
3828,0.400,0.560
3829,0.425,0.595
3830,0.460,0.515
3831,0.430,0.550
3832,0.410,0.580
3833,0.415,0.560
3834,0.465,0.500
3835,0.425,0.540
3836,0.400,0.585
3837,0.410,0.540
3838,0.425,0.500
3839,0.415,0.570
3840,0.390,0.585
3841,0.420,0.545
3842,0.430,0.550
3843,0.385,0.570
3844,0.390,0.600
3845,0.400,0.565
3846,0.415,0.570
3847,0.395,0.575
3848,0.370,0.605
3849,0.390,0.560
3850,0.405,0.550
3851,0.365,0.570
3852,0.395,0.605
3853,0.410,0.570
3854,0.395,0.550
3855,0.380,0.605
3856,0.375,0.635
3857,0.405,0.600
3858,0.420,0.580
3859,0.375,0.660
3860,0.410,0.745
3861,0.485,0.790
3862,0.515,0.835
3863,0.520,0.895
3864,0.580,0.940
3865,0.630,0.920
3866,0.645,0.910
3867,0.615,0.925
3868,0.635,0.965
3869,0.660,0.940
3870,0.665,0.925
3871,0.605,0.955
3872,0.540,0.985
3873,0.525,0.970
3874,0.525,0.940
3875,0.495,0.960
3876,0.485,0.910
3877,0.415,0.895
3878,0.385,0.940
3879,0.390,0.975
3880,0.385,0.910
3881,0.405,0.860
3882,0.420,0.890
3883,0.395,0.895
3884,0.390,0.910
3885,0.410,0.895
3886,0.415,0.870
3887,0.410,0.850
3888,0.435,0.810
3889,0.440,0.740
3890,0.415,0.685
3891,0.360,0.720
3892,0.430,0.725
3893,0.470,0.760
3894,0.375,0.670
3895,0.315,0.670
3896,0.435,0.740
3897,0.495,0.770
3898,0.430,0.805
3899,0.400,0.855
3900,0.445,0.900
3901,0.500,0.950
3902,0.525,0.970
3903,0.550,0.940
3904,0.590,0.895
3905,0.535,0.750
3906,0.445,0.570
3907,0.450,0.655
3908,0.400,0.705
3909,0.320,0.755
3910,0.275,0.980
3911,0.295,1.080
3912,0.330,0.895
3913,0.335,0.560
3914,0.350,0.395
3915,0.380,0.430
3916,0.385,0.525
3917,0.330,0.820
3918,0.475,1.330
3919,0.670,1.555
3920,0.980,1.385
3921,1.260,1.065
3922,1.480,0.810
3923,1.670,0.495
3924,1.985,0.135
3925,2.385,-0.275
3926,2.525,-0.550
3927,2.630,-0.595
3928,3.015,-0.570
3929,3.005,-0.415
3930,2.695,-0.125
3931,2.590,0.095
3932,2.295,0.285
3933,1.795,0.465
3934,1.390,0.740
3935,1.145,0.870
3936,1.035,0.940
3937,0.840,1.015
3938,0.705,1.065
3939,0.655,1.125
3940,0.675,1.090
3941,0.665,1.145
3942,0.650,1.185
3943,0.585,1.205
3944,0.570,1.245
3945,0.535,1.245
3946,0.510,1.310
3947,0.490,1.270
3948,0.525,1.230
3949,0.505,1.280
3950,0.515,1.300
3951,0.560,1.340
3952,0.550,1.320
3953,0.495,1.325
3954,0.465,1.355
3955,0.465,1.360
3956,0.475,1.350
3957,0.465,1.375
3958,0.450,1.390
3959,0.450,1.355
3960,0.470,1.365
3961,0.455,1.395
3962,0.440,1.435
3963,0.440,1.440
3964,0.440,1.410
3965,0.415,1.395
3966,0.365,1.420
3967,0.410,1.410
3968,0.435,1.395
3969,0.410,1.425
3970,0.395,1.445
3971,0.410,1.415
3972,0.360,1.425
3973,0.325,1.435
3974,0.350,1.455
3975,0.335,1.430
3976,0.350,1.370
3977,0.310,1.485
3978,0.285,1.480
3979,0.320,1.445
3980,0.300,1.430
3981,0.250,1.475
3982,0.260,1.455
3983,0.290,1.455
3984,0.290,1.455
3985,0.265,1.475
3986,0.275,1.485
3987,0.315,1.450
3988,0.355,1.465
3989,0.345,1.540
3990,0.410,1.505
3991,0.505,1.490
3992,0.495,1.500
3993,0.505,1.545
3994,0.575,1.570
3995,0.610,1.515
3996,0.635,1.535
3997,0.650,1.580
3998,0.725,1.555
3999,0.765,1.555
4000,0.745,1.530
4001,0.705,1.530
4002,0.775,1.550
4003,0.840,1.575
4004,0.800,1.585
4005,0.780,1.560
4006,0.805,1.560
4007,0.850,1.545
4008,0.800,1.545
4009,0.800,1.580
4010,0.825,1.550
4011,0.825,1.540
4012,0.790,1.585
4013,0.815,1.600
4014,0.840,1.590
4015,0.850,1.580
4016,0.820,1.640
4017,0.880,1.630
4018,0.905,1.645
4019,0.860,1.640
4020,0.830,1.665
4021,0.855,1.675
4022,0.865,1.645
4023,0.830,1.660
4024,0.830,1.720
4025,0.865,1.710
4026,0.895,1.690
4027,0.880,1.715
4028,0.855,1.710
4029,0.880,1.655
4030,0.885,1.650
4031,0.870,1.735
4032,0.910,1.750
4033,0.905,1.685
4034,0.900,1.670
4035,0.855,1.750
4036,0.865,1.765
4037,0.925,1.695
4038,0.890,1.695
4039,0.815,1.735
4040,0.835,1.705
4041,0.895,1.725
4042,0.895,1.800
4043,0.890,1.765
4044,0.815,1.705
4045,0.895,1.685
4046,0.940,1.700
4047,0.835,1.780
4048,0.800,1.770
4049,0.870,1.780
4050,0.890,1.755
4051,0.865,1.760
4052,0.870,1.700
4053,0.855,1.695
4054,0.880,1.735
4055,0.910,1.760
4056,0.895,1.735
4057,0.895,1.680
4058,0.880,1.755
4059,0.890,1.750
4060,0.895,1.730
4061,0.880,1.730
4062,0.840,1.745
4063,0.835,1.790
4064,0.870,1.775
4065,0.885,1.790
4066,0.865,1.840
4067,0.900,1.920
4068,1.020,1.965
4069,1.060,1.960
4070,1.060,2.005
4071,1.075,2.025
4072,1.110,2.035
4073,1.115,2.025
4074,1.075,2.045
4075,1.110,2.015
4076,1.190,2.000
4077,1.180,2.005
4078,1.025,2.035
4079,0.965,2.085
4080,0.940,2.035
4081,0.880,1.960
4082,0.865,1.945
4083,0.895,1.945
4084,0.895,1.920
4085,0.835,1.935
4086,0.765,1.915
4087,0.825,1.880
4088,0.825,1.830
4089,0.760,1.860
4090,0.730,1.825
4091,0.790,1.810
4092,0.880,1.805
4093,0.805,1.760
4094,0.785,1.745
4095,0.825,1.705
4096,0.810,1.655
4097,0.765,1.655
4098,0.765,1.595
4099,0.770,1.590
4100,0.750,1.625
4101,0.760,1.665
4102,0.760,1.615
4103,0.755,1.630
4104,0.780,1.635
4105,0.740,1.700
4106,0.745,1.785
4107,0.810,1.835
4108,0.845,1.815
4109,0.880,1.765
4110,0.910,1.660
4111,0.860,1.540
4112,0.770,1.420
4113,0.745,1.485
4114,0.705,1.530
4115,0.640,1.620
4116,0.610,1.790
4117,0.600,1.765
4118,0.610,1.515
4119,0.655,1.205
4120,0.645,1.105
4121,0.635,1.205
4122,0.650,1.435
4123,0.725,1.825
4124,0.805,2.110
4125,1.035,2.095
4126,1.395,1.815
4127,1.725,1.520
4128,2.005,1.290
4129,2.275,0.950
4130,2.550,0.550
4131,2.735,0.260
4132,2.950,0.220
4133,3.285,0.275
4134,3.430,0.375
4135,3.100,0.620
4136,2.845,0.780
4137,2.655,0.910
4138,2.335,1.070
4139,1.800,1.330
4140,1.415,1.445
4141,1.240,1.525
4142,1.125,1.625
4143,1.010,1.655
4144,0.900,1.655
4145,0.880,1.670
4146,0.890,1.720
4147,0.820,1.745
4148,0.785,1.750
4149,0.780,1.705
4150,0.780,1.750
4151,0.720,1.780
4152,0.700,1.745
4153,0.715,1.765
4154,0.710,1.805
4155,0.655,1.830
4156,0.680,1.840
4157,0.735,1.840
4158,0.705,1.855
4159,0.660,1.830
4160,0.670,1.820
4161,0.680,1.830
4162,0.655,1.800
4163,0.610,1.810
4164,0.650,1.795
4165,0.640,1.825
4166,0.600,1.830
4167,0.575,1.840
4168,0.610,1.815
4169,0.585,1.790
4170,0.550,1.845
4171,0.505,1.815
4172,0.530,1.780
4173,0.540,1.745
4174,0.460,1.775
4175,0.455,1.760
4176,0.485,1.765
4177,0.460,1.755
4178,0.420,1.775
4179,0.370,1.765
4180,0.355,1.780
4181,0.420,1.805
4182,0.440,1.785
4183,0.335,1.720
4184,0.350,1.730
4185,0.415,1.820
4186,0.275,1.875
4187,0.380,1.780
4188,0.425,1.680
4189,0.325,1.725
4190,0.280,1.760
4191,0.355,1.820
4192,0.435,1.745
4193,0.425,1.745
4194,0.450,1.780
4195,0.520,1.755
4196,0.530,1.705
4197,0.555,1.765
4198,0.560,1.780
4199,0.645,1.775
4200,0.680,1.795
4201,0.655,1.815
4202,0.750,1.845
4203,0.805,1.815
4204,0.805,1.750
4205,0.830,1.795
4206,0.830,1.785
4207,0.850,1.735
4208,0.855,1.785
4209,0.805,1.815
4210,0.825,1.835
4211,0.860,1.845
4212,0.895,1.845
4213,0.845,1.805
4214,0.860,1.830
4215,0.895,1.785
4216,0.935,1.785
4217,0.895,1.810
4218,0.865,1.820
4219,0.900,1.850
4220,0.845,1.850
4221,0.805,1.875
4222,0.820,1.880
4223,0.925,1.840
4224,0.905,1.820
4225,0.870,1.890
4226,0.900,1.865
4227,0.875,1.795
4228,0.835,1.855
4229,0.815,1.925
4230,0.840,1.920
4231,0.900,1.915
4232,0.900,1.920
4233,0.905,1.915
4234,0.905,1.890
4235,0.880,1.900
4236,0.855,1.890
4237,0.840,1.920
4238,0.885,1.915
4239,0.910,1.950
4240,0.905,1.955
4241,0.895,1.995
4242,0.915,1.950
4243,0.945,1.935
4244,0.925,1.945
4245,0.875,1.935
4246,0.875,1.970
4247,0.890,1.955
4248,0.880,1.980
4249,0.875,2.055
4250,0.855,2.010
4251,0.885,1.935
4252,0.895,1.975
4253,0.835,1.975
4254,0.850,1.920
4255,0.895,1.995
4256,0.875,2.030
4257,0.830,2.010
4258,0.845,1.995
4259,0.895,1.955
4260,0.870,1.950
4261,0.825,1.965
4262,0.860,1.980
4263,0.895,1.970
4264,0.835,2.015
4265,0.805,2.035
4266,0.865,2.000
4267,0.860,1.950
4268,0.825,1.970
4269,0.805,1.995
4270,0.835,2.025
4271,0.860,2.020
4272,0.845,2.100
4273,0.835,2.115
4274,0.870,2.085
4275,0.930,2.105
4276,0.935,2.200
4277,0.935,2.270
4278,1.000,2.290
4279,1.075,2.325
4280,1.090,2.335
4281,1.085,2.320
4282,1.090,2.265
4283,1.135,2.270
4284,1.085,2.330
4285,1.050,2.355
4286,1.000,2.350
4287,0.940,2.345
4288,0.850,2.290
4289,0.845,2.275
4290,0.865,2.220
4291,0.835,2.215
4292,0.765,2.285
4293,0.740,2.335
4294,0.740,2.270
4295,0.740,2.170
4296,0.755,2.175
4297,0.735,2.185
4298,0.730,2.210
4299,0.730,2.250
4300,0.700,2.230
4301,0.695,2.135
4302,0.780,2.095
4303,0.765,2.070
4304,0.750,2.070
4305,0.715,2.100
4306,0.740,2.075
4307,0.730,2.005
4308,0.670,1.985
4309,0.680,2.040
4310,0.700,2.000
4311,0.710,2.055
4312,0.680,2.115
4313,0.670,2.095
4314,0.715,2.055
4315,0.715,2.130
4316,0.720,2.270
4317,0.770,2.330
4318,0.830,2.255
4319,0.825,2.160
4320,0.765,2.000
4321,0.710,1.885
4322,0.690,1.900
4323,0.570,1.900
4324,0.510,2.080
4325,0.475,2.335
4326,0.500,2.265
4327,0.525,2.035
4328,0.490,1.850
4329,0.535,1.705
4330,0.610,1.670
4331,0.585,1.795
4332,0.545,2.065
4333,0.670,2.400
4334,0.820,2.555
4335,1.085,2.615
4336,1.340,2.280
4337,1.705,1.920
4338,2.020,1.855
4339,2.315,1.495
4340,2.540,1.025
4341,2.795,0.830
4342,3.050,0.760
4343,3.265,0.825
4344,3.375,0.930
4345,3.325,1.075
4346,2.965,1.180
4347,2.585,1.330
4348,2.340,1.520
4349,2.015,1.735
4350,1.560,1.860
4351,1.230,1.995
4352,1.030,2.100
4353,0.885,2.095
4354,0.880,2.070
4355,0.835,2.110
4356,0.735,2.240
4357,0.670,2.255
4358,0.705,2.200
4359,0.680,2.175
4360,0.630,2.220
4361,0.585,2.315
4362,0.610,2.310
4363,0.625,2.290
4364,0.545,2.250
4365,0.515,2.255
4366,0.560,2.265
4367,0.555,2.270
4368,0.505,2.375
4369,0.485,2.350
4370,0.485,2.290
4371,0.520,2.270
4372,0.445,2.300
4373,0.425,2.330
4374,0.430,2.325
4375,0.450,2.350
4376,0.420,2.335
4377,0.365,2.300
4378,0.430,2.285
4379,0.435,2.280
4380,0.410,2.255
4381,0.360,2.260
4382,0.370,2.295
4383,0.410,2.330
4384,0.360,2.295
4385,0.315,2.285
4386,0.310,2.270
4387,0.300,2.235
4388,0.265,2.200
4389,0.220,2.250
4390,0.265,2.240
4391,0.245,2.230
4392,0.200,2.250
4393,0.175,2.260
4394,0.175,2.235
4395,0.185,2.200
4396,0.145,2.215
4397,0.135,2.240
4398,0.165,2.195
4399,0.150,2.180
4400,0.150,2.220
4401,0.085,2.255
4402,0.135,2.250
4403,0.195,2.220
4404,0.190,2.180
4405,0.190,2.205
4406,0.245,2.225
4407,0.290,2.180
4408,0.295,2.210
4409,0.295,2.270
4410,0.400,2.285
4411,0.455,2.250
4412,0.455,2.270
4413,0.445,2.240
4414,0.535,2.210
4415,0.585,2.160
4416,0.570,2.200
4417,0.620,2.250
4418,0.675,2.260
4419,0.685,2.235
4420,0.670,2.260
4421,0.690,2.235
4422,0.715,2.185
4423,0.715,2.180
4424,0.690,2.170
4425,0.705,2.220
4426,0.730,2.165
4427,0.720,2.170
4428,0.700,2.255
4429,0.680,2.250
4430,0.700,2.170
4431,0.715,2.190
4432,0.690,2.190
4433,0.680,2.130
4434,0.705,2.180
4435,0.705,2.170
4436,0.665,2.195
4437,0.660,2.195
4438,0.700,2.175
4439,0.730,2.205
4440,0.685,2.200
4441,0.680,2.205
4442,0.710,2.165
4443,0.710,2.140
4444,0.645,2.135
4445,0.650,2.180
4446,0.710,2.120
4447,0.680,2.105
4448,0.685,2.170
4449,0.675,2.165
4450,0.700,2.130
4451,0.685,2.175
4452,0.675,2.225
4453,0.730,2.155
4454,0.745,2.120
4455,0.690,2.120
4456,0.700,2.135
4457,0.745,2.065
4458,0.700,2.030
4459,0.675,2.090
4460,0.665,2.125
4461,0.690,2.105
4462,0.700,2.100
4463,0.680,2.090
4464,0.665,2.090
4465,0.685,2.050
4466,0.680,1.985
4467,0.620,2.015
4468,0.610,2.045
4469,0.645,2.020
4470,0.665,2.025
4471,0.640,2.020
4472,0.600,2.040
4473,0.660,1.995
4474,0.660,1.955
4475,0.605,1.945
4476,0.575,1.990
4477,0.630,1.970
4478,0.640,1.960
4479,0.575,1.980
4480,0.595,1.965
4481,0.645,1.955
4482,0.610,1.945
4483,0.615,1.965
4484,0.620,2.005
4485,0.650,1.950
4486,0.675,1.985
4487,0.660,2.015
4488,0.695,2.130
4489,0.745,2.165
4490,0.800,2.040
4491,0.765,2.115
4492,0.735,2.285
4493,0.790,2.070
4494,0.870,2.035
4495,0.855,2.190
4496,0.800,2.190
4497,0.780,2.055
4498,0.715,2.065
4499,0.645,2.135
4500,0.575,2.105
4501,0.615,2.135
4502,0.660,2.090
4503,0.600,2.010
4504,0.520,2.040
4505,0.525,2.035
4506,0.530,1.980
4507,0.480,1.950
4508,0.465,1.935
4509,0.510,1.905
4510,0.505,1.920
4511,0.435,1.955
4512,0.455,1.925
4513,0.505,1.835
4514,0.475,1.770
4515,0.455,1.765
4516,0.525,1.735
4517,0.550,1.655
4518,0.475,1.610
4519,0.465,1.635
4520,0.470,1.650
4521,0.485,1.575
4522,0.445,1.615
4523,0.420,1.635
4524,0.430,1.570
4525,0.430,1.625
4526,0.460,1.725
4527,0.460,1.755
4528,0.535,1.755
4529,0.630,1.760
4530,0.675,1.675
4531,0.580,1.605
4532,0.540,1.390
4533,0.490,1.345
4534,0.370,1.480
4535,0.280,1.530
4536,0.285,1.700
4537,0.250,1.695
4538,0.180,1.495
4539,0.225,1.280
4540,0.315,1.025
4541,0.285,0.805
4542,0.260,0.950
4543,0.260,1.305
4544,0.370,1.620
4545,0.510,1.820
4546,0.685,1.815
4547,0.965,1.535
4548,1.290,1.210
4549,1.585,0.990
4550,1.835,0.685
4551,2.025,0.275
4552,2.185,-0.020
4553,2.445,-0.085
4554,2.715,0.005
4555,2.820,0.080
4556,2.625,0.195
4557,2.375,0.330
4558,2.190,0.565
4559,1.995,0.690
4560,1.525,0.855
4561,1.115,1.050
4562,0.895,1.195
4563,0.800,1.240
4564,0.715,1.245
4565,0.605,1.235
4566,0.550,1.305
4567,0.560,1.355
4568,0.530,1.275
4569,0.460,1.325
4570,0.450,1.350
4571,0.475,1.355
4572,0.450,1.330
4573,0.390,1.350
4574,0.405,1.370
4575,0.405,1.340
4576,0.355,1.300
4577,0.350,1.360
4578,0.340,1.375
4579,0.365,1.330
4580,0.345,1.300
4581,0.345,1.350
4582,0.325,1.365
4583,0.295,1.345
4584,0.340,1.305
4585,0.280,1.355
4586,0.305,1.320
4587,0.285,1.270
4588,0.275,1.285
4589,0.255,1.265
4590,0.265,1.280
4591,0.290,1.210
4592,0.265,1.165
4593,0.220,1.190
4594,0.225,1.175
4595,0.260,1.190
4596,0.225,1.130
4597,0.175,1.145
4598,0.175,1.135
4599,0.205,1.090
4600,0.150,1.085
4601,0.070,1.060
4602,0.110,1.090
4603,0.115,1.075
4604,0.085,1.075
4605,0.065,1.085
4606,0.040,1.065
4607,0.070,1.025
4608,0.050,0.960
4609,0.000,0.960
4610,0.035,0.965
4611,0.065,0.905
4612,0.045,0.915
4613,0.020,0.895
4614,0.090,0.915
4615,0.150,0.915
4616,0.130,0.890
4617,0.110,0.895
4618,0.230,0.900
4619,0.245,0.865
4620,0.245,0.825
4621,0.290,0.880
4622,0.340,0.850
4623,0.390,0.825
4624,0.375,0.820
4625,0.410,0.825
4626,0.450,0.800
4627,0.460,0.760
4628,0.485,0.800
4629,0.485,0.790
4630,0.490,0.730
4631,0.495,0.755
4632,0.485,0.790
4633,0.495,0.755
4634,0.525,0.775
4635,0.530,0.790
4636,0.520,0.745
4637,0.505,0.730
4638,0.550,0.705
4639,0.570,0.690
4640,0.525,0.705
4641,0.535,0.660
4642,0.540,0.630
4643,0.545,0.660
4644,0.505,0.665
4645,0.550,0.630
4646,0.560,0.625
4647,0.525,0.670
4648,0.475,0.690
4649,0.490,0.660
4650,0.525,0.615
4651,0.525,0.590
4652,0.525,0.595
4653,0.525,0.600
4654,0.530,0.585
4655,0.500,0.605
4656,0.520,0.595
4657,0.565,0.630
4658,0.570,0.595
4659,0.550,0.635
4660,0.555,0.595
4661,0.595,0.595
4662,0.575,0.620
4663,0.560,0.585
4664,0.550,0.560
4665,0.570,0.545
4666,0.550,0.580
4667,0.515,0.545
4668,0.550,0.530
4669,0.585,0.520
4670,0.550,0.500
4671,0.535,0.495
4672,0.585,0.495
4673,0.570,0.485
4674,0.560,0.465
4675,0.550,0.450
4676,0.540,0.435
4677,0.535,0.450
4678,0.495,0.410
4679,0.480,0.420
4680,0.525,0.375
4681,0.505,0.375
4682,0.505,0.375
4683,0.520,0.390
4684,0.545,0.390
4685,0.540,0.370
4686,0.480,0.375
4687,0.470,0.380
4688,0.480,0.320
4689,0.470,0.345
4690,0.430,0.355
4691,0.475,0.345
4692,0.545,0.305
4693,0.545,0.290
4694,0.500,0.315
4695,0.495,0.360
4696,0.510,0.335
4697,0.475,0.415
4698,0.485,0.475
4699,0.565,0.495
4700,0.605,0.505
4701,0.625,0.525
4702,0.660,0.540
4703,0.685,0.515
4704,0.665,0.505
4705,0.585,0.490
4706,0.600,0.510
4707,0.615,0.460
4708,0.525,0.445
4709,0.445,0.485
4710,0.425,0.530
4711,0.460,0.465
4712,0.455,0.425
4713,0.380,0.400
4714,0.370,0.430
4715,0.350,0.395
4716,0.310,0.340
4717,0.300,0.355
4718,0.355,0.315
4719,0.345,0.255
4720,0.305,0.250
4721,0.285,0.300
4722,0.290,0.280
4723,0.305,0.185
4724,0.310,0.170
4725,0.340,0.210
4726,0.320,0.135
4727,0.315,0.055
4728,0.305,0.070
4729,0.300,0.080
4730,0.345,0.020
4731,0.330,0.050
4732,0.325,0.085
4733,0.370,0.100
4734,0.395,0.090
4735,0.435,0.075
4736,0.445,0.215
4737,0.450,0.260
4738,0.485,0.215
4739,0.565,0.185
4740,0.560,0.115
4741,0.545,-0.005
4742,0.510,-0.160
4743,0.495,-0.140
4744,0.445,0.000
4745,0.405,0.105
4746,0.405,0.240
4747,0.365,0.155
4748,0.330,-0.090
4749,0.310,-0.395
4750,0.330,-0.665
4751,0.315,-0.690
4752,0.255,-0.455
4753,0.300,-0.060
4754,0.330,0.220
4755,0.450,0.420
4756,0.590,0.345
4757,0.795,0.040
4758,1.045,-0.250
4759,1.280,-0.505
4760,1.455,-0.840
4761,1.695,-1.210
4762,2.035,-1.525
4763,2.340,-1.625
4764,2.460,-1.515
4765,2.490,-1.400
4766,2.425,-1.290
4767,2.260,-1.065
4768,2.055,-0.795
4769,1.730,-0.630
4770,1.270,-0.415
4771,0.825,-0.240
4772,0.645,-0.155
4773,0.525,-0.140
4774,0.465,-0.085
4775,0.395,0.040
4776,0.375,0.060
4777,0.330,0.060
4778,0.325,0.080
4779,0.280,0.120
4780,0.250,0.125
4781,0.250,0.100
4782,0.245,0.130
4783,0.210,0.190
4784,0.200,0.170
4785,0.205,0.175
4786,0.200,0.160
4787,0.170,0.145
4788,0.150,0.125
4789,0.170,0.130
4790,0.160,0.145
4791,0.130,0.190
4792,0.110,0.175
4793,0.120,0.150
4794,0.120,0.180
4795,0.070,0.145
4796,0.060,0.130
4797,0.110,0.110
4798,0.095,0.150
4799,0.050,0.155
4800,0.050,0.135
4801,0.050,0.035
4802,0.040,0.065
4803,-0.005,0.140
4804,0.025,0.115
4805,0.000,0.085
4806,-0.025,0.050
4807,-0.010,0.090
4808,0.000,0.120
4809,-0.025,0.085
4810,-0.055,0.085
4811,-0.080,0.045
4812,-0.110,0.030
4813,-0.090,0.045
4814,-0.135,0.065
4815,-0.150,0.020
4816,-0.140,0.025
4817,-0.140,0.045
4818,-0.145,0.050
4819,-0.170,-0.045
4820,-0.160,-0.025
4821,-0.100,0.010
4822,-0.100,0.015
4823,-0.155,0.005
4824,-0.140,-0.055
4825,-0.085,-0.030
4826,-0.085,0.035
4827,-0.050,0.060
4828,0.020,0.000
4829,0.065,-0.090
4830,0.045,-0.040
4831,0.130,0.080
4832,0.200,0.045
4833,0.210,0.000
4834,0.185,0.025
4835,0.275,0.065
4836,0.300,-0.025
4837,0.275,-0.050
4838,0.290,0.015
4839,0.310,0.035
4840,0.315,-0.055
4841,0.305,0.000
4842,0.300,0.025
4843,0.300,0.025
4844,0.320,-0.035
4845,0.325,-0.030
4846,0.335,-0.035
4847,0.315,-0.090
4848,0.300,-0.070
4849,0.335,-0.005
4850,0.295,-0.005
4851,0.295,-0.020
4852,0.330,-0.010
4853,0.320,-0.020
4854,0.285,-0.010
4855,0.255,-0.015
4856,0.310,-0.055
4857,0.330,-0.050
4858,0.255,-0.040
4859,0.300,-0.020
4860,0.345,0.005
4861,0.305,-0.005
4862,0.290,0.030
4863,0.340,0.005
4864,0.330,-0.010
4865,0.300,-0.060
4866,0.260,-0.025
4867,0.330,0.010
4868,0.320,-0.015
4869,0.295,-0.005
4870,0.300,0.030
4871,0.345,0.050
4872,0.295,-0.040
4873,0.270,-0.015
4874,0.290,0.030
4875,0.320,-0.020
4876,0.320,-0.055
4877,0.265,-0.015
4878,0.270,-0.005
4879,0.320,0.005
4880,0.310,-0.005
4881,0.265,0.020
4882,0.290,0.025
4883,0.325,-0.035
4884,0.330,-0.045
4885,0.270,-0.050
4886,0.300,-0.015
4887,0.320,-0.055
4888,0.290,-0.075
4889,0.265,0.000
4890,0.285,-0.025
4891,0.260,-0.055
4892,0.275,-0.040
4893,0.295,0.005
4894,0.280,-0.025
4895,0.275,-0.100
4896,0.265,-0.050
4897,0.260,-0.005
4898,0.265,-0.005
4899,0.300,-0.005
4900,0.320,0.025
4901,0.255,-0.010
4902,0.295,-0.020
4903,0.325,-0.055
4904,0.315,-0.030
4905,0.270,-0.010
4906,0.300,0.075
4907,0.335,0.080
4908,0.330,0.090
4909,0.300,0.120
4910,0.345,0.165
4911,0.410,0.165
4912,0.440,0.210
4913,0.455,0.260
4914,0.485,0.295
4915,0.515,0.290
4916,0.490,0.250
4917,0.505,0.295
4918,0.535,0.290
4919,0.520,0.215
4920,0.430,0.210
4921,0.330,0.270
4922,0.315,0.305
4923,0.320,0.225
4924,0.295,0.220
4925,0.250,0.205
4926,0.230,0.230
4927,0.190,0.190
4928,0.150,0.190
4929,0.185,0.225
4930,0.230,0.170
4931,0.245,0.080
4932,0.190,0.085
4933,0.200,0.155
4934,0.245,0.120
4935,0.245,0.070
4936,0.265,0.085
4937,0.245,0.030
4938,0.255,-0.065
4939,0.225,-0.110
4940,0.190,-0.105
4941,0.200,-0.065
4942,0.195,-0.030
4943,0.170,-0.075
4944,0.175,-0.145
4945,0.135,-0.095
4946,0.110,-0.090
4947,0.150,-0.050
4948,0.155,-0.005
4949,0.190,0.140
4950,0.255,0.110
4951,0.330,0.100
4952,0.355,0.045
4953,0.330,0.020
4954,0.285,-0.120
4955,0.190,-0.275
4956,0.090,-0.235
4957,0.105,-0.155
4958,0.060,-0.105
4959,-0.045,0.020
4960,-0.120,0.050
4961,-0.020,-0.145
4962,0.060,-0.400
4963,0.015,-0.555
4964,-0.070,-0.535
4965,-0.025,-0.340
4966,0.065,0.000
4967,0.220,0.310
4968,0.405,0.445
4969,0.640,0.200
4970,1.005,-0.100
4971,1.280,-0.325
4972,1.500,-0.620
4973,1.785,-0.925
4974,2.125,-1.280
4975,2.400,-1.590
4976,2.530,-1.555
4977,2.655,-1.325
4978,2.685,-1.205
4979,2.520,-1.105
4980,2.190,-0.905
4981,1.880,-0.690
4982,1.460,-0.535
4983,1.010,-0.330
4984,0.715,-0.160
4985,0.555,-0.080
4986,0.480,-0.075
4987,0.375,-0.050
4988,0.295,-0.015
4989,0.275,0.065
4990,0.265,0.080
4991,0.265,0.095
4992,0.205,0.135
4993,0.185,0.145
4994,0.185,0.160
4995,0.180,0.110
4996,0.120,0.145
4997,0.105,0.140
4998,0.120,0.135
4999,0.105,0.130
5000,0.095,0.175
5001,0.080,0.145
5002,0.090,0.165
5003,0.090,0.185
5004,0.030,0.160
5005,0.035,0.150
5006,0.045,0.150
5007,0.030,0.145
5008,-0.005,0.215
5009,-0.005,0.210
5010,0.030,0.185
5011,-0.015,0.150
5012,-0.045,0.160
5013,-0.025,0.155
5014,-0.030,0.130
5015,-0.070,0.185
5016,-0.105,0.245
5017,-0.105,0.195
5018,-0.120,0.130
5019,-0.135,0.135
5020,-0.130,0.160
5021,-0.080,0.150
5022,-0.065,0.160
5023,-0.125,0.145
5024,-0.160,0.175
5025,-0.150,0.185
5026,-0.185,0.100
5027,-0.250,0.090
5028,-0.295,0.160
5029,-0.210,0.175
5030,-0.195,0.170
5031,-0.230,0.170
5032,-0.200,0.205
5033,-0.180,0.155
5034,-0.215,0.100
5035,-0.260,0.105
5036,-0.265,0.130
5037,-0.190,0.155
5038,-0.110,0.155
5039,-0.130,0.145
5040,-0.070,0.220
5041,-0.010,0.145
5042,0.045,0.125
5043,0.020,0.115
5044,0.055,0.180
5045,0.105,0.155
5046,0.085,0.160
5047,0.120,0.145
5048,0.210,0.190
5049,0.260,0.095
5050,0.245,0.040
5051,0.250,0.140
5052,0.270,0.195
5053,0.320,0.065
5054,0.310,0.115
5055,0.245,0.165
5056,0.235,0.135
5057,0.345,0.095
5058,0.355,0.160
5059,0.315,0.155
5060,0.275,0.095
5061,0.255,0.125
5062,0.370,0.155
5063,0.365,0.180
5064,0.270,0.160
5065,0.300,0.125
5066,0.415,0.150
5067,0.390,0.145
5068,0.260,0.145
5069,0.360,0.175
5070,0.450,0.155
5071,0.290,0.160
5072,0.250,0.170
5073,0.400,0.145
5074,0.420,0.160
5075,0.365,0.190
5076,0.355,0.195
5077,0.375,0.175
5078,0.340,0.200
5079,0.300,0.200
5080,0.330,0.225
5081,0.370,0.220
5082,0.385,0.200
5083,0.360,0.200
5084,0.355,0.215
5085,0.395,0.165
5086,0.405,0.145
5087,0.390,0.195
5088,0.390,0.205
5089,0.420,0.175
5090,0.410,0.180
5091,0.365,0.220
5092,0.405,0.255
5093,0.405,0.190
5094,0.395,0.205
5095,0.380,0.250
5096,0.420,0.240
5097,0.390,0.185
5098,0.385,0.210
5099,0.365,0.210
5100,0.355,0.205
5101,0.350,0.195
5102,0.370,0.220
5103,0.340,0.215
5104,0.330,0.185
5105,0.360,0.175
5106,0.355,0.170
5107,0.330,0.200
5108,0.345,0.190
5109,0.370,0.170
5110,0.365,0.160
5111,0.325,0.215
5112,0.375,0.230
5113,0.365,0.155
5114,0.345,0.180
5115,0.335,0.235
5116,0.370,0.225
5117,0.380,0.200
5118,0.390,0.220
5119,0.395,0.255
5120,0.385,0.265
5121,0.435,0.325
5122,0.475,0.400
5123,0.525,0.455
5124,0.585,0.420
5125,0.585,0.430
5126,0.605,0.450
5127,0.595,0.430
5128,0.640,0.425
5129,0.635,0.405
5130,0.575,0.410
5131,0.490,0.460
5132,0.430,0.425
5133,0.410,0.440
5134,0.370,0.430
5135,0.375,0.445
5136,0.390,0.390
5137,0.310,0.380
5138,0.235,0.405
5139,0.265,0.400
5140,0.325,0.325
5141,0.310,0.315
5142,0.265,0.320
5143,0.315,0.385
5144,0.335,0.350
5145,0.305,0.330
5146,0.315,0.330
5147,0.360,0.300
5148,0.395,0.250
5149,0.370,0.215
5150,0.330,0.190
5151,0.335,0.175
5152,0.335,0.150
5153,0.335,0.190
5154,0.305,0.225
5155,0.300,0.180
5156,0.300,0.195
5157,0.315,0.260
5158,0.325,0.260
5159,0.335,0.265
5160,0.375,0.380
5161,0.435,0.410
5162,0.445,0.355
5163,0.515,0.325
5164,0.490,0.250
5165,0.430,0.110
5166,0.370,0.100
5167,0.320,0.150
5168,0.260,0.195
5169,0.250,0.390
5170,0.225,0.490
5171,0.245,0.280
5172,0.260,0.005
5173,0.300,-0.160
5174,0.300,-0.165
5175,0.280,-0.025
5176,0.295,0.285
5177,0.380,0.685
5178,0.535,0.855
5179,0.830,0.675
5180,1.105,0.400
5181,1.325,0.130
5182,1.575,-0.110
5183,1.880,-0.495
5184,2.140,-0.825
5185,2.410,-0.975
5186,2.670,-0.990
5187,2.825,-0.940
5188,2.725,-0.780
5189,2.515,-0.570
5190,2.310,-0.395
5191,2.035,-0.220
5192,1.590,-0.005
5193,1.190,0.150
5194,0.965,0.255
5195,0.805,0.325
5196,0.685,0.340
5197,0.610,0.385
5198,0.590,0.445
5199,0.570,0.460
5200,0.490,0.495
5201,0.480,0.530
5202,0.490,0.540
5203,0.455,0.545
5204,0.385,0.585
5205,0.415,0.580
5206,0.460,0.580
5207,0.400,0.560
5208,0.385,0.610
5209,0.430,0.630
5210,0.395,0.585
5211,0.350,0.635
5212,0.305,0.685
5213,0.340,0.675
5214,0.300,0.665
5215,0.280,0.675
5216,0.285,0.725
5217,0.335,0.705
5218,0.335,0.645
5219,0.285,0.675
5220,0.265,0.685
5221,0.325,0.670
5222,0.310,0.665
5223,0.290,0.725
5224,0.270,0.670
5225,0.300,0.710
5226,0.285,0.710
5227,0.225,0.735
5228,0.240,0.715
5229,0.260,0.745
5230,0.245,0.710
5231,0.205,0.750
5232,0.240,0.780
5233,0.225,0.755
5234,0.190,0.810
5235,0.175,0.805
5236,0.190,0.820
5237,0.195,0.830
5238,0.160,0.850
5239,0.125,0.855
5240,0.185,0.855
5241,0.210,0.835
5242,0.180,0.825
5243,0.210,0.885
5244,0.270,0.890
5245,0.275,0.865
5246,0.280,0.885
5247,0.320,0.880
5248,0.395,0.905
5249,0.420,0.890
5250,0.410,0.960
5251,0.495,0.995
5252,0.570,1.020
5253,0.565,0.980
5254,0.585,1.025
5255,0.645,1.015
5256,0.660,0.965
5257,0.630,1.010
5258,0.615,1.055
5259,0.715,1.025
5260,0.765,1.080
5261,0.735,1.145
5262,0.730,1.080
5263,0.705,1.005
5264,0.740,1.030
5265,0.770,1.205
5266,0.775,1.200
5267,0.790,1.075
5268,0.745,1.100
5269,0.690,1.140
5270,0.730,1.145
5271,0.800,1.170
5272,0.760,1.210
5273,0.765,1.240
5274,0.780,1.215
5275,0.795,1.205
5276,0.775,1.280
5277,0.790,1.335
5278,0.820,1.290
5279,0.840,1.300
5280,0.810,1.295
5281,0.795,1.335
5282,0.840,1.340
5283,0.820,1.290
5284,0.835,1.355
5285,0.840,1.390
5286,0.865,1.370
5287,0.845,1.390
5288,0.850,1.440
5289,0.830,1.450
5290,0.845,1.470
5291,0.855,1.435
5292,0.850,1.490
5293,0.850,1.560
5294,0.870,1.510
5295,0.875,1.520
5296,0.840,1.565
5297,0.845,1.540
5298,0.880,1.545
5299,0.885,1.550
5300,0.865,1.620
5301,0.915,1.590
5302,0.940,1.550
5303,0.905,1.610
5304,0.875,1.615
5305,0.890,1.610
5306,0.885,1.590
5307,0.825,1.610
5308,0.845,1.660
5309,0.900,1.660
5310,0.870,1.630
5311,0.860,1.660
5312,0.855,1.725
5313,0.895,1.700
5314,0.905,1.700
5315,0.870,1.730
5316,0.860,1.730
5317,0.895,1.740
5318,0.875,1.730
5319,0.865,1.760
5320,0.880,1.815
5321,0.920,1.800
5322,0.920,1.810
5323,0.880,1.855
5324,0.910,1.910
5325,0.945,1.895
5326,0.960,1.925
5327,0.975,2.030
5328,1.030,2.085
5329,1.070,2.090
5330,1.115,2.140
5331,1.130,2.205
5332,1.170,2.215
5333,1.185,2.205
5334,1.165,2.260
5335,1.195,2.305
5336,1.200,2.255
5337,1.145,2.220
5338,1.040,2.260
5339,1.005,2.310
5340,1.005,2.265
5341,1.020,2.220
5342,0.975,2.265
5343,0.930,2.305
5344,0.915,2.275
5345,0.910,2.255
5346,0.880,2.225
5347,0.885,2.200
5348,0.910,2.200
5349,0.925,2.215
5350,0.850,2.250
5351,0.875,2.255
5352,0.900,2.175
5353,0.875,2.170
5354,0.910,2.185
5355,0.920,2.120
5356,0.960,2.085
5357,0.925,2.090
5358,0.885,2.100
5359,0.920,2.115
5360,0.920,2.080
5361,0.840,2.065
5362,0.890,2.135
5363,0.885,2.120
5364,0.880,2.140
5365,0.880,2.330
5366,0.900,2.420
5367,0.980,2.375
5368,1.030,2.320
5369,0.985,2.295
5370,1.015,2.195
5371,0.970,1.985
5372,0.900,1.995
5373,0.855,2.130
5374,0.760,2.220
5375,0.785,2.375
5376,0.755,2.480
5377,0.705,2.320
5378,0.765,2.010
5379,0.820,1.795
5380,0.785,1.730
5381,0.765,1.925
5382,0.770,2.255
5383,0.915,2.645
5384,1.080,2.935
5385,1.310,2.795
5386,1.640,2.445
5387,1.970,2.140
5388,2.180,1.840
5389,2.365,1.405
5390,2.640,1.050
5391,2.890,0.835
5392,3.045,0.780
5393,3.160,0.955
5394,3.240,1.110
5395,3.095,1.255
5396,2.770,1.535
5397,2.525,1.725
5398,2.195,1.845
5399,1.740,2.030
5400,1.430,2.305
5401,1.325,2.485
5402,1.265,2.445
5403,1.160,2.470
5404,1.040,2.515
5405,1.010,2.570
5406,1.065,2.570
5407,1.045,2.630
5408,0.985,2.730
5409,0.925,2.635
5410,0.915,2.575
5411,0.965,2.780
5412,0.885,2.645
5413,0.795,2.640
5414,0.940,2.795
5415,0.915,2.685
5416,0.860,2.665
5417,0.805,2.780
5418,0.825,2.810
5419,0.865,2.770
5420,0.810,2.755
5421,0.850,2.730
5422,0.865,2.730
5423,0.840,2.795
5424,0.795,2.845
5425,0.775,2.820
5426,0.785,2.765
5427,0.790,2.735
5428,0.735,2.770
5429,0.695,2.805
5430,0.740,2.735
5431,0.735,2.790
5432,0.685,2.845
5433,0.715,2.815
5434,0.720,2.750
5435,0.695,2.735
5436,0.650,2.770
5437,0.625,2.790
5438,0.675,2.760
5439,0.640,2.765
5440,0.595,2.775
5441,0.570,2.785
5442,0.615,2.765
5443,0.560,2.760
5444,0.555,2.760
5445,0.575,2.780
5446,0.570,2.735
5447,0.575,2.750
5448,0.525,2.800
5449,0.560,2.800
5450,0.580,2.735
5451,0.540,2.730
5452,0.525,2.795
5453,0.580,2.750
5454,0.640,2.715
5455,0.630,2.725
5456,0.650,2.755
5457,0.680,2.715
5458,0.725,2.710
5459,0.745,2.750
5460,0.755,2.780
5461,0.820,2.760
5462,0.860,2.785
5463,0.885,2.800
5464,0.895,2.805
5465,0.945,2.770
5466,0.985,2.730
5467,0.985,2.760
5468,0.980,2.770
5469,0.965,2.735
5470,1.025,2.705
5471,1.000,2.765
5472,0.985,2.820
5473,1.035,2.780
5474,1.030,2.735
5475,0.995,2.695
5476,0.960,2.725
5477,1.000,2.695
5478,1.005,2.655
5479,0.965,2.715
5480,0.960,2.740
5481,1.015,2.755
5482,1.035,2.715
5483,0.990,2.720
5484,0.965,2.710
5485,0.995,2.690
5486,1.025,2.645
5487,0.995,2.690
5488,0.975,2.705
5489,1.020,2.705
5490,1.035,2.690
5491,0.965,2.740
5492,0.945,2.760
5493,0.985,2.735
5494,1.020,2.695
5495,0.995,2.740
5496,0.995,2.745
5497,1.015,2.695
5498,1.035,2.680
5499,1.020,2.700
5500,0.985,2.705
5501,0.955,2.710
5502,0.960,2.680
5503,0.945,2.675
5504,0.915,2.705
5505,0.945,2.690
5506,0.980,2.670
5507,0.970,2.670
5508,0.965,2.685
5509,0.995,2.630
5510,0.990,2.595
5511,0.945,2.610
5512,0.925,2.640
5513,0.940,2.625
5514,0.940,2.640
5515,0.920,2.615
5516,0.900,2.650
5517,0.895,2.600
5518,0.895,2.595
5519,0.875,2.540
5520,0.875,2.565
5521,0.890,2.555
5522,0.870,2.485
5523,0.855,2.505
5524,0.855,2.545
5525,0.900,2.560
5526,0.910,2.495
5527,0.880,2.500
5528,0.845,2.520
5529,0.870,2.470
5530,0.890,2.430
5531,0.845,2.465
5532,0.825,2.470
5533,0.830,2.450
5534,0.840,2.435
5535,0.805,2.455
5536,0.790,2.490
5537,0.855,2.500
5538,0.870,2.490
5539,0.835,2.595
5540,0.845,2.650
5541,0.930,2.640
5542,1.010,2.575
5543,1.005,2.680
5544,1.025,2.705
5545,1.055,2.695
5546,1.055,2.660
5547,1.045,2.710
5548,1.035,2.690
5549,0.995,2.645
5550,0.950,2.580
5551,0.910,2.595
5552,0.865,2.615
5553,0.770,2.685
5554,0.790,2.600
5555,0.860,2.460
5556,0.705,2.445
5557,0.675,2.560
5558,0.785,2.510
5559,0.695,2.370
5560,0.625,2.415
5561,0.690,2.425
5562,0.740,2.375
5563,0.705,2.375
5564,0.675,2.395
5565,0.700,2.360
5566,0.740,2.245
5567,0.690,2.210
5568,0.670,2.205
5569,0.685,2.125
5570,0.690,2.075
5571,0.640,2.075
5572,0.600,2.045
5573,0.630,2.035
5574,0.630,2.040
5575,0.640,2.015
5576,0.625,2.055
5577,0.660,2.060
5578,0.660,2.030
5579,0.660,2.095
5580,0.655,2.215
5581,0.695,2.205
5582,0.735,2.130
5583,0.765,2.075
5584,0.715,1.970
5585,0.660,1.775
5586,0.615,1.675
5587,0.525,1.730
5588,0.445,1.850
5589,0.435,1.990
5590,0.420,2.090
5591,0.355,1.995
5592,0.360,1.765
5593,0.430,1.440
5594,0.460,1.230
5595,0.410,1.280
5596,0.370,1.525
5597,0.480,1.910
5598,0.645,2.310
5599,0.805,2.375
5600,1.045,2.185
5601,1.365,1.830
5602,1.665,1.490
5603,1.845,1.185
5604,2.035,0.745
5605,2.335,0.295
5606,2.690,0.065
5607,2.820,0.030
5608,2.880,0.210
5609,2.845,0.345
5610,2.650,0.480
5611,2.425,0.685
5612,2.145,0.910
5613,1.755,1.055
5614,1.325,1.265
5615,1.060,1.510
5616,0.905,1.575
5617,0.810,1.630
5618,0.730,1.630
5619,0.650,1.655
5620,0.605,1.725
5621,0.615,1.710
5622,0.570,1.690
5623,0.520,1.715
5624,0.510,1.735
5625,0.510,1.720
5626,0.505,1.710
5627,0.470,1.720
5628,0.440,1.740
5629,0.475,1.730
5630,0.450,1.705
5631,0.405,1.730
5632,0.410,1.720
5633,0.380,1.680
5634,0.355,1.680
5635,0.315,1.710
5636,0.335,1.660
5637,0.375,1.640
5638,0.370,1.635
5639,0.320,1.675
5640,0.300,1.675
5641,0.310,1.600
5642,0.250,1.610
5643,0.265,1.640
5644,0.330,1.590
5645,0.325,1.570
5646,0.290,1.575
5647,0.240,1.580
5648,0.215,1.565
5649,0.220,1.480
5650,0.180,1.495
5651,0.175,1.520
5652,0.205,1.480
5653,0.210,1.445
5654,0.170,1.450
5655,0.145,1.475
5656,0.115,1.435
5657,0.085,1.410
5658,0.065,1.420
5659,0.015,1.425
5660,0.025,1.355
5661,0.090,1.385
5662,0.075,1.350
5663,0.045,1.330
5664,0.050,1.345
5665,0.055,1.315
5666,0.070,1.325
5667,0.020,1.295
5668,0.030,1.305
5669,0.085,1.300
5670,0.115,1.275
5671,0.130,1.270
5672,0.205,1.270
5673,0.255,1.230
5674,0.255,1.270
5675,0.290,1.255
5676,0.355,1.245
5677,0.390,1.215
5678,0.395,1.205
5679,0.400,1.260
5680,0.465,1.165
5681,0.470,1.165
5682,0.445,1.190
5683,0.435,1.155
5684,0.500,1.145
5685,0.490,1.105
5686,0.490,1.120
5687,0.520,1.170
5688,0.555,1.115
5689,0.535,1.125
5690,0.515,1.110
5691,0.545,1.120
5692,0.570,1.080
5693,0.500,1.045
5694,0.455,1.065
5695,0.555,1.040
5696,0.585,1.090
5697,0.465,1.075
5698,0.480,1.095
5699,0.590,1.055
5700,0.495,1.005
5701,0.470,1.015
5702,0.575,1.030
5703,0.570,1.025
5704,0.530,0.985
5705,0.500,1.005
5706,0.520,1.025
5707,0.465,0.960
5708,0.515,0.925
5709,0.520,0.950
5710,0.510,1.015
5711,0.535,0.995
5712,0.570,0.955
5713,0.535,0.985
5714,0.515,0.985
5715,0.525,0.955
5716,0.530,0.915
5717,0.520,0.960
5718,0.540,0.905
5719,0.520,0.875
5720,0.510,0.870
5721,0.535,0.910
5722,0.520,0.925
5723,0.510,0.815
5724,0.495,0.790
5725,0.490,0.815
5726,0.500,0.820
5727,0.490,0.805
5728,0.515,0.795
5729,0.495,0.795
5730,0.460,0.780
5731,0.445,0.790
5732,0.505,0.790
5733,0.460,0.755
5734,0.445,0.765
5735,0.495,0.710
5736,0.465,0.695
5737,0.425,0.725
5738,0.435,0.745
5739,0.490,0.715
5740,0.470,0.675
5741,0.420,0.690
5742,0.430,0.675
5743,0.460,0.640
5744,0.430,0.605
5745,0.395,0.660
5746,0.445,0.665
5747,0.470,0.630
5748,0.445,0.595
5749,0.450,0.680
5750,0.490,0.685
5751,0.485,0.700
5752,0.475,0.725
5753,0.500,0.810
5754,0.545,0.790
5755,0.580,0.760
5756,0.550,0.805
5757,0.580,0.820
5758,0.605,0.785
5759,0.600,0.760
5760,0.575,0.795
5761,0.540,0.825
5762,0.505,0.810
5763,0.480,0.800
5764,0.415,0.805
5765,0.425,0.795
5766,0.415,0.700
5767,0.400,0.655
5768,0.330,0.695
5769,0.335,0.760
5770,0.345,0.655
5771,0.330,0.615
5772,0.325,0.630
5773,0.335,0.605
5774,0.325,0.580
5775,0.310,0.535
5776,0.295,0.565
5777,0.315,0.500
5778,0.370,0.440
5779,0.375,0.375
5780,0.320,0.360
5781,0.315,0.320
5782,0.315,0.295
5783,0.285,0.270
5784,0.245,0.310
5785,0.280,0.315
5786,0.285,0.320
5787,0.295,0.305
5788,0.285,0.325
5789,0.310,0.330
5790,0.375,0.365
5791,0.340,0.395
5792,0.370,0.460
5793,0.465,0.395
5794,0.450,0.255
5795,0.395,0.160
5796,0.390,0.085
5797,0.335,0.075
5798,0.230,0.120
5799,0.155,0.300
5800,0.160,0.500
5801,0.120,0.460
5802,0.085,0.205
5803,0.100,-0.125
5804,0.125,-0.385
5805,0.160,-0.495
5806,0.165,-0.350
5807,0.145,0.095
5808,0.240,0.485
5809,0.430,0.655
5810,0.695,0.490
5811,0.895,0.180
5812,1.145,-0.030
5813,1.390,-0.265
5814,1.575,-0.640
5815,1.745,-1.050
5816,2.025,-1.280
5817,2.285,-1.405
5818,2.355,-1.355
5819,2.310,-1.135
5820,2.215,-0.985
5821,2.040,-0.830
5822,1.820,-0.625
5823,1.485,-0.395
5824,1.135,-0.265
5825,0.840,-0.170
5826,0.665,-0.035
5827,0.570,0.025
5828,0.525,0.070
5829,0.435,0.065
5830,0.415,0.155
5831,0.380,0.185
5832,0.360,0.185
5833,0.355,0.160
5834,0.320,0.260
5835,0.305,0.245
5836,0.290,0.220
5837,0.295,0.250
5838,0.285,0.240
5839,0.235,0.230
5840,0.215,0.215
5841,0.255,0.230
5842,0.300,0.240
5843,0.285,0.190
5844,0.200,0.200
5845,0.175,0.265
5846,0.265,0.290
5847,0.250,0.210
5848,0.165,0.210
5849,0.085,0.200
5850,0.140,0.190
5851,0.195,0.155
5852,0.150,0.135
5853,0.135,0.145
5854,0.165,0.165
5855,0.150,0.120
5856,0.120,0.075
5857,0.080,0.085
5858,0.075,0.115
5859,0.090,0.095
5860,0.095,0.095
5861,0.045,0.140
5862,0.030,0.135
5863,0.050,0.065
5864,0.020,0.055
5865,-0.020,0.075
5866,0.010,0.100
5867,0.010,0.070
5868,-0.030,0.050
5869,-0.050,0.080
5870,-0.030,0.095
5871,-0.020,0.045
5872,-0.055,-0.010
5873,-0.070,0.030
5874,-0.030,0.015
5875,-0.025,-0.065
5876,-0.055,-0.030
5877,-0.040,-0.005
5878,0.000,-0.025
5879,0.050,-0.065
5880,0.075,-0.030
5881,0.090,-0.030
5882,0.145,-0.065
5883,0.190,-0.065
5884,0.155,-0.055
5885,0.185,-0.060
5886,0.250,-0.110
5887,0.280,-0.070
5888,0.265,-0.030
5889,0.280,-0.045
5890,0.350,-0.065
5891,0.345,-0.050
5892,0.345,-0.030
5893,0.400,-0.025
5894,0.445,-0.045
5895,0.400,-0.065
5896,0.390,-0.050
5897,0.415,-0.040
5898,0.405,-0.095
5899,0.385,-0.060
5900,0.400,-0.055
5901,0.415,-0.055
5902,0.410,-0.110
5903,0.405,-0.080
5904,0.380,-0.020
5905,0.415,-0.060
5906,0.430,-0.100
5907,0.390,-0.055
5908,0.425,-0.020
5909,0.440,-0.050
5910,0.435,-0.110
5911,0.395,-0.075
5912,0.430,-0.025
5913,0.435,-0.050
5914,0.430,-0.075
5915,0.425,-0.055
5916,0.410,-0.035
5917,0.395,-0.070
5918,0.425,-0.105
5919,0.415,-0.075
5920,0.420,-0.040
5921,0.420,-0.075
5922,0.435,-0.050
5923,0.410,-0.030
5924,0.395,-0.020
5925,0.435,-0.070
5926,0.435,-0.045
5927,0.390,0.005
5928,0.390,0.015
5929,0.425,-0.035
5930,0.435,-0.020
5931,0.405,-0.015
5932,0.390,-0.025
5933,0.405,-0.085
5934,0.405,-0.045
5935,0.375,-0.005
5936,0.390,-0.050
5937,0.365,-0.050
5938,0.385,-0.025
5939,0.355,-0.020
5940,0.385,-0.030
5941,0.395,-0.040
5942,0.370,-0.045
5943,0.400,-0.015
5944,0.390,-0.040
5945,0.365,-0.080
5946,0.330,-0.075
5947,0.330,-0.060
5948,0.355,-0.075
5949,0.345,-0.075
5950,0.350,-0.060
5951,0.325,-0.045
5952,0.350,-0.040
5953,0.350,-0.080
5954,0.325,-0.050
5955,0.315,0.005
5956,0.365,0.000
5957,0.365,0.015
5958,0.345,0.005
5959,0.335,0.050
5960,0.410,0.070
5961,0.370,0.115
5962,0.355,0.190
5963,0.440,0.215
5964,0.515,0.210
5965,0.490,0.185
5966,0.465,0.265
5967,0.515,0.235
5968,0.540,0.250
5969,0.505,0.215
5970,0.490,0.270
5971,0.455,0.265
5972,0.405,0.260
5973,0.375,0.290
5974,0.340,0.280
5975,0.340,0.200
5976,0.340,0.170
5977,0.275,0.230
5978,0.225,0.275
5979,0.265,0.245
5980,0.265,0.215
5981,0.245,0.215
5982,0.230,0.210
5983,0.250,0.165
5984,0.250,0.165
5985,0.300,0.145
5986,0.305,0.140
5987,0.270,0.115
5988,0.220,0.110
5989,0.300,0.070
5990,0.330,-0.020
5991,0.260,-0.105
5992,0.195,-0.070
5993,0.170,-0.050
5994,0.200,-0.010
5995,0.245,-0.040
5996,0.255,-0.030
5997,0.250,0.000
5998,0.225,0.010
5999,0.290,0.035
6000,0.280,0.125
6001,0.270,0.165
6002,0.335,0.140
6003,0.380,0.085
6004,0.360,-0.020
6005,0.270,-0.135
6006,0.235,-0.230
6007,0.185,-0.195
6008,0.075,-0.135
6009,0.005,0.010
6010,-0.005,0.100
6011,-0.030,-0.035
6012,-0.080,-0.320
6013,-0.045,-0.590
6014,-0.005,-0.765
6015,-0.025,-0.725
6016,-0.055,-0.370
6017,0.005,0.135
6018,0.180,0.465
6019,0.455,0.505
6020,0.685,0.205
6021,0.905,-0.060
6022,1.150,-0.260
6023,1.365,-0.575
6024,1.655,-1.050
6025,1.890,-1.410
6026,2.030,-1.615
6027,2.280,-1.580
6028,2.540,-1.375
6029,2.310,-1.185
6030,2.110,-1.135
6031,2.000,-0.940
6032,1.645,-0.640
6033,1.200,-0.415
6034,0.845,-0.260
6035,0.630,-0.095
6036,0.540,0.040
6037,0.425,0.035
6038,0.365,0.050
6039,0.295,0.055
6040,0.210,0.120
6041,0.185,0.145
6042,0.190,0.135
6043,0.170,0.150
6044,0.110,0.195
6045,0.100,0.225
6046,0.115,0.245
6047,0.120,0.250
6048,0.095,0.280
6049,0.085,0.295
6050,0.130,0.250
6051,0.090,0.260
6052,0.060,0.300
6053,0.060,0.285
6054,0.085,0.270
6055,0.015,0.280
6056,-0.015,0.335
6057,-0.015,0.335
6058,0.025,0.290
6059,-0.005,0.295
6060,-0.030,0.325
6061,-0.020,0.310
6062,-0.005,0.265
6063,-0.060,0.240
6064,-0.090,0.280
6065,-0.030,0.270
6066,-0.015,0.215
6067,-0.090,0.230
6068,-0.100,0.255
6069,-0.065,0.225
6070,-0.110,0.235
6071,-0.190,0.230
6072,-0.150,0.270
6073,-0.145,0.270
6074,-0.160,0.210
6075,-0.175,0.250
6076,-0.190,0.260
6077,-0.205,0.250
6078,-0.195,0.230
6079,-0.225,0.235
6080,-0.245,0.280
6081,-0.285,0.230
6082,-0.275,0.245
6083,-0.275,0.255
6084,-0.295,0.275
6085,-0.280,0.215
6086,-0.265,0.225
6087,-0.270,0.225
6088,-0.270,0.255
6089,-0.200,0.215
6090,-0.160,0.205
6091,-0.175,0.220
6092,-0.145,0.260
6093,-0.055,0.230
6094,-0.010,0.210
6095,-0.035,0.250
6096,0.010,0.270
6097,0.075,0.210
6098,0.100,0.200
6099,0.090,0.240
6100,0.125,0.280
6101,0.165,0.215
6102,0.175,0.225
6103,0.135,0.260
6104,0.170,0.265
6105,0.145,0.200
6106,0.140,0.215
6107,0.145,0.260
6108,0.170,0.245
6109,0.160,0.210
6110,0.190,0.285
6111,0.165,0.265
6112,0.185,0.255
6113,0.190,0.220
6114,0.185,0.220
6115,0.170,0.280
6116,0.180,0.240
6117,0.170,0.185
6118,0.185,0.285
6119,0.190,0.275
6120,0.205,0.270
6121,0.180,0.240
6122,0.150,0.290
6123,0.155,0.305
6124,0.170,0.290
6125,0.200,0.255
6126,0.205,0.315
6127,0.200,0.285
6128,0.155,0.285
6129,0.105,0.295
6130,0.130,0.360
6131,0.200,0.385
6132,0.215,0.390
6133,0.165,0.340
6134,0.150,0.355
6135,0.115,0.370
6136,0.140,0.315
6137,0.170,0.310
6138,0.180,0.360
6139,0.185,0.345
6140,0.215,0.360
6141,0.190,0.330
6142,0.190,0.390
6143,0.160,0.370
6144,0.170,0.380
6145,0.175,0.360
6146,0.160,0.405
6147,0.175,0.410
6148,0.160,0.375
6149,0.165,0.375
6150,0.160,0.430
6151,0.200,0.410
6152,0.235,0.405
6153,0.200,0.365
6154,0.160,0.390
6155,0.135,0.435
6156,0.175,0.395
6157,0.180,0.375
6158,0.155,0.430
6159,0.165,0.445
6160,0.240,0.395
6161,0.255,0.400
6162,0.205,0.420
6163,0.190,0.450
6164,0.195,0.430
6165,0.155,0.445
6166,0.150,0.450
6167,0.135,0.500
6168,0.200,0.465
6169,0.225,0.480
6170,0.255,0.540
6171,0.245,0.570
6172,0.245,0.595
6173,0.240,0.665
6174,0.315,0.745
6175,0.370,0.715
6176,0.395,0.705
6177,0.430,0.725
6178,0.445,0.740
6179,0.410,0.745
6180,0.395,0.715
6181,0.350,0.695
6182,0.300,0.695
6183,0.240,0.735
6184,0.235,0.725
6185,0.210,0.675
6186,0.195,0.675
6187,0.190,0.675
6188,0.165,0.605
6189,0.090,0.635
6190,0.020,0.665
6191,0.090,0.670
6192,0.140,0.610
6193,0.080,0.575
6194,0.025,0.605
6195,0.080,0.625
6196,0.095,0.590
6197,0.090,0.565
6198,0.080,0.555
6199,0.125,0.525
6200,0.130,0.425
6201,0.090,0.410
6202,0.095,0.470
6203,0.070,0.445
6204,0.095,0.395
6205,0.055,0.415
6206,0.045,0.430
6207,0.080,0.450
6208,0.110,0.415
6209,0.070,0.430
6210,0.080,0.525
6211,0.110,0.600
6212,0.155,0.625
6213,0.170,0.670
6214,0.200,0.625
6215,0.235,0.570
6216,0.180,0.405
6217,0.080,0.295
6218,0.050,0.335
6219,0.010,0.375
6220,-0.070,0.460
6221,-0.100,0.655
6222,-0.110,0.730
6223,-0.080,0.480
6224,-0.055,0.190
6225,-0.045,0.025
6226,-0.050,0.000
6227,-0.055,0.130
6228,-0.040,0.450
6229,0.065,0.905
6230,0.240,1.100
6231,0.495,0.960
6232,0.840,0.625
6233,1.145,0.345
6234,1.385,0.115
6235,1.685,-0.240
6236,1.915,-0.660
6237,2.080,-0.920
6238,2.405,-0.910
6239,2.685,-0.835
6240,2.550,-0.685
6241,2.360,-0.520
6242,2.280,-0.315
6243,1.915,-0.160
6244,1.455,-0.030
6245,0.975,0.240
6246,0.710,0.410
6247,0.595,0.480
6248,0.460,0.525
6249,0.360,0.580
6250,0.305,0.640
6251,0.290,0.610
6252,0.215,0.640
6253,0.175,0.715
6254,0.140,0.700
6255,0.155,0.700
6256,0.130,0.695
6257,0.075,0.750
6258,0.045,0.725
6259,0.070,0.720
6260,0.045,0.735
6261,0.015,0.780
6262,0.020,0.775
6263,0.040,0.740
6264,0.015,0.760
6265,-0.005,0.815
6266,-0.010,0.810
6267,0.025,0.790
6268,-0.005,0.765
6269,-0.060,0.795
6270,-0.040,0.780
6271,-0.045,0.765
6272,-0.115,0.765
6273,-0.110,0.790
6274,-0.030,0.795
6275,-0.045,0.810
6276,-0.155,0.715
6277,-0.200,0.720
6278,-0.055,0.730
6279,-0.065,0.715
6280,-0.115,0.795
6281,-0.170,0.825
6282,-0.175,0.785
6283,-0.175,0.705
6284,-0.200,0.775
6285,-0.210,0.780
6286,-0.195,0.735
6287,-0.210,0.735
6288,-0.230,0.735
6289,-0.255,0.745
6290,-0.235,0.765
6291,-0.240,0.770
6292,-0.250,0.770
6293,-0.255,0.790
6294,-0.215,0.740
6295,-0.245,0.745
6296,-0.245,0.740
6297,-0.225,0.760
6298,-0.210,0.770
6299,-0.170,0.730
6300,-0.155,0.770
6301,-0.130,0.780
6302,-0.075,0.750
6303,-0.075,0.735
6304,-0.045,0.810
6305,0.015,0.800
6306,0.055,0.730
6307,0.050,0.750
6308,0.085,0.805
6309,0.160,0.805
6310,0.220,0.765
6311,0.240,0.725
6312,0.220,0.780
6313,0.200,0.785
6314,0.230,0.750
6315,0.255,0.770
6316,0.205,0.785
6317,0.205,0.750
6318,0.290,0.780
6319,0.355,0.755
6320,0.285,0.770
6321,0.285,0.760
6322,0.290,0.780
6323,0.280,0.780
6324,0.255,0.780
6325,0.255,0.805
6326,0.305,0.770
6327,0.355,0.815
6328,0.340,0.810
6329,0.360,0.830
6330,0.360,0.825
6331,0.330,0.815
6332,0.310,0.835
6333,0.295,0.810
6334,0.320,0.820
6335,0.330,0.815
6336,0.315,0.885
6337,0.335,0.835
6338,0.360,0.800
6339,0.325,0.840
6340,0.315,0.870
6341,0.365,0.845
6342,0.375,0.800
6343,0.355,0.850
6344,0.350,0.840
6345,0.365,0.845
6346,0.430,0.855
6347,0.370,0.850
6348,0.335,0.860
6349,0.385,0.830
6350,0.405,0.860
6351,0.365,0.845
6352,0.350,0.850
6353,0.370,0.830
6354,0.355,0.805
6355,0.345,0.850
6356,0.340,0.840
6357,0.365,0.785
6358,0.355,0.830
6359,0.340,0.865
6360,0.345,0.815
6361,0.355,0.820
6362,0.370,0.840
6363,0.325,0.860
6364,0.350,0.855
6365,0.385,0.810
6366,0.370,0.865
6367,0.350,0.870
6368,0.365,0.825
6369,0.385,0.815
6370,0.360,0.850
6371,0.320,0.840
6372,0.345,0.825
6373,0.355,0.785
6374,0.310,0.820
6375,0.305,0.855
6376,0.315,0.830
6377,0.360,0.835
6378,0.340,0.870
6379,0.345,0.900
6380,0.395,0.900
6381,0.415,0.905
6382,0.390,1.015
6383,0.440,1.040
6384,0.525,1.050
6385,0.550,1.070
6386,0.555,1.145
6387,0.590,1.145
6388,0.650,1.110
6389,0.645,1.135
6390,0.635,1.140
6391,0.645,1.145
6392,0.615,1.120
6393,0.480,1.160
6394,0.435,1.210
6395,0.445,1.165
6396,0.450,1.035
6397,0.385,1.060
6398,0.340,1.050
6399,0.370,1.050
6400,0.350,1.015
6401,0.305,1.010
6402,0.350,1.030
6403,0.370,0.995
6404,0.340,0.960
6405,0.305,1.005
6406,0.355,0.985
6407,0.390,0.925
6408,0.365,0.870
6409,0.380,0.890
6410,0.425,0.845
6411,0.400,0.790
6412,0.335,0.760
6413,0.345,0.775
6414,0.315,0.755
6415,0.345,0.760
6416,0.365,0.805
6417,0.350,0.800
6418,0.340,0.750
6419,0.380,0.790
6420,0.315,0.910
6421,0.345,1.010
6422,0.465,1.070
6423,0.565,1.025
6424,0.545,0.865
6425,0.415,0.755
6426,0.370,0.595
6427,0.410,0.660
6428,0.355,0.740
6429,0.235,0.810
6430,0.275,0.940
6431,0.250,0.965
6432,0.190,0.855
6433,0.250,0.565
6434,0.340,0.325
6435,0.285,0.290
6436,0.225,0.510
6437,0.275,0.850
6438,0.430,1.195
6439,0.565,1.355
6440,0.800,1.155
6441,1.125,0.850
6442,1.400,0.540
6443,1.645,0.245
6444,1.945,-0.140
6445,2.165,-0.480
6446,2.340,-0.690
6447,2.595,-0.675
6448,2.855,-0.520
6449,2.740,-0.400
6450,2.425,-0.235
6451,2.245,0.040
6452,2.065,0.210
6453,1.540,0.345
6454,1.085,0.530
6455,0.875,0.690
6456,0.745,0.775
6457,0.670,0.765
6458,0.590,0.835
6459,0.555,0.895
6460,0.570,0.890
6461,0.510,0.915
6462,0.460,0.950
6463,0.420,0.980
6464,0.400,0.975
6465,0.380,0.935
6466,0.355,0.985
6467,0.345,1.020
6468,0.385,1.025
6469,0.405,0.975
6470,0.355,1.025
6471,0.350,1.005
6472,0.390,0.995
6473,0.385,1.030
6474,0.340,1.030
6475,0.310,1.010
6476,0.330,1.010
6477,0.310,1.000
6478,0.275,1.020
6479,0.245,0.985
6480,0.285,1.005
6481,0.265,0.995
6482,0.215,0.985
6483,0.225,1.030
6484,0.290,0.965
6485,0.240,0.985
6486,0.220,0.985
6487,0.225,1.000
6488,0.230,0.945
6489,0.165,0.980
6490,0.170,0.985
6491,0.195,0.950
6492,0.190,0.950
6493,0.120,0.975
6494,0.140,0.995
6495,0.175,0.965
6496,0.145,0.955
6497,0.125,1.000
6498,0.100,1.005
6499,0.115,0.990
6500,0.110,0.975
6501,0.065,0.975
6502,0.065,1.005
6503,0.110,0.925
6504,0.100,0.985
6505,0.120,0.975
6506,0.155,0.980
6507,0.215,0.975
6508,0.230,0.955
6509,0.245,0.980
6510,0.275,0.950
6511,0.300,0.955
6512,0.340,0.975
6513,0.355,0.990
6514,0.375,0.970
6515,0.405,0.950
6516,0.395,0.995
6517,0.430,0.995
6518,0.510,0.970
6519,0.515,0.955
6520,0.525,0.970
6521,0.515,1.015
6522,0.545,0.985
6523,0.600,0.990
6524,0.545,0.990
6525,0.555,0.960
6526,0.600,0.955
6527,0.590,0.965
6528,0.570,0.990
6529,0.615,0.955
6530,0.615,0.965
6531,0.580,0.940
6532,0.595,0.960
6533,0.595,0.985
6534,0.640,0.920
6535,0.585,0.970
6536,0.580,0.985
6537,0.625,0.975
6538,0.630,0.925
6539,0.580,0.985
6540,0.580,1.010
6541,0.625,1.005
6542,0.620,0.995
6543,0.585,1.000
6544,0.590,1.025
6545,0.610,1.025
6546,0.645,1.000
6547,0.585,1.025
6548,0.585,1.050
6549,0.605,1.010
6550,0.610,0.965
6551,0.575,1.055
6552,0.595,1.065
6553,0.625,1.040
6554,0.600,1.030
6555,0.585,1.030
6556,0.590,1.050
6557,0.625,0.965
6558,0.610,0.965
6559,0.580,1.045
6560,0.630,0.995
6561,0.620,0.975
6562,0.605,0.975
6563,0.550,1.025
6564,0.540,0.990
6565,0.630,1.045
6566,0.640,1.015
6567,0.595,0.910
6568,0.510,0.935
6569,0.545,1.035
6570,0.630,1.040
6571,0.590,0.935
6572,0.545,0.885
6573,0.550,0.930
6574,0.505,0.975
6575,0.500,0.985
6576,0.515,1.005
6577,0.575,0.960
6578,0.540,0.940
6579,0.505,0.950
6580,0.545,0.945
6581,0.545,0.930
6582,0.535,0.940
6583,0.540,0.965
6584,0.575,0.965
6585,0.560,0.935
6586,0.505,0.955
6587,0.530,0.995
6588,0.600,1.025
6589,0.620,1.055
6590,0.590,1.115
6591,0.645,1.215
6592,0.740,1.225
6593,0.765,1.210
6594,0.750,1.285
6595,0.780,1.280
6596,0.790,1.230
6597,0.785,1.235
6598,0.785,1.235
6599,0.745,1.255
6600,0.720,1.210
6601,0.645,1.225
6602,0.585,1.285
6603,0.560,1.220
6604,0.565,1.150
6605,0.530,1.105
6606,0.505,1.165
6607,0.455,1.150
6608,0.495,1.140
6609,0.505,1.115
6610,0.450,1.075
6611,0.445,1.085
6612,0.515,1.055
6613,0.470,1.045
6614,0.400,1.080
6615,0.450,1.065
6616,0.500,1.040
6617,0.510,0.950
6618,0.450,0.935
6619,0.490,0.905
6620,0.460,0.835
6621,0.425,0.820
6622,0.415,0.875
6623,0.435,0.900
6624,0.465,0.820
6625,0.405,0.845
6626,0.410,0.875
6627,0.450,0.885
6628,0.455,0.855
6629,0.440,0.975
6630,0.435,1.075
6631,0.480,1.080
6632,0.550,1.055
6633,0.580,1.015
6634,0.540,0.925
6635,0.520,0.760
6636,0.475,0.660
6637,0.400,0.790
6638,0.315,0.870
6639,0.290,0.990
6640,0.280,1.050
6641,0.280,1.000
6642,0.255,0.785
6643,0.325,0.535
6644,0.370,0.370
6645,0.310,0.445
6646,0.290,0.755
6647,0.375,1.080
6648,0.540,1.355
6649,0.735,1.410
6650,0.965,1.180
6651,1.285,0.865
6652,1.580,0.620
6653,1.800,0.305
6654,1.975,-0.080
6655,2.220,-0.395
6656,2.460,-0.575
6657,2.690,-0.590
6658,2.880,-0.460
6659,2.890,-0.310
6660,2.620,-0.120
6661,2.265,0.025
6662,2.005,0.250
6663,1.665,0.430
6664,1.260,0.580
6665,0.995,0.690
6666,0.815,0.820
6667,0.715,0.845
6668,0.670,0.865
6669,0.570,0.900
6670,0.550,0.920
6671,0.555,0.935
6672,0.515,0.925
6673,0.465,0.970
6674,0.450,1.020
6675,0.460,0.990
6676,0.450,0.975
6677,0.410,1.015
6678,0.375,1.030
6679,0.380,1.000
6680,0.385,1.045
6681,0.365,1.035
6682,0.330,1.055
6683,0.330,1.030
6684,0.345,1.030
6685,0.325,1.075
6686,0.310,1.065
6687,0.300,1.015
6688,0.300,1.035
6689,0.265,1.055
6690,0.260,1.070
6691,0.260,1.040
6692,0.260,1.020
6693,0.220,1.055
6694,0.225,1.075
6695,0.225,1.020
6696,0.175,0.975
6697,0.160,1.025
6698,0.155,1.070
6699,0.210,1.065
6700,0.150,1.000
6701,0.085,1.015
6702,0.065,1.045
6703,0.110,1.030
6704,0.090,1.045
6705,0.035,1.020
6706,0.060,1.035
6707,0.085,1.000
6708,0.100,1.005
6709,0.025,0.990
6710,-0.065,1.020
6711,0.075,1.035
6712,0.080,1.060
6713,-0.055,1.095
6714,0.010,0.990
6715,0.105,0.945
6716,0.030,0.960
6717,-0.035,0.975
6718,0.000,1.035
6719,0.080,1.015
6720,0.130,0.995
6721,0.140,1.035
6722,0.175,1.055
6723,0.230,1.020
6724,0.245,0.975
6725,0.250,1.045
6726,0.325,1.055
6727,0.380,1.025
6728,0.415,1.045
6729,0.400,1.080
6730,0.435,1.075
6731,0.475,1.015
6732,0.495,1.015
6733,0.480,1.040
6734,0.525,1.080
6735,0.570,1.015
6736,0.540,0.990
6737,0.545,1.035
6738,0.530,1.035
6739,0.560,1.015
6740,0.550,1.030
6741,0.515,1.050
6742,0.510,1.025
6743,0.545,1.015
6744,0.550,1.040
6745,0.515,1.075
6746,0.505,1.095
6747,0.555,1.035
6748,0.610,1.060
6749,0.565,1.060
6750,0.575,1.075
6751,0.595,1.070
6752,0.575,1.035
6753,0.520,1.075
6754,0.525,1.095
6755,0.560,1.070
6756,0.540,1.070
6757,0.550,1.090
6758,0.555,1.110
6759,0.645,1.085
6760,0.620,1.065
6761,0.540,1.105
6762,0.535,1.085
6763,0.545,1.085
6764,0.560,1.095
6765,0.530,1.100
6766,0.530,1.095
6767,0.550,1.090
6768,0.560,1.095
6769,0.565,1.090
6770,0.550,1.130
6771,0.610,1.055
6772,0.585,1.035
6773,0.510,1.090
6774,0.545,1.085
6775,0.555,1.080
6776,0.520,1.050
6777,0.510,1.100
6778,0.515,1.125
6779,0.510,1.050
6780,0.500,1.055
6781,0.465,1.075
6782,0.485,1.085
6783,0.500,1.050
6784,0.480,1.025
6785,0.455,1.060
6786,0.470,1.035
6787,0.490,1.025
6788,0.495,1.005
6789,0.450,1.070
6790,0.475,1.055
6791,0.500,1.010
6792,0.460,1.015
6793,0.465,1.045
6794,0.475,1.050
6795,0.500,1.035
6796,0.465,1.040
6797,0.450,1.075
6798,0.480,1.050
6799,0.485,1.050
6800,0.455,1.060
6801,0.445,1.060
6802,0.480,1.040
6803,0.495,1.055
6804,0.480,1.055
6805,0.435,1.125
6806,0.510,1.185
6807,0.590,1.190
6808,0.575,1.225
6809,0.580,1.285
6810,0.665,1.275
6811,0.705,1.255
6812,0.655,1.260
6813,0.630,1.290
6814,0.680,1.310
6815,0.680,1.245
6816,0.630,1.265
6817,0.575,1.285
6818,0.540,1.300
6819,0.505,1.320
6820,0.485,1.250
6821,0.435,1.255
6822,0.455,1.215
6823,0.435,1.200
6824,0.370,1.230
6825,0.325,1.215
6826,0.355,1.175
6827,0.400,1.150
6828,0.390,1.155
6829,0.365,1.170
6830,0.365,1.130
6831,0.370,1.125
6832,0.410,1.140
6833,0.400,1.140
6834,0.435,1.070
6835,0.450,1.020
6836,0.425,1.025
6837,0.410,0.985
6838,0.385,0.960
6839,0.400,0.985
6840,0.370,1.000
6841,0.350,1.035
6842,0.390,0.990
6843,0.405,0.985
6844,0.370,0.990
6845,0.385,1.040
6846,0.415,1.115
6847,0.450,1.120
6848,0.460,1.170
6849,0.500,1.145
6850,0.510,1.080
6851,0.420,0.950
6852,0.355,0.835
6853,0.405,0.855
6854,0.335,0.870
6855,0.140,1.005
6856,0.180,1.210
6857,0.210,1.240
6858,0.065,1.025
6859,0.110,0.755
6860,0.235,0.535
6861,0.240,0.485
6862,0.235,0.555
6863,0.230,0.835
6864,0.260,1.275
6865,0.450,1.455
6866,0.740,1.380
6867,1.015,1.110
6868,1.250,0.835
6869,1.530,0.700
6870,1.730,0.390
6871,1.995,0.045
6872,2.285,-0.210
6873,2.550,-0.300
6874,2.680,-0.280
6875,2.785,-0.145
6876,2.805,-0.005
6877,2.630,0.105
6878,2.285,0.265
6879,1.960,0.405
6880,1.610,0.540
6881,1.245,0.735
6882,1.005,0.860
6883,0.835,0.920
6884,0.665,0.940
6885,0.605,1.010
6886,0.565,0.970
6887,0.500,0.980
6888,0.430,1.105
6889,0.435,1.095
6890,0.440,1.055
6891,0.370,1.090
6892,0.350,1.105
6893,0.335,1.085
6894,0.325,1.060
6895,0.310,1.130
6896,0.285,1.165
6897,0.285,1.150
6898,0.305,1.150
6899,0.300,1.170
6900,0.255,1.175
6901,0.260,1.180
6902,0.285,1.175
6903,0.245,1.155
6904,0.220,1.160
6905,0.265,1.195
6906,0.245,1.130
6907,0.205,1.170
6908,0.200,1.205
6909,0.235,1.165
6910,0.240,1.110
6911,0.185,1.105
6912,0.155,1.160
6913,0.180,1.110
6914,0.185,1.110
6915,0.150,1.120
6916,0.130,1.125
6917,0.150,1.125
6918,0.135,1.090
6919,0.115,1.125
6920,0.070,1.100
6921,0.015,1.050
6922,0.050,1.110
6923,0.010,1.110
6924,0.010,1.105
6925,-0.010,1.105
6926,-0.020,1.095
6927,-0.025,1.090
6928,0.005,1.120
6929,-0.025,1.080
6930,0.025,1.050
6931,0.020,1.115
6932,0.040,1.070
6933,0.025,1.025
6934,0.045,1.050
6935,0.030,1.105
6936,0.045,1.095
6937,0.080,1.065
6938,0.175,1.080
6939,0.220,1.095
6940,0.285,1.045
6941,0.310,1.055
6942,0.335,1.065
6943,0.345,1.070
6944,0.345,1.075
6945,0.390,1.030
6946,0.385,1.015
6947,0.360,1.075
6948,0.455,1.070
6949,0.525,1.020
6950,0.530,0.995
6951,0.530,1.050
6952,0.550,1.040
6953,0.570,1.025
6954,0.545,1.025
6955,0.540,1.075
6956,0.555,1.070
6957,0.565,1.015
6958,0.535,1.055
6959,0.540,1.085
6960,0.610,1.030
6961,0.595,1.040
6962,0.585,1.040
6963,0.595,1.065
6964,0.610,1.015
6965,0.615,1.020
6966,0.600,1.045
6967,0.610,1.060
6968,0.600,1.025
6969,0.590,1.005
6970,0.575,1.095
6971,0.600,1.040
6972,0.635,1.010
6973,0.620,1.030
6974,0.595,1.040
6975,0.590,1.035
6976,0.600,1.025
6977,0.605,1.050
6978,0.605,1.075
6979,0.600,1.035
6980,0.615,1.040
6981,0.620,1.065
6982,0.620,1.035
6983,0.620,0.980
6984,0.620,0.990
6985,0.610,1.040
6986,0.615,1.045
6987,0.615,1.020
6988,0.645,1.035
6989,0.645,1.035
6990,0.590,1.025
6991,0.635,1.010
6992,0.625,1.040
6993,0.595,1.010
6994,0.555,0.980
6995,0.580,0.970
6996,0.580,0.960
6997,0.565,0.990
6998,0.605,0.975
6999,0.635,0.945
7000,0.610,0.955
7001,0.495,0.975
7002,0.550,0.970
7003,0.675,0.975
7004,0.565,0.975
7005,0.430,0.985
7006,0.635,0.925
7007,0.650,0.905
7008,0.480,0.920
7009,0.495,0.975
7010,0.625,0.925
7011,0.630,0.925
7012,0.565,0.945
7013,0.580,0.990
7014,0.570,0.955
7015,0.530,0.885
7016,0.515,0.915
7017,0.550,0.935
7018,0.565,0.940
7019,0.585,0.945
7020,0.605,0.995
7021,0.600,1.005
7022,0.645,0.970
7023,0.690,1.055
7024,0.725,1.100
7025,0.760,1.090
7026,0.830,1.065
7027,0.785,1.045
7028,0.755,1.095
7029,0.775,1.065
7030,0.825,1.050
7031,0.780,1.075
7032,0.690,1.070
7033,0.650,1.095
7034,0.645,1.065
7035,0.620,1.085
7036,0.580,1.050
7037,0.555,1.055
7038,0.520,1.020
7039,0.485,1.055
7040,0.520,1.070
7041,0.560,1.000
7042,0.555,0.920
7043,0.495,0.935
7044,0.500,0.995
7045,0.560,0.945
7046,0.550,0.845
7047,0.535,0.895
7048,0.570,0.875
7049,0.575,0.825
7050,0.570,0.785
7051,0.530,0.785
7052,0.510,0.730
7053,0.520,0.680
7054,0.530,0.745
7055,0.510,0.765
7056,0.490,0.760
7057,0.500,0.730
