'sample interval','ECG','ECG'
'0.00277778 sec','mV','mV'
0,-0.330,0.055
1,-0.327,0.065
2,-0.320,0.058
3,-0.323,0.062
4,-0.320,0.070
5,-0.320,0.070
6,-0.310,0.072
7,-0.307,0.062
8,-0.307,0.072
9,-0.303,0.062
10,-0.313,0.052
11,-0.327,0.045
12,-0.337,0.037
13,-0.340,0.048
14,-0.337,0.052
15,-0.340,0.052
16,-0.320,0.050
17,-0.327,0.052
18,-0.320,0.060
19,-0.327,0.060
20,-0.323,0.055
21,-0.310,0.048
22,-0.323,0.037
23,-0.327,0.043
24,-0.327,0.035
25,-0.333,0.040
26,-0.327,0.037
27,-0.320,0.040
28,-0.317,0.045
29,-0.310,0.045
30,-0.303,0.058
31,-0.293,0.058
32,-0.290,0.043
33,-0.297,0.030
34,-0.307,0.025
35,-0.310,0.028
36,-0.310,0.025
37,-0.317,0.022
38,-0.307,0.040
39,-0.303,0.037
40,-0.310,0.040
41,-0.293,0.043
42,-0.300,0.037
43,-0.303,0.040
44,-0.303,0.035
45,-0.293,0.035
46,-0.293,0.033
47,-0.303,0.030
48,-0.310,0.022
49,-0.320,0.025
50,-0.320,0.018
51,-0.317,0.028
52,-0.320,0.035
53,-0.310,0.040
54,-0.317,0.045
55,-0.303,0.052
56,-0.287,0.043
57,-0.297,0.028
58,-0.303,0.020
59,-0.313,0.018
60,-0.310,0.010
61,-0.317,0.007
62,-0.327,0.022
63,-0.320,0.022
64,-0.310,0.035
65,-0.290,0.043
66,-0.287,0.040
67,-0.293,0.035
68,-0.287,0.028
69,-0.293,0.028
70,-0.293,0.020
71,-0.297,0.013
72,-0.310,0.022
73,-0.303,0.010
74,-0.307,0.013
75,-0.303,0.028
76,-0.293,0.030
77,-0.270,0.043
78,-0.263,0.037
79,-0.273,0.037
80,-0.263,0.033
81,-0.287,0.035
82,-0.280,0.035
83,-0.277,0.033
84,-0.280,0.040
85,-0.273,0.045
86,-0.280,0.043
87,-0.270,0.045
88,-0.257,0.048
89,-0.247,0.070
90,-0.240,0.070
91,-0.240,0.058
92,-0.233,0.045
93,-0.247,0.028
94,-0.263,0.030
95,-0.250,0.018
96,-0.260,0.000
97,-0.257,-0.003
98,-0.270,-0.018
99,-0.263,-0.020
100,-0.230,-0.022
101,-0.223,-0.010
102,-0.210,-0.018
103,-0.200,-0.010
104,-0.200,-0.013
105,-0.203,-0.022
106,-0.227,-0.033
107,-0.240,-0.048
108,-0.277,-0.060
109,-0.277,-0.052
110,-0.280,-0.040
111,-0.273,-0.022
112,-0.237,-0.007
113,-0.220,0.000
114,-0.203,0.015
115,-0.197,0.005
116,-0.203,0.020
117,-0.223,0.018
118,-0.240,0.010
119,-0.263,0.013
120,-0.293,0.000
121,-0.310,0.005
122,-0.317,0.005
123,-0.320,0.005
124,-0.317,0.010
125,-0.330,0.005
126,-0.327,0.013
127,-0.317,0.003
128,-0.313,0.003
129,-0.317,0.005
130,-0.327,0.000
131,-0.327,0.000
132,-0.340,-0.010
133,-0.347,-0.003
134,-0.337,-0.003
135,-0.337,0.000
136,-0.333,0.013
137,-0.327,0.010
138,-0.333,0.028
139,-0.317,0.022
140,-0.307,0.022
141,-0.303,0.018
142,-0.317,0.010
143,-0.310,0.005
144,-0.317,0.000
145,-0.320,0.000
146,-0.313,0.007
147,-0.313,0.010
148,-0.300,0.022
149,-0.293,0.025
150,-0.297,0.025
151,-0.273,0.020
152,-0.287,0.020
153,-0.280,0.020
154,-0.287,0.025
155,-0.293,0.043
156,-0.293,0.052
157,-0.293,0.075
158,-0.303,0.110
159,-0.313,0.160
160,-0.307,0.210
161,-0.317,0.242
162,-0.323,0.270
163,-0.327,0.292
164,-0.327,0.323
165,-0.327,0.355
166,-0.330,0.372
167,-0.340,0.375
168,-0.333,0.350
169,-0.333,0.270
170,-0.303,0.152
171,-0.240,0.000
172,-0.133,-0.158
173,0.023,-0.258
174,0.180,-0.255
175,0.330,-0.175
176,0.433,-0.060
177,0.477,0.028
178,0.450,0.045
179,0.357,0.033
180,0.200,-0.015
181,-0.020,-0.060
182,-0.267,-0.083
183,-0.507,-0.085
184,-0.713,-0.065
185,-0.830,-0.048
186,-0.877,-0.025
187,-0.853,-0.015
188,-0.793,-0.013
189,-0.713,-0.020
190,-0.640,-0.022
191,-0.577,-0.030
192,-0.523,-0.035
193,-0.477,-0.028
194,-0.433,-0.018
195,-0.397,-0.010
196,-0.370,-0.007
197,-0.347,-0.003
198,-0.330,-0.010
199,-0.310,-0.007
200,-0.297,-0.015
201,-0.293,-0.025
202,-0.287,-0.020
203,-0.280,-0.033
204,-0.277,-0.033
205,-0.263,-0.030
206,-0.260,-0.028
207,-0.243,-0.028
208,-0.233,-0.030
209,-0.220,-0.025
210,-0.213,-0.030
211,-0.213,-0.020
212,-0.177,-0.018
213,-0.190,-0.025
214,-0.183,-0.025
215,-0.187,-0.045
216,-0.193,-0.050
217,-0.177,-0.045
218,-0.183,-0.040
219,-0.170,-0.035
220,-0.170,-0.033
221,-0.163,-0.028
222,-0.150,-0.035
223,-0.143,-0.030
224,-0.130,-0.033
225,-0.130,-0.037
226,-0.137,-0.045
227,-0.130,-0.062
228,-0.143,-0.065
229,-0.113,-0.058
230,-0.117,-0.062
231,-0.117,-0.052
232,-0.100,-0.048
233,-0.080,-0.045
234,-0.070,-0.045
235,-0.070,-0.052
236,-0.057,-0.055
237,-0.060,-0.055
238,-0.060,-0.058
239,-0.053,-0.070
240,-0.070,-0.075
241,-0.070,-0.080
242,-0.080,-0.085
243,-0.087,-0.083
244,-0.050,-0.070
245,-0.037,-0.070
246,-0.030,-0.070
247,-0.017,-0.062
248,-0.013,-0.070
249,-0.013,-0.090
250,-0.013,-0.092
251,-0.013,-0.105
252,-0.013,-0.105
253,0.000,-0.100
254,-0.010,-0.100
255,0.000,-0.098
256,0.023,-0.087
257,0.033,-0.087
258,0.033,-0.087
259,0.030,-0.100
260,0.050,-0.090
261,0.047,-0.095
262,0.037,-0.098
263,0.030,-0.107
264,0.023,-0.110
265,0.040,-0.100
266,0.050,-0.105
267,0.050,-0.098
268,0.060,-0.102
269,0.073,-0.083
270,0.073,-0.080
271,0.070,-0.087
272,0.080,-0.080
273,0.077,-0.095
274,0.063,-0.100
275,0.073,-0.100
276,0.057,-0.115
277,0.057,-0.107
278,0.070,-0.107
279,0.077,-0.092
280,0.083,-0.080
281,0.103,-0.077
282,0.100,-0.065
283,0.097,-0.070
284,0.093,-0.072
285,0.083,-0.060
286,0.087,-0.070
287,0.063,-0.075
288,0.063,-0.062
289,0.063,-0.058
290,0.050,-0.055
291,0.037,-0.052
292,0.043,-0.037
293,0.053,-0.022
294,0.037,-0.010
295,0.030,-0.010
296,0.010,-0.018
297,-0.007,-0.013
298,0.007,-0.010
299,-0.017,-0.013
300,-0.023,-0.020
301,-0.040,-0.005
302,-0.047,-0.010
303,-0.053,0.000
304,-0.067,0.003
305,-0.060,0.007
306,-0.063,0.010
307,-0.067,0.013
308,-0.070,0.010
309,-0.090,0.005
310,-0.117,-0.003
311,-0.130,0.003
312,-0.133,0.005
313,-0.147,0.005
314,-0.153,0.013
315,-0.163,0.010
316,-0.163,0.025
317,-0.157,0.028
318,-0.170,0.030
319,-0.170,0.037
320,-0.173,0.045
321,-0.180,0.040
322,-0.193,0.033
323,-0.200,0.033
324,-0.217,0.030
325,-0.223,0.028
326,-0.230,0.043
327,-0.217,0.058
328,-0.210,0.062
329,-0.210,0.065
330,-0.213,0.072
331,-0.213,0.087
332,-0.210,0.080
333,-0.220,0.070
334,-0.217,0.077
335,-0.213,0.068
336,-0.240,0.072
337,-0.250,0.077
338,-0.257,0.087
339,-0.240,0.092
340,-0.240,0.102
341,-0.240,0.105
342,-0.237,0.105
343,-0.237,0.110
344,-0.230,0.110
345,-0.240,0.105
346,-0.247,0.102
347,-0.253,0.102
348,-0.263,0.105
349,-0.263,0.098
350,-0.270,0.098
351,-0.273,0.110
352,-0.270,0.110
353,-0.263,0.122
354,-0.257,0.133
355,-0.270,0.130
356,-0.273,0.130
357,-0.267,0.125
358,-0.277,0.115
359,-0.287,0.105
360,-0.287,0.098
361,-0.290,0.107
362,-0.287,0.100
363,-0.290,0.107
364,-0.270,0.117
365,-0.270,0.110
366,-0.260,0.117
367,-0.253,0.105
368,-0.257,0.105
369,-0.260,0.098
370,-0.280,0.083
371,-0.280,0.090
372,-0.273,0.083
373,-0.283,0.080
374,-0.283,0.080
375,-0.280,0.080
376,-0.270,0.072
377,-0.267,0.080
378,-0.253,0.090
379,-0.247,0.080
380,-0.270,0.085
381,-0.273,0.080
382,-0.280,0.062
383,-0.280,0.062
384,-0.283,0.052
385,-0.280,0.058
386,-0.270,0.052
387,-0.277,0.055
388,-0.280,0.062
389,-0.280,0.060
390,-0.277,0.075
391,-0.260,0.052
392,-0.270,0.058
393,-0.263,0.058
394,-0.267,0.045
395,-0.270,0.040
396,-0.270,0.030
397,-0.287,0.040
398,-0.280,0.035
399,-0.280,0.037
400,-0.273,0.052
401,-0.260,0.055
402,-0.257,0.050
403,-0.250,0.045
404,-0.257,0.045
405,-0.250,0.045
406,-0.253,0.040
407,-0.260,0.030
408,-0.263,0.033
409,-0.280,0.028
410,-0.270,0.028
411,-0.270,0.030
412,-0.263,0.048
413,-0.257,0.048
414,-0.253,0.045
415,-0.247,0.048
416,-0.250,0.037
417,-0.260,0.028
418,-0.270,0.018
419,-0.280,0.015
420,-0.280,0.013
421,-0.280,0.022
422,-0.283,0.028
423,-0.270,0.030
424,-0.263,0.033
425,-0.257,0.040
426,-0.257,0.040
427,-0.247,0.028
428,-0.250,0.028
429,-0.253,0.025
430,-0.257,0.018
431,-0.263,0.018
432,-0.277,0.022
433,-0.270,0.018
434,-0.273,0.015
435,-0.273,0.022
436,-0.267,0.022
437,-0.250,0.028
438,-0.250,0.028
439,-0.247,0.028
440,-0.247,0.022
441,-0.253,0.018
442,-0.253,0.013
443,-0.257,0.005
444,-0.263,0.010
445,-0.263,0.005
446,-0.263,0.015
447,-0.260,0.018
448,-0.257,0.022
449,-0.240,0.035
450,-0.240,0.030
451,-0.247,0.030
452,-0.237,0.028
453,-0.247,0.020
454,-0.243,0.007
455,-0.253,0.010
456,-0.260,0.010
457,-0.257,0.010
458,-0.273,0.010
459,-0.263,0.015
460,-0.257,0.022
461,-0.250,0.035
462,-0.243,0.037
463,-0.257,0.037
464,-0.237,0.045
465,-0.250,0.033
466,-0.257,0.025
467,-0.250,0.020
468,-0.257,0.018
469,-0.247,0.025
470,-0.240,0.030
471,-0.240,0.048
472,-0.223,0.060
473,-0.223,0.058
474,-0.217,0.055
475,-0.213,0.045
476,-0.200,0.055
477,-0.203,0.035
478,-0.213,0.020
479,-0.220,0.010
480,-0.233,0.000
481,-0.230,-0.005
482,-0.223,-0.015
483,-0.210,-0.010
484,-0.200,-0.018
485,-0.193,-0.020
486,-0.163,-0.022
487,-0.177,-0.028
488,-0.163,-0.022
489,-0.177,-0.037
490,-0.187,-0.037
491,-0.207,-0.040
492,-0.233,-0.062
493,-0.240,-0.062
494,-0.247,-0.052
495,-0.240,-0.045
496,-0.223,-0.035
497,-0.210,-0.020
498,-0.193,-0.010
499,-0.183,-0.003
500,-0.187,0.003
501,-0.190,0.000
502,-0.223,0.000
503,-0.240,-0.003
504,-0.270,-0.018
505,-0.293,-0.010
506,-0.303,-0.018
507,-0.310,-0.007
508,-0.317,-0.003
509,-0.307,0.000
510,-0.303,0.000
511,-0.293,0.000
512,-0.293,0.000
513,-0.293,0.000
514,-0.303,-0.013
515,-0.303,-0.010
516,-0.313,-0.022
517,-0.310,-0.022
518,-0.310,-0.022
519,-0.310,-0.018
520,-0.300,-0.005
521,-0.293,-0.005
522,-0.280,0.007
523,-0.277,0.003
524,-0.280,0.007
525,-0.280,-0.005
526,-0.290,-0.007
527,-0.287,-0.010
528,-0.297,-0.013
529,-0.300,-0.010
530,-0.293,-0.005
531,-0.293,0.000
532,-0.280,0.018
533,-0.280,0.018
534,-0.263,0.015
535,-0.257,0.020
536,-0.250,0.020
537,-0.247,0.022
538,-0.257,0.025
539,-0.263,0.035
540,-0.267,0.058
541,-0.273,0.098
542,-0.280,0.140
543,-0.293,0.185
544,-0.303,0.230
545,-0.303,0.260
546,-0.317,0.280
547,-0.317,0.307
548,-0.310,0.333
549,-0.320,0.360
550,-0.333,0.378
551,-0.357,0.370
552,-0.363,0.328
553,-0.373,0.235
554,-0.337,0.120
555,-0.267,-0.033
556,-0.163,-0.175
557,-0.023,-0.247
558,0.133,-0.240
559,0.277,-0.155
560,0.380,-0.060
561,0.423,0.013
562,0.407,0.028
563,0.330,0.000
564,0.187,-0.040
565,-0.037,-0.085
566,-0.300,-0.110
567,-0.567,-0.105
568,-0.770,-0.090
569,-0.887,-0.068
570,-0.910,-0.048
571,-0.860,-0.035
572,-0.777,-0.035
573,-0.700,-0.045
574,-0.627,-0.048
575,-0.570,-0.048
576,-0.523,-0.045
577,-0.480,-0.040
578,-0.453,-0.043
579,-0.417,-0.037
580,-0.380,-0.028
581,-0.343,-0.022
582,-0.327,-0.018
583,-0.310,-0.018
584,-0.283,-0.015
585,-0.287,-0.035
586,-0.280,-0.040
587,-0.263,-0.045
588,-0.263,-0.040
589,-0.240,-0.035
590,-0.243,-0.040
591,-0.223,-0.043
592,-0.207,-0.045
593,-0.193,-0.035
594,-0.177,-0.028
595,-0.170,-0.030
596,-0.163,-0.028
597,-0.170,-0.050
598,-0.177,-0.040
599,-0.163,-0.045
600,-0.183,-0.040
601,-0.157,-0.045
602,-0.170,-0.050
603,-0.160,-0.045
604,-0.163,-0.040
605,-0.147,-0.033
606,-0.130,-0.022
607,-0.127,-0.028
608,-0.120,-0.028
609,-0.130,-0.048
610,-0.127,-0.040
611,-0.117,-0.048
612,-0.130,-0.058
613,-0.123,-0.055
614,-0.123,-0.060
615,-0.117,-0.045
616,-0.100,-0.030
617,-0.093,-0.040
618,-0.077,-0.045
619,-0.083,-0.037
620,-0.073,-0.037
621,-0.067,-0.045
622,-0.073,-0.058
623,-0.067,-0.068
624,-0.077,-0.070
625,-0.060,-0.062
626,-0.067,-0.070
627,-0.060,-0.060
628,-0.040,-0.052
629,-0.033,-0.062
630,-0.023,-0.065
631,-0.027,-0.062
632,-0.023,-0.055
633,-0.017,-0.075
634,-0.027,-0.080
635,-0.020,-0.075
636,-0.023,-0.092
637,-0.027,-0.090
638,0.000,-0.087
639,-0.010,-0.092
640,0.010,-0.075
641,0.020,-0.075
642,0.023,-0.070
643,0.020,-0.070
644,0.027,-0.075
645,0.030,-0.080
646,0.030,-0.083
647,0.030,-0.085
648,0.017,-0.100
649,0.020,-0.092
650,0.013,-0.087
651,0.007,-0.080
652,0.030,-0.062
653,0.037,-0.062
654,0.030,-0.070
655,0.027,-0.070
656,0.030,-0.080
657,0.037,-0.087
658,0.043,-0.095
659,0.037,-0.095
660,0.027,-0.095
661,0.037,-0.087
662,0.050,-0.085
663,0.050,-0.080
664,0.053,-0.075
665,0.073,-0.075
666,0.077,-0.065
667,0.083,-0.070
668,0.083,-0.070
669,0.083,-0.070
670,0.067,-0.068
671,0.070,-0.070
672,0.067,-0.075
673,0.057,-0.080
674,0.060,-0.070
675,0.053,-0.062
676,0.053,-0.048
677,0.060,-0.040
678,0.047,-0.030
679,0.047,-0.028
680,0.033,-0.033
681,0.030,-0.025
682,0.040,-0.022
683,0.013,-0.028
684,0.000,-0.022
685,-0.010,-0.022
686,-0.023,-0.018
687,-0.027,-0.013
688,-0.030,0.005
689,-0.030,0.013
690,-0.043,0.018
691,-0.043,0.025
692,-0.050,0.022
693,-0.077,0.010
694,-0.090,0.018
695,-0.107,0.018
696,-0.113,0.022
697,-0.120,0.022
698,-0.140,0.028
699,-0.137,0.035
700,-0.140,0.040
701,-0.143,0.045
702,-0.147,0.048
703,-0.160,0.060
704,-0.157,0.058
705,-0.177,0.050
706,-0.183,0.043
707,-0.193,0.033
708,-0.207,0.043
709,-0.210,0.048
710,-0.217,0.045
711,-0.223,0.052
712,-0.237,0.060
713,-0.233,0.077
714,-0.217,0.083
715,-0.223,0.077
716,-0.223,0.080
717,-0.233,0.080
718,-0.240,0.072
719,-0.253,0.062
720,-0.280,0.065
721,-0.280,0.077
722,-0.283,0.072
723,-0.283,0.090
724,-0.277,0.105
725,-0.270,0.105
726,-0.273,0.115
727,-0.267,0.113
728,-0.267,0.115
729,-0.277,0.107
730,-0.290,0.107
731,-0.297,0.110
732,-0.317,0.105
733,-0.313,0.115
734,-0.317,0.110
735,-0.310,0.115
736,-0.310,0.128
737,-0.307,0.133
738,-0.307,0.142
739,-0.300,0.135
740,-0.303,0.140
741,-0.307,0.133
742,-0.327,0.128
743,-0.327,0.122
744,-0.340,0.117
745,-0.343,0.122
746,-0.343,0.122
747,-0.343,0.125
748,-0.333,0.130
749,-0.333,0.133
750,-0.330,0.142
751,-0.337,0.130
752,-0.337,0.128
753,-0.340,0.125
754,-0.347,0.117
755,-0.340,0.110
756,-0.350,0.110
757,-0.357,0.110
758,-0.350,0.110
759,-0.357,0.107
760,-0.353,0.115
761,-0.347,0.110
762,-0.350,0.110
763,-0.350,0.120
764,-0.347,0.102
765,-0.343,0.110
766,-0.343,0.095
767,-0.350,0.095
768,-0.340,0.090
769,-0.350,0.087
770,-0.350,0.083
771,-0.357,0.090
772,-0.350,0.090
773,-0.347,0.092
774,-0.343,0.098
775,-0.340,0.087
776,-0.337,0.090
777,-0.333,0.077
778,-0.343,0.062
779,-0.347,0.062
780,-0.357,0.065
781,-0.363,0.065
782,-0.363,0.068
783,-0.373,0.070
784,-0.367,0.080
785,-0.340,0.077
786,-0.343,0.085
787,-0.333,0.087
788,-0.337,0.075
789,-0.340,0.068
790,-0.340,0.062
791,-0.347,0.058
792,-0.350,0.052
793,-0.357,0.052
794,-0.363,0.062
795,-0.357,0.070
796,-0.353,0.075
797,-0.347,0.070
798,-0.350,0.065
799,-0.337,0.080
800,-0.340,0.075
801,-0.353,0.062
802,-0.353,0.062
803,-0.357,0.052
804,-0.357,0.050
805,-0.373,0.048
806,-0.380,0.050
807,-0.370,0.052
808,-0.347,0.068
809,-0.340,0.072
810,-0.340,0.077
811,-0.343,0.087
812,-0.340,0.072
813,-0.343,0.062
814,-0.350,0.058
815,-0.350,0.052
816,-0.350,0.052
817,-0.347,0.048
818,-0.350,0.052
819,-0.340,0.060
820,-0.340,0.075
821,-0.313,0.075
822,-0.320,0.070
823,-0.317,0.075
824,-0.317,0.070
825,-0.327,0.058
826,-0.327,0.050
827,-0.340,0.052
828,-0.350,0.058
829,-0.350,0.052
830,-0.367,0.052
831,-0.357,0.050
832,-0.357,0.055
833,-0.347,0.070
834,-0.343,0.068
835,-0.340,0.062
836,-0.337,0.068
837,-0.340,0.058
838,-0.340,0.055
839,-0.340,0.043
840,-0.357,0.045
841,-0.353,0.045
842,-0.357,0.052
843,-0.350,0.058
844,-0.350,0.058
845,-0.347,0.060
846,-0.340,0.062
847,-0.350,0.062
848,-0.343,0.058
849,-0.350,0.052
850,-0.357,0.058
851,-0.353,0.052
852,-0.357,0.043
853,-0.350,0.045
854,-0.360,0.037
855,-0.353,0.048
856,-0.343,0.052
857,-0.340,0.062
858,-0.320,0.070
859,-0.320,0.068
860,-0.323,0.080
861,-0.320,0.077
862,-0.333,0.065
863,-0.337,0.058
864,-0.333,0.058
865,-0.327,0.070
866,-0.330,0.065
867,-0.320,0.077
868,-0.310,0.087
869,-0.310,0.087
870,-0.307,0.080
871,-0.310,0.080
872,-0.307,0.075
873,-0.307,0.052
874,-0.327,0.037
875,-0.327,0.037
876,-0.330,0.020
877,-0.320,0.025
878,-0.313,0.018
879,-0.307,0.015
880,-0.280,0.022
881,-0.273,0.013
882,-0.273,0.018
883,-0.263,0.007
884,-0.270,0.007
885,-0.273,0.000
886,-0.303,-0.007
887,-0.320,-0.010
888,-0.337,-0.018
889,-0.343,-0.007
890,-0.343,-0.003
891,-0.333,0.000
892,-0.310,0.028
893,-0.293,0.035
894,-0.280,0.050
895,-0.273,0.052
896,-0.297,0.052
897,-0.317,0.040
898,-0.353,0.030
899,-0.373,0.037
900,-0.387,0.022
901,-0.403,0.025
902,-0.403,0.028
903,-0.410,0.028
904,-0.400,0.035
905,-0.403,0.037
906,-0.403,0.040
907,-0.387,0.035
908,-0.387,0.035
909,-0.387,0.035
910,-0.400,0.030
911,-0.403,0.022
912,-0.407,0.018
913,-0.413,0.018
914,-0.410,0.020
915,-0.413,0.025
916,-0.413,0.040
917,-0.403,0.045
918,-0.403,0.052
919,-0.383,0.052
920,-0.380,0.048
921,-0.390,0.045
922,-0.387,0.030
923,-0.397,0.035
924,-0.390,0.037
925,-0.397,0.035
926,-0.407,0.040
927,-0.397,0.045
928,-0.383,0.052
929,-0.367,0.052
930,-0.363,0.058
931,-0.350,0.052
932,-0.343,0.058
933,-0.350,0.062
934,-0.357,0.075
935,-0.363,0.080
936,-0.363,0.090
937,-0.380,0.122
938,-0.377,0.160
939,-0.377,0.207
940,-0.380,0.242
941,-0.380,0.275
942,-0.383,0.295
943,-0.383,0.315
944,-0.380,0.335
945,-0.383,0.360
946,-0.383,0.385
947,-0.397,0.390
948,-0.403,0.378
949,-0.403,0.325
950,-0.387,0.250
951,-0.340,0.147
952,-0.270,0.025
953,-0.147,-0.062
954,-0.007,-0.075
955,0.140,-0.030
956,0.270,0.045
957,0.353,0.115
958,0.380,0.128
959,0.327,0.110
960,0.210,0.037
961,-0.003,-0.028
962,-0.287,-0.072
963,-0.593,-0.095
964,-0.860,-0.098
965,-1.017,-0.070
966,-1.073,-0.045
967,-1.053,-0.025
968,-0.960,-0.010
969,-0.870,-0.010
970,-0.777,-0.003
971,-0.703,-0.010
972,-0.650,-0.005
973,-0.597,0.000
974,-0.560,0.005
975,-0.517,0.003
976,-0.480,0.010
977,-0.447,0.018
978,-0.413,0.022
979,-0.413,0.022
980,-0.397,0.022
981,-0.387,0.010
982,-0.380,0.010
983,-0.360,0.000
984,-0.353,0.000
985,-0.347,0.003
986,-0.340,0.005
987,-0.330,0.013
988,-0.307,0.018
989,-0.300,0.018
990,-0.283,0.022
991,-0.280,0.020
992,-0.270,0.022
993,-0.273,0.018
994,-0.280,0.010
995,-0.270,0.005
996,-0.283,0.000
997,-0.283,0.000
998,-0.280,0.000
999,-0.270,0.000
1000,-0.260,0.010
1001,-0.253,0.007
1002,-0.240,0.015
1003,-0.233,0.018
1004,-0.220,0.010
1005,-0.207,0.003
1006,-0.230,-0.005
1007,-0.220,-0.007
1008,-0.223,-0.018
1009,-0.223,-0.010
1010,-0.207,-0.010
1011,-0.210,-0.022
1012,-0.187,-0.003
1013,-0.180,-0.007
1014,-0.177,0.000
1015,-0.163,-0.015
1016,-0.163,-0.013
1017,-0.150,-0.020
1018,-0.170,-0.022
1019,-0.147,-0.030
1020,-0.150,-0.033
1021,-0.153,-0.028
1022,-0.153,-0.028
1023,-0.157,-0.028
1024,-0.130,-0.025
1025,-0.127,-0.022
1026,-0.107,-0.013
1027,-0.093,-0.013
1028,-0.093,-0.018
1029,-0.093,-0.015
1030,-0.100,-0.022
1031,-0.100,-0.040
1032,-0.107,-0.052
1033,-0.110,-0.045
1034,-0.097,-0.040
1035,-0.093,-0.037
1036,-0.087,-0.030
1037,-0.080,-0.035
1038,-0.067,-0.028
1039,-0.053,-0.025
1040,-0.047,-0.028
1041,-0.053,-0.028
1042,-0.053,-0.035
1043,-0.050,-0.040
1044,-0.053,-0.040
1045,-0.060,-0.043
1046,-0.053,-0.035
1047,-0.047,-0.035
1048,-0.040,-0.035
1049,-0.030,-0.033
1050,-0.033,-0.028
1051,-0.020,-0.025
1052,-0.017,-0.022
1053,-0.013,-0.028
1054,-0.010,-0.022
1055,-0.017,-0.043
1056,-0.017,-0.040
1057,-0.023,-0.033
1058,-0.023,-0.028
1059,-0.010,-0.022
1060,-0.013,-0.010
1061,0.003,0.000
1062,0.003,0.000
1063,0.000,0.010
1064,0.007,0.010
1065,0.007,0.000
1066,0.007,0.005
1067,-0.007,-0.005
1068,-0.010,0.005
1069,-0.017,0.005
1070,-0.030,0.020
1071,-0.023,0.033
1072,-0.020,0.040
1073,-0.017,0.045
1074,-0.030,0.040
1075,-0.037,0.062
1076,-0.027,0.062
1077,-0.053,0.062
1078,-0.067,0.058
1079,-0.083,0.058
1080,-0.093,0.075
1081,-0.097,0.070
1082,-0.120,0.068
1083,-0.130,0.077
1084,-0.130,0.075
1085,-0.140,0.080
1086,-0.153,0.098
1087,-0.153,0.107
1088,-0.160,0.102
1089,-0.170,0.083
1090,-0.193,0.075
1091,-0.210,0.065
1092,-0.223,0.077
1093,-0.223,0.083
1094,-0.233,0.087
1095,-0.233,0.095
1096,-0.227,0.110
1097,-0.217,0.110
1098,-0.217,0.120
1099,-0.220,0.115
1100,-0.223,0.122
1101,-0.227,0.105
1102,-0.240,0.107
1103,-0.240,0.105
1104,-0.263,0.098
1105,-0.260,0.110
1106,-0.263,0.110
1107,-0.267,0.120
1108,-0.260,0.120
1109,-0.270,0.128
1110,-0.257,0.133
1111,-0.263,0.125
1112,-0.263,0.130
1113,-0.280,0.117
1114,-0.293,0.122
1115,-0.293,0.110
1116,-0.327,0.115
1117,-0.313,0.113
1118,-0.320,0.125
1119,-0.317,0.130
1120,-0.307,0.133
1121,-0.307,0.140
1122,-0.300,0.147
1123,-0.293,0.130
1124,-0.297,0.138
1125,-0.303,0.120
1126,-0.317,0.125
1127,-0.317,0.115
1128,-0.327,0.115
1129,-0.333,0.120
1130,-0.327,0.128
1131,-0.330,0.133
1132,-0.327,0.133
1133,-0.317,0.128
1134,-0.310,0.142
1135,-0.313,0.128
1136,-0.320,0.135
1137,-0.317,0.128
1138,-0.320,0.125
1139,-0.317,0.117
1140,-0.327,0.107
1141,-0.333,0.105
1142,-0.330,0.113
1143,-0.327,0.113
1144,-0.320,0.122
1145,-0.320,0.122
1146,-0.323,0.125
1147,-0.320,0.125
1148,-0.323,0.110
1149,-0.317,0.107
1150,-0.327,0.090
1151,-0.340,0.095
1152,-0.340,0.090
1153,-0.350,0.087
1154,-0.343,0.098
1155,-0.340,0.092
1156,-0.330,0.098
1157,-0.327,0.102
1158,-0.323,0.098
1159,-0.320,0.098
1160,-0.313,0.087
1161,-0.317,0.083
1162,-0.320,0.077
1163,-0.327,0.083
1164,-0.330,0.070
1165,-0.340,0.070
1166,-0.330,0.083
1167,-0.320,0.080
1168,-0.330,0.085
1169,-0.313,0.092
1170,-0.310,0.087
1171,-0.303,0.090
1172,-0.310,0.080
1173,-0.310,0.075
1174,-0.317,0.060
1175,-0.327,0.060
1176,-0.320,0.062
1177,-0.327,0.055
1178,-0.320,0.058
1179,-0.327,0.055
1180,-0.323,0.068
1181,-0.310,0.075
1182,-0.303,0.068
1183,-0.290,0.070
1184,-0.283,0.062
1185,-0.290,0.058
1186,-0.297,0.045
1187,-0.310,0.045
1188,-0.303,0.050
1189,-0.310,0.048
1190,-0.313,0.055
1191,-0.300,0.058
1192,-0.297,0.062
1193,-0.287,0.065
1194,-0.293,0.062
1195,-0.293,0.058
1196,-0.297,0.055
1197,-0.303,0.052
1198,-0.310,0.052
1199,-0.327,0.045
1200,-0.330,0.035
1201,-0.317,0.040
1202,-0.340,0.037
1203,-0.333,0.040
1204,-0.317,0.045
1205,-0.310,0.062
1206,-0.307,0.062
1207,-0.297,0.052
1208,-0.303,0.045
1209,-0.310,0.040
1210,-0.310,0.040
1211,-0.307,0.035
1212,-0.313,0.033
1213,-0.310,0.035
1214,-0.317,0.030
1215,-0.313,0.035
1216,-0.307,0.035
1217,-0.297,0.055
1218,-0.287,0.052
1219,-0.287,0.048
1220,-0.290,0.043
1221,-0.303,0.035
1222,-0.307,0.035
1223,-0.300,0.025
1224,-0.307,0.028
1225,-0.303,0.037
1226,-0.307,0.028
1227,-0.300,0.037
1228,-0.290,0.035
1229,-0.287,0.040
1230,-0.280,0.040
1231,-0.277,0.045
1232,-0.270,0.045
1233,-0.270,0.035
1234,-0.283,0.022
1235,-0.287,0.018
1236,-0.293,0.018
1237,-0.293,0.015
1238,-0.293,0.020
1239,-0.300,0.028
1240,-0.300,0.033
1241,-0.293,0.035
1242,-0.273,0.045
1243,-0.280,0.045
1244,-0.273,0.040
1245,-0.280,0.037
1246,-0.293,0.035
1247,-0.290,0.037
1248,-0.303,0.033
1249,-0.293,0.048
1250,-0.293,0.050
1251,-0.287,0.045
1252,-0.273,0.052
1253,-0.270,0.062
1254,-0.257,0.070
1255,-0.247,0.070
1256,-0.243,0.065
1257,-0.243,0.052
1258,-0.250,0.043
1259,-0.247,0.040
1260,-0.263,0.022
1261,-0.273,0.015
1262,-0.263,0.003
1263,-0.260,0.000
1264,-0.233,0.000
1265,-0.217,-0.003
1266,-0.200,-0.005
1267,-0.193,-0.005
1268,-0.200,-0.005
1269,-0.210,-0.013
1270,-0.227,-0.033
1271,-0.243,-0.040
1272,-0.247,-0.048
1273,-0.263,-0.037
1274,-0.240,-0.025
1275,-0.237,-0.010
1276,-0.213,0.010
1277,-0.200,0.018
1278,-0.193,0.030
1279,-0.200,0.040
1280,-0.223,0.035
1281,-0.247,0.025
1282,-0.280,0.010
1283,-0.303,0.005
1284,-0.327,-0.005
1285,-0.340,0.000
1286,-0.340,0.000
1287,-0.347,0.005
1288,-0.337,0.010
1289,-0.327,0.010
1290,-0.327,0.015
1291,-0.317,0.020
1292,-0.317,0.013
1293,-0.317,0.010
1294,-0.327,0.003
1295,-0.333,0.000
1296,-0.327,0.003
1297,-0.337,0.000
1298,-0.327,0.007
1299,-0.327,0.003
1300,-0.317,0.020
1301,-0.313,0.022
1302,-0.307,0.028
1303,-0.297,0.028
1304,-0.300,0.022
1305,-0.297,0.015
1306,-0.297,0.010
1307,-0.303,0.010
1308,-0.317,0.003
1309,-0.313,0.005
1310,-0.303,0.010
1311,-0.300,0.018
1312,-0.300,0.028
1313,-0.287,0.028
1314,-0.290,0.033
1315,-0.287,0.040
1316,-0.283,0.043
1317,-0.290,0.055
1318,-0.293,0.068
1319,-0.303,0.090
1320,-0.310,0.138
1321,-0.323,0.168
1322,-0.337,0.210
1323,-0.347,0.245
1324,-0.357,0.270
1325,-0.350,0.302
1326,-0.350,0.328
1327,-0.340,0.367
1328,-0.333,0.383
1329,-0.343,0.375
1330,-0.350,0.320
1331,-0.347,0.225
1332,-0.317,0.083
1333,-0.250,-0.070
1334,-0.140,-0.200
1335,0.000,-0.253
1336,0.167,-0.215
1337,0.327,-0.117
1338,0.433,-0.010
1339,0.480,0.052
1340,0.473,0.070
1341,0.380,0.022
1342,0.207,-0.018
1343,-0.030,-0.060
1344,-0.303,-0.083
1345,-0.570,-0.095
1346,-0.787,-0.075
1347,-0.893,-0.055
1348,-0.923,-0.043
1349,-0.870,-0.018
1350,-0.783,-0.013
1351,-0.697,-0.003
1352,-0.607,-0.007
1353,-0.550,-0.010
1354,-0.500,-0.007
1355,-0.460,-0.013
1356,-0.433,-0.018
1357,-0.403,-0.010
1358,-0.387,-0.020
1359,-0.350,-0.007
1360,-0.320,-0.013
1361,-0.300,-0.005
1362,-0.280,-0.013
1363,-0.273,-0.010
1364,-0.243,-0.018
1365,-0.233,-0.022
1366,-0.230,-0.025
1367,-0.217,-0.028
1368,-0.217,-0.035
1369,-0.210,-0.033
1370,-0.210,-0.035
1371,-0.197,-0.030
1372,-0.187,-0.022
1373,-0.177,-0.020
1374,-0.163,-0.010
1375,-0.153,-0.018
1376,-0.150,-0.015
1377,-0.153,-0.033
1378,-0.163,-0.037
1379,-0.147,-0.045
1380,-0.150,-0.045
1381,-0.153,-0.050
1382,-0.143,-0.052
1383,-0.140,-0.035
1384,-0.110,-0.030
1385,-0.107,-0.033
1386,-0.107,-0.018
1387,-0.093,-0.018
1388,-0.083,-0.028
1389,-0.083,-0.045
1390,-0.093,-0.058
1391,-0.083,-0.052
1392,-0.090,-0.048
1393,-0.093,-0.052
1394,-0.087,-0.060
1395,-0.093,-0.058
1396,-0.077,-0.040
1397,-0.057,-0.043
1398,-0.043,-0.040
1399,-0.033,-0.045
1400,-0.027,-0.045
1401,-0.027,-0.050
1402,-0.030,-0.055
1403,-0.037,-0.058
1404,-0.030,-0.070
1405,-0.030,-0.068
1406,-0.030,-0.072
1407,-0.023,-0.070
1408,-0.013,-0.060
1409,0.000,-0.058
1410,0.007,-0.060
1411,0.017,-0.062
1412,0.023,-0.070
1413,0.027,-0.072
1414,0.023,-0.080
1415,0.030,-0.083
1416,0.027,-0.092
1417,0.023,-0.090
1418,0.013,-0.087
1419,0.027,-0.087
1420,0.053,-0.075
1421,0.077,-0.075
1422,0.060,-0.080
1423,0.077,-0.070
1424,0.080,-0.080
1425,0.080,-0.085
1426,0.083,-0.080
1427,0.083,-0.087
1428,0.077,-0.087
1429,0.083,-0.080
1430,0.077,-0.083
1431,0.077,-0.083
1432,0.100,-0.065
1433,0.097,-0.075
1434,0.107,-0.062
1435,0.110,-0.058
1436,0.117,-0.068
1437,0.107,-0.068
1438,0.113,-0.070
1439,0.110,-0.077
1440,0.107,-0.090
1441,0.117,-0.085
1442,0.107,-0.080
1443,0.113,-0.077
1444,0.117,-0.062
1445,0.130,-0.045
1446,0.110,-0.052
1447,0.123,-0.040
1448,0.120,-0.045
1449,0.127,-0.040
1450,0.110,-0.048
1451,0.100,-0.050
1452,0.077,-0.048
1453,0.070,-0.040
1454,0.073,-0.028
1455,0.067,-0.018
1456,0.060,-0.013
1457,0.080,0.000
1458,0.070,-0.005
1459,0.050,0.005
1460,0.063,0.005
1461,0.047,0.000
1462,0.030,0.000
1463,0.007,0.000
1464,-0.007,0.007
1465,-0.010,0.003
1466,-0.027,0.010
1467,-0.027,0.018
1468,-0.037,0.025
1469,-0.030,0.035
1470,-0.033,0.035
1471,-0.053,0.035
1472,-0.047,0.040
1473,-0.077,0.030
1474,-0.087,0.035
1475,-0.090,0.028
1476,-0.107,0.025
1477,-0.117,0.033
1478,-0.130,0.040
1479,-0.123,0.043
1480,-0.130,0.048
1481,-0.130,0.052
1482,-0.130,0.052
1483,-0.140,0.062
1484,-0.130,0.058
1485,-0.147,0.045
1486,-0.170,0.052
1487,-0.170,0.043
1488,-0.180,0.052
1489,-0.170,0.058
1490,-0.187,0.058
1491,-0.187,0.060
1492,-0.180,0.070
1493,-0.177,0.075
1494,-0.183,0.080
1495,-0.187,0.080
1496,-0.177,0.100
1497,-0.173,0.077
1498,-0.190,0.085
1499,-0.190,0.085
1500,-0.200,0.075
1501,-0.203,0.077
1502,-0.200,0.085
1503,-0.200,0.100
1504,-0.193,0.105
1505,-0.190,0.115
1506,-0.187,0.115
1507,-0.190,0.117
1508,-0.193,0.117
1509,-0.200,0.110
1510,-0.210,0.107
1511,-0.213,0.105
1512,-0.230,0.102
1513,-0.233,0.107
1514,-0.240,0.115
1515,-0.240,0.113
1516,-0.233,0.120
1517,-0.223,0.122
1518,-0.227,0.128
1519,-0.217,0.115
1520,-0.223,0.117
1521,-0.223,0.120
1522,-0.240,0.102
1523,-0.240,0.105
1524,-0.243,0.092
1525,-0.250,0.092
1526,-0.257,0.100
1527,-0.250,0.098
1528,-0.237,0.113
1529,-0.230,0.113
1530,-0.237,0.117
1531,-0.223,0.113
1532,-0.223,0.100
1533,-0.227,0.092
1534,-0.233,0.080
1535,-0.237,0.080
1536,-0.237,0.075
1537,-0.233,0.070
1538,-0.227,0.070
1539,-0.240,0.080
1540,-0.223,0.087
1541,-0.213,0.077
1542,-0.223,0.083
1543,-0.217,0.083
1544,-0.213,0.070
1545,-0.220,0.070
1546,-0.220,0.058
1547,-0.227,0.058
1548,-0.240,0.050
1549,-0.247,0.043
1550,-0.240,0.045
1551,-0.237,0.048
1552,-0.233,0.058
1553,-0.223,0.062
1554,-0.220,0.058
1555,-0.217,0.070
1556,-0.217,0.058
1557,-0.213,0.052
1558,-0.217,0.045
1559,-0.223,0.040
1560,-0.223,0.035
1561,-0.233,0.035
1562,-0.227,0.043
1563,-0.227,0.048
1564,-0.223,0.052
1565,-0.210,0.045
1566,-0.210,0.052
1567,-0.200,0.062
1568,-0.200,0.055
1569,-0.210,0.035
1570,-0.203,0.022
1571,-0.223,0.022
1572,-0.223,0.018
1573,-0.223,0.015
1574,-0.237,0.028
1575,-0.233,0.035
1576,-0.213,0.030
1577,-0.200,0.045
1578,-0.207,0.040
1579,-0.200,0.030
1580,-0.193,0.028
1581,-0.203,0.028
1582,-0.213,0.022
1583,-0.223,0.013
1584,-0.223,0.015
1585,-0.217,0.018
1586,-0.213,0.018
1587,-0.207,0.022
1588,-0.217,0.030
1589,-0.200,0.040
1590,-0.193,0.035
1591,-0.200,0.028
1592,-0.197,0.022
1593,-0.210,0.010
1594,-0.210,0.010
1595,-0.207,0.000
1596,-0.213,0.007
1597,-0.207,0.000
1598,-0.217,0.005
1599,-0.210,0.018
1600,-0.210,0.018
1601,-0.200,0.028
1602,-0.187,0.028
1603,-0.197,0.022
1604,-0.197,0.025
1605,-0.213,0.013
1606,-0.210,0.010
1607,-0.217,0.010
1608,-0.223,0.007
1609,-0.217,0.005
1610,-0.223,0.005
1611,-0.223,0.010
1612,-0.210,0.018
1613,-0.207,0.018
1614,-0.200,0.018
1615,-0.203,0.020
1616,-0.193,0.018
1617,-0.200,0.003
1618,-0.207,0.010
1619,-0.210,-0.007
1620,-0.217,-0.005
1621,-0.223,0.000
1622,-0.217,-0.005
1623,-0.223,0.005
1624,-0.210,0.003
1625,-0.200,0.007
1626,-0.197,0.015
1627,-0.193,0.003
1628,-0.187,0.010
1629,-0.190,-0.005
1630,-0.197,-0.005
1631,-0.200,-0.010
1632,-0.200,-0.010
1633,-0.200,0.000
1634,-0.200,-0.005
1635,-0.193,0.005
1636,-0.187,0.007
1637,-0.180,0.020
1638,-0.170,0.028
1639,-0.170,0.025
1640,-0.170,0.033
1641,-0.163,0.035
1642,-0.170,0.028
1643,-0.173,0.028
1644,-0.180,0.022
1645,-0.183,0.018
1646,-0.187,0.010
1647,-0.193,0.018
1648,-0.183,0.018
1649,-0.173,0.015
1650,-0.170,0.015
1651,-0.157,0.000
1652,-0.167,-0.018
1653,-0.147,-0.030
1654,-0.167,-0.040
1655,-0.153,-0.045
1656,-0.143,-0.060
1657,-0.157,-0.058
1658,-0.137,-0.058
1659,-0.147,-0.052
1660,-0.130,-0.040
1661,-0.143,-0.060
1662,-0.167,-0.062
1663,-0.153,-0.058
1664,-0.170,-0.058
1665,-0.173,-0.062
1666,-0.187,-0.065
1667,-0.163,-0.052
1668,-0.160,-0.052
1669,-0.153,-0.045
1670,-0.150,-0.037
1671,-0.147,-0.028
1672,-0.140,-0.013
1673,-0.153,-0.003
1674,-0.170,-0.003
1675,-0.187,0.000
1676,-0.207,-0.015
1677,-0.223,-0.020
1678,-0.240,-0.040
1679,-0.263,-0.045
1680,-0.257,-0.045
1681,-0.270,-0.045
1682,-0.270,-0.033
1683,-0.260,-0.033
1684,-0.247,-0.020
1685,-0.233,-0.018
1686,-0.230,-0.020
1687,-0.223,-0.022
1688,-0.217,-0.018
1689,-0.223,-0.022
1690,-0.227,-0.022
1691,-0.240,-0.033
1692,-0.243,-0.033
1693,-0.257,-0.035
1694,-0.247,-0.030
1695,-0.243,-0.022
1696,-0.237,-0.010
1697,-0.223,-0.005
1698,-0.223,-0.005
1699,-0.223,0.000
1700,-0.217,-0.007
1701,-0.230,-0.013
1702,-0.233,-0.018
1703,-0.237,-0.028
1704,-0.243,-0.028
1705,-0.247,-0.022
1706,-0.243,-0.015
1707,-0.240,-0.005
1708,-0.237,0.005
1709,-0.223,0.020
1710,-0.217,0.037
1711,-0.217,0.055
1712,-0.217,0.087
1713,-0.227,0.128
1714,-0.243,0.163
1715,-0.270,0.193
1716,-0.283,0.220
1717,-0.293,0.235
1718,-0.300,0.245
1719,-0.283,0.285
1720,-0.287,0.320
1721,-0.287,0.365
1722,-0.290,0.385
1723,-0.303,0.375
1724,-0.307,0.333
1725,-0.303,0.237
1726,-0.277,0.115
1727,-0.210,-0.048
1728,-0.123,-0.198
1729,0.017,-0.275
1730,0.150,-0.260
1731,0.297,-0.158
1732,0.403,-0.055
1733,0.457,0.018
1734,0.453,0.028
1735,0.360,0.000
1736,0.183,-0.055
1737,-0.087,-0.105
1738,-0.387,-0.125
1739,-0.643,-0.130
1740,-0.820,-0.115
1741,-0.887,-0.095
1742,-0.870,-0.080
1743,-0.783,-0.058
1744,-0.677,-0.055
1745,-0.583,-0.048
1746,-0.487,-0.037
1747,-0.420,-0.033
1748,-0.367,-0.022
1749,-0.340,-0.028
1750,-0.327,-0.035
1751,-0.307,-0.043
1752,-0.303,-0.052
1753,-0.287,-0.050
1754,-0.287,-0.048
1755,-0.270,-0.040
1756,-0.250,-0.040
1757,-0.240,-0.028
1758,-0.200,-0.025
1759,-0.197,-0.025
1760,-0.177,-0.035
1761,-0.177,-0.043
1762,-0.190,-0.058
1763,-0.177,-0.060
1764,-0.163,-0.052
1765,-0.163,-0.050
1766,-0.160,-0.058
1767,-0.160,-0.048
1768,-0.123,-0.040
1769,-0.113,-0.037
1770,-0.110,-0.037
1771,-0.100,-0.045
1772,-0.087,-0.045
1773,-0.090,-0.052
1774,-0.093,-0.058
1775,-0.093,-0.055
1776,-0.097,-0.062
1777,-0.093,-0.055
1778,-0.097,-0.060
1779,-0.100,-0.058
1780,-0.077,-0.050
1781,-0.070,-0.048
1782,-0.067,-0.040
1783,-0.070,-0.050
1784,-0.070,-0.050
1785,-0.063,-0.052
1786,-0.067,-0.055
1787,-0.057,-0.058
1788,-0.060,-0.070
1789,-0.063,-0.070
1790,-0.053,-0.070
1791,-0.060,-0.075
1792,-0.053,-0.058
1793,-0.033,-0.052
1794,-0.030,-0.055
1795,-0.030,-0.062
1796,-0.030,-0.070
1797,-0.020,-0.065
1798,-0.020,-0.092
1799,-0.017,-0.090
1800,-0.020,-0.095
1801,-0.023,-0.098
1802,0.000,-0.087
1803,0.013,-0.090
1804,0.023,-0.083
1805,0.050,-0.077
1806,0.047,-0.080
1807,0.050,-0.075
1808,0.067,-0.080
1809,0.053,-0.090
1810,0.043,-0.090
1811,0.040,-0.090
1812,0.053,-0.098
1813,0.053,-0.102
1814,0.053,-0.100
1815,0.067,-0.095
1816,0.067,-0.083
1817,0.073,-0.090
1818,0.080,-0.083
1819,0.083,-0.083
1820,0.080,-0.098
1821,0.090,-0.090
1822,0.087,-0.107
1823,0.083,-0.102
1824,0.080,-0.105
1825,0.073,-0.102
1826,0.077,-0.090
1827,0.083,-0.092
1828,0.083,-0.083
1829,0.103,-0.080
1830,0.090,-0.087
1831,0.090,-0.075
1832,0.097,-0.087
1833,0.093,-0.083
1834,0.107,-0.083
1835,0.090,-0.095
1836,0.093,-0.090
1837,0.083,-0.100
1838,0.070,-0.087
1839,0.093,-0.065
1840,0.077,-0.070
1841,0.093,-0.052
1842,0.100,-0.045
1843,0.090,-0.045
1844,0.097,-0.045
1845,0.077,-0.062
1846,0.070,-0.052
1847,0.070,-0.052
1848,0.047,-0.052
1849,0.050,-0.043
1850,0.047,-0.028
1851,0.040,-0.020
1852,0.030,-0.005
1853,0.027,0.000
1854,0.037,0.003
1855,0.020,0.005
1856,0.007,0.005
1857,0.000,0.007
1858,-0.023,0.005
1859,-0.037,0.010
1860,-0.053,0.000
1861,-0.070,0.007
1862,-0.083,0.005
1863,-0.100,0.015
1864,-0.107,0.022
1865,-0.107,0.037
1866,-0.110,0.040
1867,-0.137,0.037
1868,-0.140,0.052
1869,-0.150,0.033
1870,-0.177,0.030
1871,-0.177,0.028
1872,-0.200,0.025
1873,-0.197,0.025
1874,-0.207,0.033
1875,-0.223,0.050
1876,-0.217,0.058
1877,-0.213,0.058
1878,-0.207,0.062
1879,-0.210,0.052
1880,-0.213,0.062
1881,-0.210,0.062
1882,-0.220,0.060
1883,-0.223,0.052
1884,-0.243,0.052
1885,-0.250,0.075
1886,-0.263,0.075
1887,-0.257,0.083
1888,-0.260,0.087
1889,-0.260,0.095
1890,-0.247,0.098
1891,-0.243,0.105
1892,-0.240,0.105
1893,-0.243,0.095
1894,-0.253,0.098
1895,-0.253,0.092
1896,-0.270,0.090
1897,-0.270,0.100
1898,-0.277,0.095
1899,-0.283,0.113
1900,-0.270,0.110
1901,-0.283,0.110
1902,-0.270,0.115
1903,-0.273,0.115
1904,-0.280,0.117
1905,-0.287,0.110
1906,-0.310,0.110
1907,-0.307,0.100
1908,-0.327,0.102
1909,-0.327,0.102
1910,-0.327,0.105
1911,-0.320,0.105
1912,-0.310,0.110
1913,-0.317,0.115
1914,-0.310,0.110
1915,-0.300,0.115
1916,-0.307,0.110
1917,-0.320,0.105
1918,-0.320,0.095
1919,-0.320,0.090
1920,-0.330,0.085
1921,-0.333,0.080
1922,-0.330,0.077
1923,-0.333,0.085
1924,-0.323,0.092
1925,-0.317,0.092
1926,-0.323,0.098
1927,-0.317,0.092
1928,-0.320,0.083
1929,-0.320,0.083
1930,-0.317,0.075
1931,-0.327,0.065
1932,-0.320,0.058
1933,-0.330,0.068
1934,-0.317,0.068
1935,-0.320,0.070
1936,-0.320,0.072
1937,-0.303,0.080
1938,-0.310,0.065
1939,-0.310,0.065
1940,-0.310,0.068
1941,-0.317,0.062
1942,-0.327,0.058
1943,-0.340,0.045
1944,-0.337,0.048
1945,-0.347,0.040
1946,-0.347,0.050
1947,-0.350,0.052
1948,-0.347,0.052
1949,-0.340,0.060
1950,-0.337,0.062
1951,-0.327,0.068
1952,-0.320,0.058
1953,-0.340,0.048
1954,-0.337,0.035
1955,-0.350,0.020
1956,-0.353,0.022
1957,-0.353,0.028
1958,-0.350,0.030
1959,-0.350,0.040
1960,-0.340,0.045
1961,-0.337,0.043
1962,-0.327,0.043
1963,-0.320,0.050
1964,-0.300,0.052
1965,-0.310,0.040
1966,-0.317,0.035
1967,-0.333,0.020
1968,-0.350,0.025
1969,-0.340,0.022
1970,-0.350,0.025
1971,-0.350,0.037
1972,-0.347,0.030
1973,-0.333,0.043
1974,-0.327,0.037
1975,-0.327,0.035
1976,-0.313,0.030
1977,-0.327,0.022
1978,-0.333,0.022
1979,-0.333,0.007
1980,-0.340,0.010
1981,-0.340,0.013
1982,-0.340,0.015
1983,-0.333,0.030
1984,-0.337,0.033
1985,-0.327,0.035
1986,-0.310,0.035
1987,-0.330,0.028
1988,-0.317,0.022
1989,-0.333,0.018
1990,-0.340,0.018
1991,-0.340,0.005
1992,-0.357,0.010
1993,-0.357,0.015
1994,-0.357,0.013
1995,-0.357,0.022
1996,-0.340,0.018
1997,-0.347,0.028
1998,-0.340,0.037
1999,-0.343,0.028
2000,-0.330,0.022
2001,-0.330,0.015
2002,-0.337,0.007
2003,-0.337,0.007
2004,-0.353,0.000
2005,-0.350,0.007
2006,-0.353,0.010
2007,-0.347,0.018
2008,-0.340,0.022
2009,-0.333,0.030
2010,-0.317,0.035
2011,-0.313,0.028
2012,-0.320,0.028
2013,-0.320,0.025
2014,-0.340,0.013
2015,-0.337,0.018
2016,-0.357,0.013
2017,-0.353,0.015
2018,-0.360,0.018
2019,-0.360,0.022
2020,-0.347,0.022
2021,-0.340,0.028
2022,-0.340,0.037
2023,-0.333,0.040
2024,-0.323,0.052
2025,-0.317,0.052
2026,-0.327,0.048
2027,-0.327,0.040
2028,-0.333,0.040
2029,-0.340,0.043
2030,-0.337,0.050
2031,-0.337,0.050
2032,-0.330,0.048
2033,-0.323,0.040
2034,-0.317,0.040
2035,-0.317,0.022
2036,-0.320,0.010
2037,-0.333,0.005
2038,-0.330,-0.013
2039,-0.320,-0.022
2040,-0.310,-0.030
2041,-0.317,-0.030
2042,-0.287,-0.028
2043,-0.280,-0.022
2044,-0.277,-0.018
2045,-0.267,-0.015
2046,-0.283,-0.028
2047,-0.280,-0.035
2048,-0.300,-0.045
2049,-0.310,-0.040
2050,-0.330,-0.048
2051,-0.340,-0.050
2052,-0.363,-0.037
2053,-0.363,-0.033
2054,-0.353,-0.020
2055,-0.333,-0.010
2056,-0.313,0.003
2057,-0.303,0.013
2058,-0.327,0.015
2059,-0.340,0.005
2060,-0.363,0.000
2061,-0.387,-0.003
2062,-0.393,-0.010
2063,-0.403,-0.018
2064,-0.403,-0.020
2065,-0.410,-0.015
2066,-0.410,-0.010
2067,-0.403,-0.007
2068,-0.403,-0.005
2069,-0.393,0.005
2070,-0.393,0.000
2071,-0.390,0.000
2072,-0.390,-0.003
2073,-0.400,-0.013
2074,-0.397,-0.015
2075,-0.403,-0.028
2076,-0.413,-0.022
2077,-0.403,-0.015
2078,-0.413,-0.005
2079,-0.410,-0.005
2080,-0.403,0.000
2081,-0.397,0.005
2082,-0.383,0.010
2083,-0.387,0.010
2084,-0.380,0.015
2085,-0.373,0.000
2086,-0.377,0.000
2087,-0.380,0.000
2088,-0.397,-0.005
2089,-0.397,0.000
2090,-0.397,0.000
2091,-0.397,0.018
2092,-0.377,0.022
2093,-0.363,0.030
2094,-0.357,0.040
2095,-0.357,0.045
2096,-0.350,0.052
2097,-0.363,0.075
2098,-0.360,0.113
2099,-0.377,0.140
2100,-0.397,0.180
2101,-0.410,0.215
2102,-0.417,0.223
2103,-0.417,0.237
2104,-0.397,0.245
2105,-0.380,0.258
2106,-0.363,0.297
2107,-0.363,0.328
2108,-0.363,0.362
2109,-0.380,0.365
2110,-0.390,0.325
2111,-0.387,0.250
2112,-0.363,0.133
2113,-0.287,0.000
2114,-0.170,-0.100
2115,-0.003,-0.100
2116,0.177,-0.052
2117,0.333,0.028
2118,0.427,0.095
2119,0.457,0.092
2120,0.383,0.043
2121,0.207,-0.033
2122,-0.073,-0.085
2123,-0.397,-0.128
2124,-0.730,-0.135
2125,-0.963,-0.117
2126,-1.073,-0.090
2127,-1.080,-0.065
2128,-1.000,-0.050
2129,-0.887,-0.035
2130,-0.770,-0.030
2131,-0.683,-0.022
2132,-0.630,-0.018
2133,-0.590,-0.020
2134,-0.573,-0.028
2135,-0.543,-0.035
2136,-0.523,-0.040
2137,-0.510,-0.028
2138,-0.483,-0.022
2139,-0.453,-0.018
2140,-0.410,-0.007
2141,-0.397,0.000
2142,-0.380,0.003
2143,-0.370,-0.005
2144,-0.360,-0.003
2145,-0.347,-0.018
2146,-0.350,-0.025
2147,-0.347,-0.028
2148,-0.333,-0.033
2149,-0.323,-0.018
2150,-0.310,-0.015
2151,-0.297,-0.015
2152,-0.270,-0.005
2153,-0.257,0.000
2154,-0.257,0.000
2155,-0.240,0.000
2156,-0.243,-0.010
2157,-0.247,-0.015
2158,-0.257,-0.022
2159,-0.247,-0.022
2160,-0.243,-0.030
2161,-0.230,-0.028
2162,-0.227,-0.022
2163,-0.223,-0.020
2164,-0.210,-0.013
2165,-0.203,-0.018
2166,-0.197,-0.013
2167,-0.193,-0.007
2168,-0.190,-0.018
2169,-0.177,-0.020
2170,-0.193,-0.033
2171,-0.187,-0.028
2172,-0.180,-0.028
2173,-0.187,-0.030
2174,-0.177,-0.022
2175,-0.170,-0.030
2176,-0.167,-0.020
2177,-0.140,-0.020
2178,-0.133,-0.018
2179,-0.123,-0.020
2180,-0.107,-0.030
2181,-0.107,-0.037
2182,-0.107,-0.045
2183,-0.110,-0.045
2184,-0.100,-0.045
2185,-0.097,-0.043
2186,-0.090,-0.037
2187,-0.080,-0.040
2188,-0.057,-0.033
2189,-0.043,-0.040
2190,-0.043,-0.040
2191,-0.043,-0.040
2192,-0.040,-0.040
2193,-0.053,-0.055
2194,-0.050,-0.058
2195,-0.050,-0.058
2196,-0.040,-0.058
2197,-0.037,-0.070
2198,-0.047,-0.062
2199,-0.030,-0.052
2200,-0.017,-0.045
2201,-0.017,-0.050
2202,-0.023,-0.045
2203,-0.010,-0.040
2204,-0.007,-0.048
2205,-0.010,-0.052
2206,-0.010,-0.062
2207,-0.017,-0.070
2208,0.000,-0.065
2209,0.013,-0.062
2210,0.010,-0.070
2211,0.017,-0.052
2212,0.023,-0.052
2213,0.037,-0.045
2214,0.037,-0.050
2215,0.043,-0.048
2216,0.030,-0.045
2217,0.037,-0.058
2218,0.030,-0.055
2219,0.030,-0.055
2220,0.030,-0.050
2221,0.023,-0.045
2222,0.023,-0.060
2223,0.043,-0.045
2224,0.053,-0.035
2225,0.060,-0.018
2226,0.073,-0.018
2227,0.070,-0.013
2228,0.073,-0.018
2229,0.053,-0.035
2230,0.053,-0.018
2231,0.047,-0.025
2232,0.030,-0.022
2233,0.023,-0.013
2234,0.017,-0.013
2235,0.027,0.005
2236,0.030,0.020
2237,0.023,0.022
2238,0.000,0.020
2239,-0.010,0.022
2240,-0.007,0.018
2241,-0.023,0.005
2242,-0.033,0.018
2243,-0.033,0.005
2244,-0.057,0.010
2245,-0.063,0.040
2246,-0.073,0.037
2247,-0.080,0.048
2248,-0.077,0.052
2249,-0.087,0.052
2250,-0.097,0.050
2251,-0.100,0.058
2252,-0.100,0.058
2253,-0.110,0.052
2254,-0.140,0.043
2255,-0.147,0.045
2256,-0.170,0.037
2257,-0.170,0.052
2258,-0.177,0.052
2259,-0.180,0.058
2260,-0.173,0.065
2261,-0.177,0.070
2262,-0.173,0.075
2263,-0.170,0.077
2264,-0.183,0.075
2265,-0.187,0.070
2266,-0.200,0.062
2267,-0.200,0.060
2268,-0.220,0.055
2269,-0.223,0.070
2270,-0.220,0.077
2271,-0.227,0.077
2272,-0.223,0.090
2273,-0.210,0.092
2274,-0.217,0.087
2275,-0.217,0.087
2276,-0.210,0.083
2277,-0.210,0.068
2278,-0.220,0.070
2279,-0.223,0.080
2280,-0.240,0.075
2281,-0.247,0.072
2282,-0.240,0.090
2283,-0.237,0.090
2284,-0.237,0.087
2285,-0.227,0.087
2286,-0.233,0.098
2287,-0.223,0.095
2288,-0.237,0.092
2289,-0.247,0.090
2290,-0.253,0.075
2291,-0.257,0.075
2292,-0.247,0.070
2293,-0.263,0.072
2294,-0.263,0.080
2295,-0.267,0.080
2296,-0.263,0.087
2297,-0.250,0.098
2298,-0.257,0.098
2299,-0.247,0.095
2300,-0.263,0.090
2301,-0.263,0.080
2302,-0.270,0.068
2303,-0.283,0.068
2304,-0.270,0.065
2305,-0.277,0.068
2306,-0.273,0.065
2307,-0.267,0.070
2308,-0.263,0.080
2309,-0.257,0.077
2310,-0.277,0.077
2311,-0.263,0.080
2312,-0.257,0.065
2313,-0.270,0.070
2314,-0.273,0.062
2315,-0.280,0.052
2316,-0.280,0.050
2317,-0.290,0.048
2318,-0.290,0.045
2319,-0.290,0.045
2320,-0.293,0.058
2321,-0.280,0.065
2322,-0.270,0.060
2323,-0.270,0.065
2324,-0.263,0.058
2325,-0.263,0.048
2326,-0.267,0.035
2327,-0.280,0.028
2328,-0.280,0.028
2329,-0.280,0.028
2330,-0.287,0.035
2331,-0.273,0.043
2332,-0.263,0.043
2333,-0.250,0.052
2334,-0.247,0.045
2335,-0.247,0.035
2336,-0.247,0.033
2337,-0.250,0.033
2338,-0.263,0.035
2339,-0.263,0.022
2340,-0.257,0.028
2341,-0.260,0.025
2342,-0.263,0.022
2343,-0.250,0.025
2344,-0.253,0.033
2345,-0.243,0.033
2346,-0.247,0.025
2347,-0.247,0.035
2348,-0.243,0.040
2349,-0.253,0.030
2350,-0.257,0.030
2351,-0.257,0.020
2352,-0.263,0.015
2353,-0.263,0.010
2354,-0.270,0.015
2355,-0.263,0.018
2356,-0.263,0.022
2357,-0.257,0.030
2358,-0.253,0.028
2359,-0.263,0.028
2360,-0.257,0.030
2361,-0.250,0.018
2362,-0.263,0.018
2363,-0.263,0.013
2364,-0.273,0.003
2365,-0.270,0.013
2366,-0.270,0.015
2367,-0.267,0.013
2368,-0.263,0.018
2369,-0.260,0.018
2370,-0.240,0.022
2371,-0.247,0.013
2372,-0.250,0.010
2373,-0.247,0.005
2374,-0.260,0.000
2375,-0.260,0.000
2376,-0.263,0.000
2377,-0.257,0.000
2378,-0.260,0.005
2379,-0.273,0.010
2380,-0.263,0.010
2381,-0.250,0.013
2382,-0.253,0.018
2383,-0.247,0.018
2384,-0.237,0.013
2385,-0.240,0.003
2386,-0.247,0.000
2387,-0.247,0.000
2388,-0.257,-0.010
2389,-0.263,-0.003
2390,-0.257,-0.003
2391,-0.253,0.005
2392,-0.233,0.005
2393,-0.227,0.013
2394,-0.227,0.020
2395,-0.237,0.005
2396,-0.240,0.007
2397,-0.247,0.000
2398,-0.263,-0.003
2399,-0.257,0.000
2400,-0.263,-0.010
2401,-0.270,-0.003
2402,-0.267,0.000
2403,-0.270,0.005
2404,-0.250,0.005
2405,-0.240,0.003
2406,-0.227,0.010
2407,-0.233,0.010
2408,-0.230,0.000
2409,-0.233,0.000
2410,-0.247,0.000
2411,-0.240,0.000
2412,-0.243,-0.007
2413,-0.247,-0.005
2414,-0.250,-0.005
2415,-0.243,0.000
2416,-0.233,0.010
2417,-0.227,0.007
2418,-0.227,0.018
2419,-0.213,0.020
2420,-0.220,0.020
2421,-0.217,0.025
2422,-0.217,0.018
2423,-0.213,0.015
2424,-0.207,0.020
2425,-0.203,0.022
2426,-0.193,0.033
2427,-0.187,0.035
2428,-0.177,0.033
2429,-0.163,0.035
2430,-0.170,0.025
2431,-0.163,0.030
2432,-0.177,0.005
2433,-0.183,0.005
2434,-0.177,-0.018
2435,-0.190,-0.022
2436,-0.193,-0.040
2437,-0.183,-0.045
2438,-0.173,-0.035
2439,-0.153,-0.040
2440,-0.147,-0.040
2441,-0.130,-0.028
2442,-0.130,-0.037
2443,-0.137,-0.035
2444,-0.137,-0.045
2445,-0.163,-0.058
2446,-0.177,-0.062
2447,-0.200,-0.075
2448,-0.203,-0.070
2449,-0.207,-0.062
2450,-0.203,-0.058
2451,-0.187,-0.040
2452,-0.160,-0.022
2453,-0.147,0.000
2454,-0.147,-0.005
2455,-0.163,0.000
2456,-0.180,-0.010
2457,-0.223,-0.020
2458,-0.250,-0.028
2459,-0.273,-0.035
2460,-0.287,-0.037
2461,-0.303,-0.033
2462,-0.300,-0.030
2463,-0.297,-0.022
2464,-0.293,-0.028
2465,-0.280,-0.018
2466,-0.270,-0.018
2467,-0.263,-0.015
2468,-0.257,-0.018
2469,-0.257,-0.018
2470,-0.240,-0.018
2471,-0.247,-0.018
2472,-0.257,-0.022
2473,-0.253,-0.022
2474,-0.257,-0.028
2475,-0.247,-0.022
2476,-0.247,-0.020
2477,-0.240,-0.010
2478,-0.217,-0.003
2479,-0.223,-0.005
2480,-0.217,0.000
2481,-0.217,-0.007
2482,-0.230,-0.013
2483,-0.223,-0.018
2484,-0.233,-0.022
2485,-0.233,-0.010
2486,-0.240,-0.013
2487,-0.233,-0.003
2488,-0.223,-0.005
2489,-0.237,0.007
2490,-0.230,0.010
2491,-0.223,0.010
2492,-0.217,0.028
2493,-0.210,0.022
2494,-0.223,0.043
2495,-0.217,0.068
2496,-0.230,0.087
2497,-0.237,0.140
2498,-0.247,0.170
2499,-0.257,0.215
2500,-0.263,0.242
2501,-0.263,0.247
2502,-0.257,0.255
2503,-0.253,0.255
2504,-0.240,0.268
2505,-0.253,0.292
2506,-0.257,0.330
2507,-0.263,0.355
2508,-0.273,0.347
2509,-0.280,0.290
2510,-0.267,0.170
2511,-0.213,0.015
2512,-0.100,-0.145
2513,0.033,-0.263
2514,0.213,-0.265
2515,0.387,-0.198
2516,0.507,-0.087
2517,0.567,-0.005
2518,0.513,0.005
2519,0.357,-0.003
2520,0.083,-0.045
2521,-0.243,-0.083
2522,-0.537,-0.092
2523,-0.753,-0.085
2524,-0.853,-0.068
2525,-0.850,-0.045
2526,-0.780,-0.022
2527,-0.683,-0.010
2528,-0.593,-0.010
2529,-0.507,-0.015
2530,-0.457,-0.025
2531,-0.413,-0.025
2532,-0.373,-0.028
2533,-0.340,-0.022
2534,-0.300,-0.018
2535,-0.277,-0.010
2536,-0.243,0.000
2537,-0.223,0.000
2538,-0.217,0.005
2539,-0.193,0.018
2540,-0.197,0.000
2541,-0.183,0.000
2542,-0.180,-0.010
2543,-0.177,-0.018
2544,-0.173,-0.033
2545,-0.180,-0.025
2546,-0.153,-0.018
2547,-0.163,-0.020
2548,-0.130,-0.015
2549,-0.110,-0.007
2550,-0.097,-0.005
2551,-0.077,-0.010
2552,-0.053,-0.015
2553,-0.053,-0.020
2554,-0.053,-0.033
2555,-0.060,-0.040
2556,-0.050,-0.043
2557,-0.057,-0.040
2558,-0.047,-0.035
2559,-0.040,-0.037
2560,-0.033,-0.028
2561,-0.023,-0.030
2562,-0.023,-0.022
2563,-0.013,-0.022
2564,-0.003,-0.020
2565,-0.003,-0.028
2566,0.003,-0.028
2567,-0.007,-0.033
2568,-0.003,-0.035
2569,0.000,-0.043
2570,0.000,-0.035
2571,0.013,-0.028
2572,0.020,-0.030
2573,0.033,-0.028
2574,0.033,-0.030
2575,0.047,-0.025
2576,0.053,-0.040
2577,0.040,-0.045
2578,0.060,-0.040
2579,0.053,-0.055
2580,0.050,-0.062
2581,0.053,-0.065
2582,0.070,-0.058
2583,0.083,-0.062
2584,0.083,-0.058
2585,0.117,-0.045
2586,0.120,-0.052
2587,0.133,-0.055
2588,0.140,-0.065
2589,0.140,-0.070
2590,0.137,-0.068
2591,0.123,-0.090
2592,0.127,-0.080
2593,0.133,-0.080
2594,0.130,-0.077
2595,0.150,-0.070
2596,0.167,-0.070
2597,0.177,-0.065
2598,0.177,-0.070
2599,0.190,-0.070
2600,0.187,-0.077
2601,0.173,-0.085
2602,0.187,-0.080
2603,0.190,-0.095
2604,0.177,-0.090
2605,0.187,-0.087
2606,0.177,-0.087
2607,0.187,-0.075
2608,0.193,-0.062
2609,0.203,-0.062
2610,0.210,-0.058
2611,0.207,-0.052
2612,0.217,-0.058
2613,0.200,-0.075
2614,0.203,-0.070
2615,0.207,-0.075
2616,0.200,-0.080
2617,0.203,-0.075
2618,0.203,-0.070
2619,0.203,-0.055
2620,0.210,-0.048
2621,0.213,-0.040
2622,0.223,-0.040
2623,0.217,-0.040
2624,0.210,-0.045
2625,0.207,-0.050
2626,0.200,-0.040
2627,0.187,-0.040
2628,0.170,-0.043
2629,0.167,-0.028
2630,0.170,-0.033
2631,0.177,-0.018
2632,0.187,-0.007
2633,0.190,0.000
2634,0.190,0.005
2635,0.187,0.010
2636,0.163,0.007
2637,0.147,0.007
2638,0.137,0.007
2639,0.120,0.005
2640,0.103,0.000
2641,0.083,0.005
2642,0.063,0.015
2643,0.070,0.033
2644,0.057,0.037
2645,0.040,0.043
2646,0.047,0.055
2647,0.047,0.045
2648,0.030,0.037
2649,0.007,0.022
2650,-0.017,0.028
2651,-0.017,0.033
2652,-0.023,0.028
2653,-0.027,0.037
2654,-0.020,0.050
2655,-0.040,0.045
2656,-0.030,0.050
2657,-0.037,0.052
2658,-0.030,0.062
2659,-0.027,0.070
2660,-0.050,0.055
2661,-0.047,0.058
2662,-0.060,0.058
2663,-0.060,0.058
2664,-0.077,0.058
2665,-0.087,0.062
2666,-0.083,0.062
2667,-0.077,0.072
2668,-0.077,0.080
2669,-0.067,0.098
2670,-0.073,0.095
2671,-0.063,0.098
2672,-0.080,0.092
2673,-0.083,0.087
2674,-0.093,0.077
2675,-0.093,0.092
2676,-0.100,0.090
2677,-0.117,0.092
2678,-0.113,0.110
2679,-0.100,0.110
2680,-0.113,0.120
2681,-0.103,0.122
2682,-0.100,0.128
2683,-0.083,0.122
2684,-0.093,0.113
2685,-0.097,0.115
2686,-0.107,0.115
2687,-0.117,0.110
2688,-0.123,0.107
2689,-0.130,0.113
2690,-0.123,0.115
2691,-0.130,0.120
2692,-0.123,0.125
2693,-0.113,0.128
2694,-0.117,0.128
2695,-0.127,0.138
2696,-0.117,0.120
2697,-0.133,0.110
2698,-0.133,0.105
2699,-0.123,0.092
2700,-0.140,0.092
2701,-0.130,0.092
2702,-0.130,0.098
2703,-0.130,0.102
2704,-0.123,0.105
2705,-0.117,0.110
2706,-0.127,0.105
2707,-0.123,0.115
2708,-0.107,0.107
2709,-0.140,0.090
2710,-0.140,0.098
2711,-0.133,0.077
2712,-0.153,0.077
2713,-0.147,0.075
2714,-0.153,0.075
2715,-0.147,0.080
2716,-0.140,0.070
2717,-0.140,0.087
2718,-0.127,0.077
2719,-0.137,0.075
2720,-0.133,0.083
2721,-0.130,0.065
2722,-0.140,0.052
2723,-0.140,0.048
2724,-0.143,0.043
2725,-0.140,0.050
2726,-0.140,0.043
2727,-0.133,0.045
2728,-0.130,0.055
2729,-0.120,0.068
2730,-0.113,0.065
2731,-0.117,0.058
2732,-0.107,0.048
2733,-0.123,0.035
2734,-0.123,0.045
2735,-0.117,0.040
2736,-0.130,0.030
2737,-0.130,0.043
2738,-0.117,0.035
2739,-0.120,0.030
2740,-0.117,0.030
2741,-0.107,0.052
2742,-0.100,0.045
2743,-0.100,0.043
2744,-0.107,0.040
2745,-0.103,0.028
2746,-0.117,0.028
2747,-0.123,0.018
2748,-0.127,0.018
2749,-0.133,0.018
2750,-0.137,0.018
2751,-0.143,0.028
2752,-0.133,0.028
2753,-0.130,0.040
2754,-0.110,0.040
2755,-0.097,0.035
2756,-0.110,0.028
2757,-0.117,0.022
2758,-0.123,0.018
2759,-0.133,0.005
2760,-0.123,0.010
2761,-0.130,0.015
2762,-0.127,0.010
2763,-0.130,0.028
2764,-0.110,0.028
2765,-0.110,0.033
2766,-0.103,0.030
2767,-0.097,0.025
2768,-0.097,0.018
2769,-0.110,0.010
2770,-0.123,0.013
2771,-0.117,0.005
2772,-0.130,-0.005
2773,-0.130,0.005
2774,-0.130,0.003
2775,-0.123,0.007
2776,-0.103,0.020
2777,-0.090,0.022
2778,-0.100,0.022
2779,-0.093,0.025
2780,-0.093,0.025
2781,-0.093,0.018
2782,-0.103,0.005
2783,-0.110,0.007
2784,-0.110,0.010
2785,-0.110,0.005
2786,-0.113,0.015
2787,-0.107,0.022
2788,-0.097,0.030
2789,-0.083,0.030
2790,-0.093,0.022
2791,-0.093,0.020
2792,-0.087,0.018
2793,-0.097,0.015
2794,-0.117,0.000
2795,-0.117,0.000
2796,-0.110,0.000
2797,-0.130,0.000
2798,-0.127,0.003
2799,-0.117,0.013
2800,-0.117,0.018
2801,-0.107,0.013
2802,-0.097,0.022
2803,-0.090,0.028
2804,-0.093,0.010
2805,-0.107,0.010
2806,-0.113,0.010
2807,-0.110,0.000
2808,-0.107,0.003
2809,-0.117,0.005
2810,-0.107,0.020
2811,-0.100,0.020
2812,-0.097,0.040
2813,-0.083,0.045
2814,-0.077,0.045
2815,-0.073,0.052
2816,-0.073,0.045
2817,-0.083,0.043
2818,-0.080,0.045
2819,-0.087,0.033
2820,-0.077,0.022
2821,-0.077,0.018
2822,-0.093,0.010
2823,-0.083,0.000
2824,-0.073,0.010
2825,-0.063,0.003
2826,-0.060,-0.010
2827,-0.053,-0.010
2828,-0.033,-0.022
2829,-0.033,-0.033
2830,-0.023,-0.035
2831,-0.027,-0.045
2832,-0.037,-0.055
2833,-0.053,-0.058
2834,-0.063,-0.055
2835,-0.070,-0.050
2836,-0.077,-0.050
2837,-0.070,-0.045
2838,-0.070,-0.048
2839,-0.077,-0.040
2840,-0.083,-0.035
2841,-0.087,-0.033
2842,-0.070,-0.025
2843,-0.050,-0.033
2844,-0.053,-0.013
2845,-0.050,-0.005
2846,-0.083,0.000
2847,-0.113,0.005
2848,-0.123,0.007
2849,-0.130,0.003
2850,-0.147,0.000
2851,-0.147,-0.003
2852,-0.147,-0.003
2853,-0.160,-0.010
2854,-0.167,-0.018
2855,-0.173,-0.020
2856,-0.170,-0.020
2857,-0.170,-0.020
2858,-0.180,-0.030
2859,-0.163,-0.010
2860,-0.157,-0.015
2861,-0.153,0.000
2862,-0.140,0.000
2863,-0.160,0.000
2864,-0.140,0.000
2865,-0.150,-0.013
2866,-0.147,-0.015
2867,-0.143,-0.018
2868,-0.167,-0.013
2869,-0.160,-0.010
2870,-0.160,-0.005
2871,-0.153,0.000
2872,-0.137,0.003
2873,-0.137,0.018
2874,-0.123,0.013
2875,-0.123,0.018
2876,-0.120,0.010
2877,-0.123,0.003
2878,-0.137,0.000
2879,-0.130,0.007
2880,-0.140,-0.003
2881,-0.137,0.018
2882,-0.137,0.018
2883,-0.140,0.033
2884,-0.133,0.062
2885,-0.140,0.080
2886,-0.153,0.125
2887,-0.147,0.168
2888,-0.163,0.200
2889,-0.177,0.233
2890,-0.200,0.250
2891,-0.200,0.263
2892,-0.213,0.263
2893,-0.210,0.285
2894,-0.203,0.325
2895,-0.207,0.372
2896,-0.203,0.407
2897,-0.217,0.407
2898,-0.223,0.372
2899,-0.217,0.275
2900,-0.193,0.133
2901,-0.123,-0.040
2902,-0.033,-0.200
2903,0.110,-0.275
2904,0.267,-0.268
2905,0.403,-0.165
2906,0.503,-0.043
2907,0.553,0.025
2908,0.540,0.045
2909,0.440,0.018
2910,0.240,-0.030
2911,-0.023,-0.075
2912,-0.337,-0.095
2913,-0.597,-0.090
2914,-0.773,-0.092
2915,-0.843,-0.068
2916,-0.807,-0.052
2917,-0.730,-0.052
2918,-0.637,-0.033
2919,-0.527,-0.025
2920,-0.433,-0.010
2921,-0.363,-0.005
2922,-0.320,0.000
2923,-0.263,0.000
2924,-0.237,0.000
2925,-0.223,-0.010
2926,-0.210,-0.022
2927,-0.217,-0.028
2928,-0.210,-0.033
2929,-0.200,-0.028
2930,-0.193,-0.020
2931,-0.167,-0.013
2932,-0.160,-0.005
2933,-0.123,0.000
2934,-0.113,-0.010
2935,-0.103,-0.005
2936,-0.087,-0.005
2937,-0.090,-0.010
2938,-0.087,-0.018
2939,-0.103,-0.025
2940,-0.110,-0.022
2941,-0.097,-0.028
2942,-0.093,-0.028
2943,-0.087,-0.020
2944,-0.070,-0.007
2945,-0.053,0.000
2946,-0.047,0.000
2947,-0.037,-0.003
2948,-0.030,-0.007
2949,-0.037,-0.018
2950,-0.033,-0.018
2951,-0.047,-0.033
2952,-0.053,-0.028
2953,-0.047,-0.033
2954,-0.043,-0.030
2955,-0.020,-0.028
2956,-0.010,-0.022
2957,0.007,-0.018
2958,0.007,-0.015
2959,0.003,-0.013
2960,0.010,-0.013
2961,0.003,-0.028
2962,0.000,-0.037
2963,-0.007,-0.035
2964,0.000,-0.040
2965,0.013,-0.045
2966,0.010,-0.045
2967,0.033,-0.040
2968,0.047,-0.040
2969,0.047,-0.035
2970,0.073,-0.025
2971,0.070,-0.030
2972,0.077,-0.045
2973,0.067,-0.055
2974,0.073,-0.055
2975,0.077,-0.060
2976,0.070,-0.062
2977,0.080,-0.065
2978,0.077,-0.065
2979,0.093,-0.048
2980,0.097,-0.058
2981,0.103,-0.048
2982,0.123,-0.050
2983,0.120,-0.052
2984,0.123,-0.052
2985,0.117,-0.070
2986,0.123,-0.062
2987,0.133,-0.068
2988,0.127,-0.080
2989,0.130,-0.072
2990,0.133,-0.072
2991,0.130,-0.068
2992,0.130,-0.062
2993,0.147,-0.048
2994,0.167,-0.040
2995,0.157,-0.048
2996,0.157,-0.055
2997,0.160,-0.060
2998,0.153,-0.058
2999,0.153,-0.075
3000,0.143,-0.080
3001,0.137,-0.062
3002,0.133,-0.068
3003,0.147,-0.060
3004,0.163,-0.045
3005,0.163,-0.045
3006,0.177,-0.043
3007,0.167,-0.052
3008,0.177,-0.045
3009,0.190,-0.048
3010,0.173,-0.048
3011,0.170,-0.045
3012,0.170,-0.055
3013,0.153,-0.045
3014,0.153,-0.035
3015,0.147,-0.025
3016,0.150,-0.015
3017,0.140,-0.010
3018,0.123,0.003
3019,0.140,0.000
3020,0.120,0.010
3021,0.113,0.005
3022,0.093,0.000
3023,0.083,0.005
3024,0.063,-0.013
3025,0.047,0.000
3026,0.047,0.018
3027,0.033,0.022
3028,0.030,0.040
3029,0.027,0.035
3030,0.030,0.045
3031,0.030,0.040
3032,0.013,0.045
3033,-0.003,0.043
3034,-0.023,0.028
3035,-0.040,0.040
3036,-0.057,0.040
3037,-0.063,0.043
3038,-0.070,0.043
3039,-0.093,0.045
3040,-0.097,0.062
3041,-0.093,0.070
3042,-0.090,0.065
3043,-0.090,0.060
3044,-0.117,0.060
3045,-0.113,0.075
3046,-0.123,0.055
3047,-0.150,0.052
3048,-0.147,0.048
3049,-0.167,0.045
3050,-0.167,0.070
3051,-0.163,0.068
3052,-0.167,0.080
3053,-0.167,0.090
3054,-0.170,0.087
3055,-0.167,0.080
3056,-0.170,0.083
3057,-0.177,0.080
3058,-0.203,0.072
3059,-0.210,0.072
3060,-0.197,0.092
3061,-0.207,0.087
3062,-0.200,0.105
3063,-0.203,0.115
3064,-0.207,0.113
3065,-0.203,0.130
3066,-0.210,0.130
3067,-0.207,0.133
3068,-0.210,0.120
3069,-0.223,0.122
3070,-0.220,0.115
3071,-0.233,0.117
3072,-0.243,0.107
3073,-0.243,0.110
3074,-0.253,0.113
3075,-0.253,0.115
3076,-0.253,0.128
3077,-0.250,0.140
3078,-0.237,0.135
3079,-0.240,0.133
3080,-0.230,0.130
3081,-0.240,0.113
3082,-0.247,0.113
3083,-0.257,0.102
3084,-0.263,0.105
3085,-0.267,0.100
3086,-0.270,0.110
3087,-0.260,0.115
3088,-0.263,0.125
3089,-0.253,0.125
3090,-0.250,0.120
3091,-0.240,0.120
3092,-0.240,0.115
3093,-0.253,0.102
3094,-0.263,0.100
3095,-0.277,0.095
3096,-0.280,0.090
3097,-0.277,0.085
3098,-0.287,0.087
3099,-0.263,0.092
3100,-0.270,0.090
3101,-0.257,0.098
3102,-0.260,0.087
3103,-0.257,0.092
3104,-0.247,0.090
3105,-0.270,0.070
3106,-0.277,0.077
3107,-0.273,0.065
3108,-0.280,0.058
3109,-0.270,0.058
3110,-0.280,0.058
3111,-0.260,0.070
3112,-0.260,0.072
3113,-0.253,0.075
3114,-0.253,0.080
3115,-0.257,0.075
3116,-0.253,0.060
3117,-0.270,0.043
3118,-0.277,0.045
3119,-0.270,0.050
3120,-0.280,0.037
3121,-0.277,0.043
3122,-0.280,0.040
3123,-0.283,0.052
3124,-0.270,0.058
3125,-0.270,0.058
3126,-0.260,0.052
3127,-0.263,0.045
3128,-0.267,0.045
3129,-0.263,0.035
3130,-0.277,0.037
3131,-0.260,0.035
3132,-0.273,0.033
3133,-0.270,0.035
3134,-0.273,0.033
3135,-0.280,0.040
3136,-0.270,0.045
3137,-0.270,0.052
3138,-0.260,0.058
3139,-0.257,0.052
3140,-0.257,0.048
3141,-0.263,0.035
3142,-0.280,0.025
3143,-0.273,0.030
3144,-0.280,0.020
3145,-0.280,0.022
3146,-0.280,0.028
3147,-0.287,0.035
3148,-0.263,0.037
3149,-0.260,0.040
3150,-0.257,0.035
3151,-0.257,0.035
3152,-0.257,0.033
3153,-0.257,0.028
3154,-0.267,0.018
3155,-0.263,0.018
3156,-0.270,0.018
3157,-0.277,0.018
3158,-0.270,0.025
3159,-0.273,0.035
3160,-0.267,0.028
3161,-0.270,0.028
3162,-0.277,0.028
3163,-0.263,0.020
3164,-0.263,0.025
3165,-0.273,0.020
3166,-0.283,0.018
3167,-0.290,0.018
3168,-0.293,0.018
3169,-0.303,0.015
3170,-0.293,0.018
3171,-0.297,0.015
3172,-0.290,0.025
3173,-0.280,0.028
3174,-0.287,0.025
3175,-0.277,0.022
3176,-0.270,0.022
3177,-0.280,0.018
3178,-0.290,0.005
3179,-0.290,0.003
3180,-0.293,0.000
3181,-0.310,0.000
3182,-0.307,0.010
3183,-0.287,0.013
3184,-0.280,0.025
3185,-0.270,0.037
3186,-0.263,0.020
3187,-0.263,0.028
3188,-0.263,0.022
3189,-0.287,0.010
3190,-0.280,0.007
3191,-0.290,0.003
3192,-0.287,0.003
3193,-0.283,0.005
3194,-0.293,0.010
3195,-0.287,0.015
3196,-0.287,0.020
3197,-0.270,0.022
3198,-0.273,0.018
3199,-0.273,0.025
3200,-0.260,0.018
3201,-0.270,0.015
3202,-0.263,0.020
3203,-0.270,0.020
3204,-0.270,0.022
3205,-0.270,0.025
3206,-0.280,0.030
3207,-0.267,0.040
3208,-0.270,0.045
3209,-0.260,0.058
3210,-0.257,0.052
3211,-0.257,0.060
3212,-0.243,0.055
3213,-0.247,0.040
3214,-0.250,0.025
3215,-0.260,0.010
3216,-0.280,0.018
3217,-0.270,0.000
3218,-0.280,0.000
3219,-0.270,0.000
3220,-0.247,0.000
3221,-0.237,0.000
3222,-0.223,-0.010
3223,-0.213,-0.013
3224,-0.207,-0.022
3225,-0.203,-0.030
3226,-0.200,-0.022
3227,-0.213,-0.035
3228,-0.227,-0.035
3229,-0.247,-0.037
3230,-0.270,-0.043
3231,-0.280,-0.030
3232,-0.280,-0.020
3233,-0.260,-0.010
3234,-0.240,-0.003
3235,-0.233,0.000
3236,-0.213,0.013
3237,-0.213,0.018
3238,-0.220,0.020
3239,-0.217,0.013
3240,-0.243,0.005
3241,-0.267,0.010
3242,-0.293,0.005
3243,-0.307,0.005
3244,-0.313,0.007
3245,-0.320,0.007
3246,-0.317,0.013
3247,-0.320,0.010
3248,-0.323,0.005
3249,-0.337,0.000
3250,-0.347,-0.005
3251,-0.347,-0.005
3252,-0.357,-0.005
3253,-0.350,0.000
3254,-0.350,0.003
3255,-0.340,0.007
3256,-0.320,0.022
3257,-0.317,0.018
3258,-0.313,0.025
3259,-0.317,0.018
3260,-0.317,0.010
3261,-0.317,0.007
3262,-0.320,0.005
3263,-0.313,0.005
3264,-0.327,0.003
3265,-0.327,0.007
3266,-0.327,0.005
3267,-0.333,0.013
3268,-0.317,0.018
3269,-0.320,0.018
3270,-0.317,0.022
3271,-0.317,0.018
3272,-0.307,0.022
3273,-0.303,0.028
3274,-0.317,0.025
3275,-0.310,0.030
3276,-0.310,0.022
3277,-0.317,0.022
3278,-0.317,0.035
3279,-0.313,0.045
3280,-0.307,0.065
3281,-0.310,0.090
3282,-0.303,0.120
3283,-0.290,0.145
3284,-0.293,0.182
3285,-0.310,0.210
3286,-0.337,0.233
3287,-0.350,0.253
3288,-0.357,0.265
3289,-0.353,0.285
3290,-0.340,0.320
3291,-0.333,0.367
3292,-0.327,0.405
3293,-0.327,0.420
3294,-0.330,0.412
3295,-0.327,0.378
3296,-0.310,0.330
3297,-0.257,0.263
3298,-0.187,0.160
3299,-0.080,0.058
3300,0.040,-0.045
3301,0.170,-0.110
3302,0.307,-0.090
3303,0.420,-0.025
3304,0.510,0.060
3305,0.553,0.105
3306,0.537,0.100
3307,0.460,0.060
3308,0.287,-0.013
3309,0.000,-0.080
3310,-0.340,-0.125
3311,-0.650,-0.128
3312,-0.880,-0.117
3313,-0.993,-0.090
3314,-0.983,-0.055
3315,-0.893,-0.040
3316,-0.760,-0.022
3317,-0.643,-0.013
3318,-0.543,-0.010
3319,-0.470,-0.007
3320,-0.413,-0.005
3321,-0.373,-0.018
3322,-0.357,-0.018
3323,-0.337,-0.028
3324,-0.333,-0.018
3325,-0.320,-0.025
3326,-0.310,-0.007
3327,-0.293,-0.015
3328,-0.280,-0.005
3329,-0.250,0.000
3330,-0.233,0.000
3331,-0.233,0.000
3332,-0.217,-0.005
3333,-0.213,-0.015
3334,-0.217,-0.018
3335,-0.207,-0.022
3336,-0.210,-0.033
3337,-0.200,-0.035
3338,-0.190,-0.030
3339,-0.180,-0.020
3340,-0.160,-0.015
3341,-0.153,-0.005
3342,-0.133,-0.010
3343,-0.150,-0.010
3344,-0.133,-0.020
3345,-0.130,-0.033
3346,-0.130,-0.033
3347,-0.130,-0.043
3348,-0.137,-0.040
3349,-0.127,-0.030
3350,-0.127,-0.035
3351,-0.103,-0.030
3352,-0.100,-0.035
3353,-0.077,-0.022
3354,-0.053,-0.030
3355,-0.060,-0.022
3356,-0.047,-0.022
3357,-0.050,-0.035
3358,-0.060,-0.040
3359,-0.070,-0.052
3360,-0.060,-0.052
3361,-0.060,-0.052
3362,-0.050,-0.048
3363,-0.037,-0.040
3364,-0.027,-0.048
3365,-0.017,-0.040
3366,-0.017,-0.040
3367,-0.007,-0.043
3368,-0.010,-0.045
3369,-0.010,-0.062
3370,-0.007,-0.062
3371,0.003,-0.070
3372,-0.003,-0.080
3373,0.000,-0.070
3374,0.020,-0.062
3375,0.023,-0.052
3376,0.037,-0.062
3377,0.040,-0.058
3378,0.063,-0.055
3379,0.070,-0.055
3380,0.070,-0.065
3381,0.070,-0.065
3382,0.073,-0.062
3383,0.070,-0.075
3384,0.060,-0.077
3385,0.077,-0.070
3386,0.070,-0.077
3387,0.073,-0.070
3388,0.100,-0.062
3389,0.093,-0.062
3390,0.110,-0.058
3391,0.100,-0.055
3392,0.113,-0.045
3393,0.107,-0.058
3394,0.093,-0.068
3395,0.107,-0.070
3396,0.097,-0.077
3397,0.093,-0.075
3398,0.093,-0.072
3399,0.113,-0.062
3400,0.130,-0.060
3401,0.140,-0.062
3402,0.140,-0.055
3403,0.163,-0.052
3404,0.153,-0.058
3405,0.150,-0.070
3406,0.143,-0.068
3407,0.140,-0.070
3408,0.140,-0.077
3409,0.120,-0.062
3410,0.133,-0.050
3411,0.120,-0.055
3412,0.123,-0.040
3413,0.130,-0.033
3414,0.140,-0.025
3415,0.140,-0.013
3416,0.120,-0.018
3417,0.117,-0.018
3418,0.100,-0.022
3419,0.083,-0.025
3420,0.090,-0.020
3421,0.070,-0.018
3422,0.060,0.000
3423,0.067,0.005
3424,0.057,0.010
3425,0.053,0.018
3426,0.053,0.030
3427,0.047,0.030
3428,0.033,0.028
3429,0.027,0.028
3430,0.017,0.030
3431,0.007,0.028
3432,0.007,0.022
3433,-0.010,0.030
3434,-0.017,0.028
3435,-0.020,0.043
3436,-0.023,0.060
3437,-0.023,0.062
3438,-0.023,0.060
3439,-0.023,0.062
3440,-0.030,0.062
3441,-0.047,0.068
3442,-0.053,0.062
3443,-0.077,0.058
3444,-0.090,0.052
3445,-0.107,0.058
3446,-0.100,0.068
3447,-0.100,0.072
3448,-0.120,0.077
3449,-0.103,0.095
3450,-0.093,0.087
3451,-0.100,0.083
3452,-0.117,0.080
3453,-0.120,0.075
3454,-0.127,0.070
3455,-0.153,0.072
3456,-0.147,0.080
3457,-0.163,0.077
3458,-0.170,0.083
3459,-0.153,0.090
3460,-0.140,0.092
3461,-0.133,0.095
3462,-0.137,0.090
3463,-0.123,0.092
3464,-0.140,0.087
3465,-0.163,0.085
3466,-0.170,0.080
3467,-0.180,0.080
3468,-0.177,0.075
3469,-0.183,0.080
3470,-0.190,0.083
3471,-0.187,0.095
3472,-0.190,0.090
3473,-0.187,0.098
3474,-0.187,0.105
3475,-0.183,0.105
3476,-0.193,0.100
3477,-0.197,0.080
3478,-0.203,0.075
3479,-0.200,0.068
3480,-0.207,0.072
3481,-0.213,0.070
3482,-0.217,0.072
3483,-0.213,0.092
3484,-0.203,0.085
3485,-0.193,0.087
3486,-0.190,0.090
3487,-0.187,0.085
3488,-0.193,0.080
3489,-0.197,0.072
3490,-0.203,0.065
3491,-0.207,0.060
3492,-0.217,0.058
3493,-0.213,0.065
3494,-0.210,0.060
3495,-0.200,0.062
3496,-0.193,0.058
3497,-0.193,0.070
3498,-0.183,0.070
3499,-0.177,0.065
3500,-0.190,0.062
3501,-0.197,0.052
3502,-0.210,0.052
3503,-0.207,0.045
3504,-0.223,0.037
3505,-0.237,0.035
3506,-0.233,0.030
3507,-0.223,0.050
3508,-0.213,0.062
3509,-0.197,0.062
3510,-0.197,0.052
3511,-0.193,0.045
3512,-0.197,0.045
3513,-0.197,0.043
3514,-0.200,0.033
3515,-0.203,0.035
3516,-0.207,0.028
3517,-0.210,0.028
3518,-0.213,0.028
3519,-0.213,0.033
3520,-0.207,0.043
3521,-0.200,0.040
3522,-0.190,0.045
3523,-0.187,0.043
3524,-0.183,0.035
3525,-0.190,0.028
3526,-0.193,0.020
3527,-0.187,0.025
3528,-0.193,0.010
3529,-0.200,0.022
3530,-0.180,0.018
3531,-0.180,0.022
3532,-0.170,0.035
3533,-0.170,0.035
3534,-0.170,0.035
3535,-0.170,0.035
3536,-0.170,0.025
3537,-0.163,0.022
3538,-0.173,0.007
3539,-0.180,0.018
3540,-0.187,0.010
3541,-0.203,0.015
3542,-0.200,0.022
3543,-0.190,0.018
3544,-0.177,0.028
3545,-0.177,0.028
3546,-0.177,0.022
3547,-0.163,0.025
3548,-0.180,0.020
3549,-0.187,0.013
3550,-0.190,0.005
3551,-0.187,0.003
3552,-0.197,0.000
3553,-0.197,0.005
3554,-0.210,0.010
3555,-0.193,0.010
3556,-0.170,0.028
3557,-0.170,0.030
3558,-0.163,0.030
3559,-0.157,0.037
3560,-0.157,0.025
3561,-0.157,0.015
3562,-0.163,0.015
3563,-0.170,0.000
3564,-0.170,0.003
3565,-0.170,0.010
3566,-0.187,0.010
3567,-0.167,0.018
3568,-0.173,0.033
3569,-0.153,0.028
3570,-0.170,0.020
3571,-0.160,0.022
3572,-0.157,0.010
3573,-0.163,0.005
3574,-0.163,0.005
3575,-0.160,0.000
3576,-0.170,0.000
3577,-0.167,0.007
3578,-0.167,0.013
3579,-0.163,0.028
3580,-0.153,0.018
3581,-0.147,0.035
3582,-0.133,0.025
3583,-0.143,0.022
3584,-0.147,0.022
3585,-0.147,0.018
3586,-0.153,0.013
3587,-0.153,0.003
3588,-0.173,0.003
3589,-0.170,0.000
3590,-0.177,0.005
3591,-0.163,0.018
3592,-0.170,0.018
3593,-0.153,0.037
3594,-0.153,0.025
3595,-0.153,0.037
3596,-0.140,0.030
3597,-0.147,0.018
3598,-0.153,0.015
3599,-0.147,0.010
3600,-0.153,0.007
3601,-0.143,0.022
3602,-0.157,0.028
3603,-0.140,0.040
3604,-0.147,0.045
3605,-0.130,0.058
3606,-0.120,0.060
3607,-0.117,0.058
3608,-0.107,0.052
3609,-0.107,0.052
3610,-0.117,0.052
3611,-0.110,0.058
3612,-0.107,0.043
3613,-0.107,0.035
3614,-0.130,0.025
3615,-0.107,0.037
3616,-0.100,0.028
3617,-0.107,0.028
3618,-0.090,0.033
3619,-0.080,0.015
3620,-0.067,0.000
3621,-0.057,-0.013
3622,-0.067,-0.028
3623,-0.060,-0.037
3624,-0.077,-0.045
3625,-0.080,-0.045
3626,-0.087,-0.040
3627,-0.097,-0.040
3628,-0.103,-0.035
3629,-0.120,-0.035
3630,-0.110,-0.028
3631,-0.110,-0.025
3632,-0.107,-0.015
3633,-0.090,-0.013
3634,-0.073,-0.018
3635,-0.060,-0.005
3636,-0.063,-0.013
3637,-0.087,0.005
3638,-0.093,0.018
3639,-0.103,0.022
3640,-0.113,0.030
3641,-0.130,0.035
3642,-0.147,0.028
3643,-0.163,0.018
3644,-0.167,0.015
3645,-0.167,0.000
3646,-0.187,0.000
3647,-0.187,-0.005
3648,-0.190,-0.007
3649,-0.193,-0.007
3650,-0.193,0.000
3651,-0.193,0.003
3652,-0.177,0.018
3653,-0.183,0.018
3654,-0.177,0.018
3655,-0.177,0.018
3656,-0.173,0.013
3657,-0.187,0.000
3658,-0.173,0.000
3659,-0.187,-0.003
3660,-0.177,-0.003
3661,-0.180,0.005
3662,-0.163,0.007
3663,-0.170,0.010
3664,-0.150,0.025
3665,-0.150,0.018
3666,-0.143,0.028
3667,-0.147,0.028
3668,-0.147,0.028
3669,-0.140,0.022
3670,-0.153,0.028
3671,-0.160,0.020
3672,-0.153,0.022
3673,-0.157,0.028
3674,-0.160,0.022
3675,-0.157,0.028
3676,-0.150,0.040
3677,-0.157,0.062
3678,-0.147,0.072
3679,-0.150,0.095
3680,-0.143,0.122
3681,-0.163,0.150
3682,-0.170,0.200
3683,-0.190,0.228
3684,-0.210,0.255
3685,-0.230,0.275
3686,-0.230,0.310
3687,-0.223,0.355
3688,-0.223,0.395
3689,-0.210,0.412
3690,-0.220,0.385
3691,-0.217,0.297
3692,-0.187,0.138
3693,-0.140,-0.045
3694,-0.037,-0.200
3695,0.087,-0.297
3696,0.263,-0.273
3697,0.420,-0.180
3698,0.527,-0.058
3699,0.597,0.028
3700,0.587,0.060
3701,0.487,0.045
3702,0.287,-0.013
3703,0.003,-0.060
3704,-0.300,-0.095
3705,-0.583,-0.105
3706,-0.780,-0.098
3707,-0.877,-0.077
3708,-0.893,-0.062
3709,-0.830,-0.050
3710,-0.750,-0.035
3711,-0.667,-0.020
3712,-0.597,-0.010
3713,-0.540,0.000
3714,-0.480,-0.003
3715,-0.450,0.000
3716,-0.387,0.000
3717,-0.353,-0.005
3718,-0.307,-0.003
3719,-0.273,-0.010
3720,-0.247,-0.015
3721,-0.220,-0.013
3722,-0.210,-0.010
3723,-0.183,-0.003
3724,-0.177,-0.005
3725,-0.160,0.005
3726,-0.150,-0.005
3727,-0.130,0.000
3728,-0.123,-0.010
3729,-0.120,-0.022
3730,-0.103,-0.018
3731,-0.090,-0.022
3732,-0.087,-0.028
3733,-0.077,-0.025
3734,-0.080,-0.028
3735,-0.067,-0.013
3736,-0.050,-0.010
3737,-0.040,0.000
3738,-0.030,0.000
3739,-0.023,-0.003
3740,-0.023,-0.013
3741,-0.020,-0.018
3742,-0.023,-0.022
3743,-0.023,-0.028
3744,-0.023,-0.035
3745,-0.027,-0.028
3746,-0.023,-0.035
3747,-0.020,-0.022
3748,0.007,-0.020
3749,0.007,-0.015
3750,0.013,-0.018
3751,0.027,-0.018
3752,0.027,-0.030
3753,0.030,-0.037
3754,0.013,-0.040
3755,0.030,-0.040
3756,0.027,-0.045
3757,0.020,-0.035
3758,0.037,-0.045
3759,0.027,-0.037
3760,0.047,-0.037
3761,0.060,-0.040
3762,0.070,-0.040
3763,0.087,-0.040
3764,0.077,-0.058
3765,0.077,-0.062
3766,0.087,-0.062
3767,0.087,-0.072
3768,0.080,-0.085
3769,0.087,-0.070
3770,0.100,-0.075
3771,0.103,-0.070
3772,0.107,-0.062
3773,0.130,-0.060
3774,0.130,-0.062
3775,0.147,-0.070
3776,0.147,-0.075
3777,0.143,-0.080
3778,0.130,-0.083
3779,0.143,-0.087
3780,0.143,-0.092
3781,0.140,-0.098
3782,0.153,-0.087
3783,0.160,-0.092
3784,0.177,-0.075
3785,0.190,-0.075
3786,0.173,-0.077
3787,0.193,-0.070
3788,0.197,-0.075
3789,0.183,-0.083
3790,0.183,-0.087
3791,0.187,-0.095
3792,0.190,-0.098
3793,0.180,-0.092
3794,0.187,-0.085
3795,0.193,-0.077
3796,0.197,-0.070
3797,0.207,-0.072
3798,0.203,-0.072
3799,0.200,-0.065
3800,0.197,-0.080
3801,0.183,-0.075
3802,0.187,-0.072
3803,0.183,-0.080
3804,0.173,-0.077
3805,0.167,-0.070
3806,0.170,-0.068
3807,0.177,-0.055
3808,0.193,-0.048
3809,0.197,-0.035
3810,0.193,-0.037
3811,0.177,-0.035
3812,0.173,-0.043
3813,0.170,-0.037
3814,0.170,-0.035
3815,0.153,-0.037
3816,0.143,-0.030
3817,0.130,-0.037
3818,0.107,-0.020
3819,0.107,-0.018
3820,0.107,-0.005
3821,0.103,0.005
3822,0.107,0.005
3823,0.093,0.005
3824,0.083,0.005
3825,0.070,0.005
3826,0.047,0.000
3827,0.023,0.000
3828,0.013,0.005
3829,0.013,0.007
3830,-0.007,0.013
3831,-0.020,0.018
3832,-0.023,0.022
3833,-0.023,0.035
3834,-0.030,0.030
3835,-0.043,0.033
3836,-0.040,0.033
3837,-0.060,0.018
3838,-0.077,0.020
3839,-0.083,0.018
3840,-0.100,0.010
3841,-0.093,0.010
3842,-0.107,0.018
3843,-0.110,0.028
3844,-0.100,0.043
3845,-0.100,0.058
3846,-0.097,0.058
3847,-0.110,0.055
3848,-0.113,0.050
3849,-0.123,0.037
3850,-0.137,0.052
3851,-0.127,0.050
3852,-0.140,0.045
3853,-0.140,0.055
3854,-0.137,0.058
3855,-0.147,0.075
3856,-0.140,0.075
3857,-0.130,0.075
3858,-0.140,0.077
3859,-0.137,0.085
3860,-0.123,0.087
3861,-0.143,0.075
3862,-0.147,0.083
3863,-0.147,0.077
3864,-0.153,0.075
3865,-0.163,0.085
3866,-0.163,0.085
3867,-0.177,0.087
3868,-0.170,0.105
3869,-0.153,0.105
3870,-0.163,0.115
3871,-0.160,0.110
3872,-0.163,0.107
3873,-0.170,0.095
3874,-0.183,0.085
3875,-0.187,0.080
3876,-0.207,0.087
3877,-0.197,0.090
3878,-0.207,0.092
3879,-0.200,0.105
3880,-0.193,0.105
3881,-0.197,0.110
3882,-0.177,0.105
3883,-0.190,0.098
3884,-0.187,0.095
3885,-0.190,0.072
3886,-0.203,0.077
3887,-0.203,0.080
3888,-0.217,0.070
3889,-0.217,0.070
3890,-0.207,0.070
3891,-0.213,0.070
3892,-0.203,0.068
3893,-0.207,0.075
3894,-0.197,0.080
3895,-0.193,0.072
3896,-0.200,0.060
3897,-0.193,0.058
3898,-0.210,0.052
3899,-0.197,0.045
3900,-0.210,0.037
3901,-0.217,0.033
3902,-0.210,0.035
3903,-0.207,0.040
3904,-0.190,0.052
3905,-0.183,0.050
3906,-0.177,0.043
3907,-0.170,0.033
3908,-0.180,0.030
3909,-0.187,0.028
3910,-0.187,0.022
3911,-0.187,0.035
3912,-0.187,0.022
3913,-0.197,0.018
3914,-0.200,0.028
3915,-0.203,0.022
3916,-0.187,0.028
3917,-0.177,0.033
3918,-0.183,0.035
3919,-0.177,0.020
3920,-0.187,0.022
3921,-0.183,0.020
3922,-0.183,0.007
3923,-0.193,0.010
3924,-0.190,0.005
3925,-0.193,0.007
3926,-0.183,0.018
3927,-0.187,0.020
3928,-0.177,0.028
3929,-0.167,0.033
3930,-0.163,0.025
3931,-0.167,0.028
3932,-0.167,0.010
3933,-0.177,0.003
3934,-0.173,0.003
3935,-0.193,0.003
3936,-0.177,0.000
3937,-0.187,0.000
3938,-0.183,0.007
3939,-0.187,0.010
3940,-0.180,0.013
3941,-0.173,0.018
3942,-0.170,0.018
3943,-0.170,0.022
3944,-0.163,0.007
3945,-0.183,0.007
3946,-0.177,0.000
3947,-0.197,-0.003
3948,-0.203,0.000
3949,-0.200,-0.007
3950,-0.200,0.000
3951,-0.187,0.000
3952,-0.193,0.007
3953,-0.177,0.015
3954,-0.183,0.018
3955,-0.183,0.022
3956,-0.173,0.025
3957,-0.180,0.007
3958,-0.193,0.010
3959,-0.190,-0.005
3960,-0.197,0.000
3961,-0.193,0.005
3962,-0.200,0.000
3963,-0.193,0.010
3964,-0.193,0.005
3965,-0.193,0.025
3966,-0.197,0.022
3967,-0.193,0.015
3968,-0.180,0.013
3969,-0.183,0.000
3970,-0.190,0.007
3971,-0.187,0.000
3972,-0.200,0.000
3973,-0.193,0.007
3974,-0.197,0.007
3975,-0.183,0.010
3976,-0.180,0.010
3977,-0.177,0.018
3978,-0.170,0.020
3979,-0.170,0.018
3980,-0.163,0.018
3981,-0.170,0.010
3982,-0.177,0.005
3983,-0.170,0.000
3984,-0.187,0.000
3985,-0.187,0.000
3986,-0.187,0.000
3987,-0.187,0.010
3988,-0.173,0.018
3989,-0.180,0.018
3990,-0.170,0.015
3991,-0.187,0.015
3992,-0.173,0.010
3993,-0.187,0.005
3994,-0.187,0.000
3995,-0.193,0.000
3996,-0.200,0.005
3997,-0.197,0.018
3998,-0.210,0.020
3999,-0.193,0.037
4000,-0.177,0.048
4001,-0.170,0.050
4002,-0.160,0.050
4003,-0.160,0.050
4004,-0.170,0.050
4005,-0.163,0.040
4006,-0.173,0.035
4007,-0.153,0.028
4008,-0.167,0.013
4009,-0.170,0.010
4010,-0.163,0.010
4011,-0.170,0.003
4012,-0.157,0.000
4013,-0.153,0.005
4014,-0.133,0.003
4015,-0.137,0.003
4016,-0.133,-0.015
4017,-0.123,-0.033
4018,-0.133,-0.045
4019,-0.120,-0.055
4020,-0.133,-0.058
4021,-0.150,-0.058
4022,-0.147,-0.062
4023,-0.170,-0.060
4024,-0.160,-0.043
4025,-0.177,-0.040
4026,-0.187,-0.035
4027,-0.183,-0.040
4028,-0.170,-0.022
4029,-0.167,-0.028
4030,-0.147,-0.015
4031,-0.150,-0.005
4032,-0.160,-0.005
4033,-0.180,0.000
4034,-0.200,0.005
4035,-0.227,0.000
4036,-0.233,0.000
4037,-0.243,0.003
4038,-0.257,0.003
4039,-0.250,0.007
4040,-0.250,-0.010
4041,-0.257,-0.005
4042,-0.263,-0.015
4043,-0.263,-0.022
4044,-0.270,-0.030
4045,-0.283,-0.025
4046,-0.270,-0.018
4047,-0.270,-0.005
4048,-0.263,0.000
4049,-0.243,0.000
4050,-0.237,0.005
4051,-0.230,0.000
4052,-0.223,0.000
4053,-0.233,-0.007
4054,-0.233,-0.005
4055,-0.240,-0.010
4056,-0.240,-0.018
4057,-0.247,-0.025
4058,-0.257,-0.015
4059,-0.243,-0.010
4060,-0.247,-0.003
4061,-0.240,0.000
4062,-0.240,-0.003
4063,-0.243,0.000
4064,-0.247,-0.005
4065,-0.257,-0.003
4066,-0.263,-0.005
4067,-0.267,-0.007
4068,-0.267,-0.010
4069,-0.263,-0.007
4070,-0.273,0.000
4071,-0.267,0.013
4072,-0.253,0.035
4073,-0.257,0.060
4074,-0.250,0.087
4075,-0.253,0.125
4076,-0.257,0.165
4077,-0.277,0.200
4078,-0.303,0.228
4079,-0.313,0.242
4080,-0.320,0.260
4081,-0.317,0.292
4082,-0.310,0.333
4083,-0.310,0.372
4084,-0.320,0.403
4085,-0.337,0.403
4086,-0.343,0.360
4087,-0.340,0.302
4088,-0.303,0.210
4089,-0.247,0.072
4090,-0.143,-0.058
4091,-0.027,-0.203
4092,0.090,-0.275
4093,0.227,-0.250
4094,0.347,-0.150
4095,0.450,-0.033
4096,0.490,0.030
4097,0.490,0.055
4098,0.410,0.020
4099,0.210,-0.040
4100,-0.067,-0.095
4101,-0.410,-0.133
4102,-0.703,-0.128
4103,-0.900,-0.125
4104,-0.987,-0.105
4105,-0.967,-0.080
4106,-0.883,-0.065
4107,-0.783,-0.050
4108,-0.690,-0.045
4109,-0.607,-0.040
4110,-0.527,-0.028
4111,-0.490,-0.028
4112,-0.450,-0.028
4113,-0.420,-0.045
4114,-0.387,-0.043
4115,-0.363,-0.048
4116,-0.347,-0.040
4117,-0.327,-0.028
4118,-0.323,-0.033
4119,-0.310,-0.028
4120,-0.287,-0.025
4121,-0.270,-0.015
4122,-0.257,-0.022
4123,-0.233,-0.022
4124,-0.223,-0.028
4125,-0.223,-0.035
4126,-0.230,-0.030
4127,-0.223,-0.043
4128,-0.233,-0.048
4129,-0.223,-0.043
4130,-0.207,-0.040
4131,-0.193,-0.037
4132,-0.180,-0.043
4133,-0.163,-0.035
4134,-0.157,-0.028
4135,-0.153,-0.028
4136,-0.147,-0.035
4137,-0.153,-0.040
4138,-0.163,-0.052
4139,-0.163,-0.060
4140,-0.153,-0.060
4141,-0.157,-0.050
4142,-0.160,-0.052
4143,-0.170,-0.040
4144,-0.147,-0.028
4145,-0.130,-0.033
4146,-0.130,-0.028
4147,-0.123,-0.037
4148,-0.127,-0.048
4149,-0.137,-0.062
4150,-0.123,-0.052
4151,-0.123,-0.055
4152,-0.130,-0.062
4153,-0.130,-0.058
4154,-0.117,-0.055
4155,-0.120,-0.052
4156,-0.107,-0.052
4157,-0.087,-0.052
4158,-0.093,-0.052
4159,-0.083,-0.048
4160,-0.087,-0.060
4161,-0.083,-0.062
4162,-0.087,-0.075
4163,-0.107,-0.080
4164,-0.097,-0.083
4165,-0.090,-0.080
4166,-0.080,-0.083
4167,-0.073,-0.080
4168,-0.047,-0.075
4169,-0.033,-0.080
4170,-0.023,-0.075
4171,-0.010,-0.070
4172,-0.013,-0.085
4173,-0.017,-0.090
4174,-0.010,-0.095
4175,-0.017,-0.105
4176,-0.007,-0.102
4177,-0.023,-0.098
4178,-0.007,-0.090
4179,0.007,-0.087
4180,0.010,-0.085
4181,0.013,-0.075
4182,0.013,-0.092
4183,0.023,-0.090
4184,0.037,-0.095
4185,0.023,-0.092
4186,0.030,-0.092
4187,0.023,-0.105
4188,0.007,-0.105
4189,0.000,-0.098
4190,0.013,-0.098
4191,0.030,-0.098
4192,0.023,-0.095
4193,0.030,-0.092
4194,0.023,-0.095
4195,0.023,-0.087
4196,0.030,-0.087
4197,0.013,-0.090
4198,0.037,-0.095
4199,0.030,-0.105
4200,0.027,-0.105
4201,0.030,-0.098
4202,0.023,-0.090
4203,0.030,-0.077
4204,0.030,-0.068
4205,0.043,-0.070
4206,0.047,-0.065
4207,0.053,-0.055
4208,0.047,-0.065
4209,0.030,-0.070
4210,0.037,-0.058
4211,0.030,-0.058
4212,0.007,-0.052
4213,0.000,-0.052
4214,-0.010,-0.035
4215,-0.010,-0.030
4216,-0.017,-0.028
4217,-0.017,-0.013
4218,-0.023,-0.018
4219,-0.023,-0.007
4220,-0.030,-0.007
4221,-0.063,-0.018
4222,-0.073,-0.013
4223,-0.083,-0.018
4224,-0.097,-0.015
4225,-0.113,-0.007
4226,-0.123,-0.005
4227,-0.110,0.003
4228,-0.117,0.013
4229,-0.130,0.018
4230,-0.127,0.022
4231,-0.153,0.020
4232,-0.170,0.018
4233,-0.207,0.003
4234,-0.210,0.010
4235,-0.230,0.005
4236,-0.250,0.005
4237,-0.247,0.018
4238,-0.247,0.018
4239,-0.253,0.035
4240,-0.247,0.035
4241,-0.247,0.040
4242,-0.247,0.043
4243,-0.257,0.040
4244,-0.263,0.037
4245,-0.273,0.028
4246,-0.300,0.040
4247,-0.293,0.040
4248,-0.300,0.030
4249,-0.307,0.040
4250,-0.303,0.043
4251,-0.303,0.040
4252,-0.293,0.052
4253,-0.290,0.068
4254,-0.280,0.075
4255,-0.280,0.070
4256,-0.293,0.070
4257,-0.297,0.068
4258,-0.313,0.052
4259,-0.327,0.045
4260,-0.327,0.040
4261,-0.327,0.058
4262,-0.317,0.070
4263,-0.310,0.075
4264,-0.303,0.090
4265,-0.310,0.092
4266,-0.307,0.095
4267,-0.317,0.087
4268,-0.320,0.083
4269,-0.330,0.077
4270,-0.350,0.072
4271,-0.360,0.080
4272,-0.377,0.072
4273,-0.380,0.070
4274,-0.380,0.068
4275,-0.377,0.072
4276,-0.357,0.075
4277,-0.357,0.075
4278,-0.360,0.085
4279,-0.357,0.080
4280,-0.363,0.065
4281,-0.357,0.062
4282,-0.373,0.058
4283,-0.383,0.055
4284,-0.387,0.048
4285,-0.403,0.040
4286,-0.397,0.052
4287,-0.397,0.058
4288,-0.377,0.062
4289,-0.363,0.058
4290,-0.363,0.058
4291,-0.357,0.060
4292,-0.363,0.050
4293,-0.357,0.045
4294,-0.370,0.037
4295,-0.380,0.035
4296,-0.387,0.033
4297,-0.390,0.040
4298,-0.380,0.052
4299,-0.373,0.048
4300,-0.373,0.050
4301,-0.363,0.043
4302,-0.360,0.043
4303,-0.357,0.045
4304,-0.357,0.040
4305,-0.377,0.033
4306,-0.370,0.030
4307,-0.373,0.022
4308,-0.367,0.020
4309,-0.380,0.018
4310,-0.387,0.022
4311,-0.387,0.020
4312,-0.377,0.035
4313,-0.360,0.045
4314,-0.363,0.037
4315,-0.353,0.040
4316,-0.360,0.025
4317,-0.380,0.018
4318,-0.390,0.013
4319,-0.380,0.015
4320,-0.377,0.013
4321,-0.387,0.015
4322,-0.387,0.015
4323,-0.380,0.013
4324,-0.380,0.022
4325,-0.363,0.035
4326,-0.357,0.028
4327,-0.347,0.028
4328,-0.353,0.028
4329,-0.357,0.018
4330,-0.357,0.020
4331,-0.373,0.018
4332,-0.387,0.010
4333,-0.403,0.007
4334,-0.400,0.005
4335,-0.380,0.010
4336,-0.387,0.018
4337,-0.360,0.022
4338,-0.357,0.020
4339,-0.353,0.028
4340,-0.350,0.013
4341,-0.360,0.007
4342,-0.363,0.007
4343,-0.373,0.000
4344,-0.373,0.005
4345,-0.370,0.000
4346,-0.380,0.005
4347,-0.363,0.018
4348,-0.350,0.020
4349,-0.340,0.025
4350,-0.337,0.022
4351,-0.343,0.013
4352,-0.343,0.015
4353,-0.353,0.007
4354,-0.357,0.005
4355,-0.357,0.000
4356,-0.373,0.000
4357,-0.377,0.007
4358,-0.377,0.005
4359,-0.370,0.010
4360,-0.363,0.018
4361,-0.360,0.018
4362,-0.353,0.020
4363,-0.357,0.018
4364,-0.347,0.015
4365,-0.363,0.003
4366,-0.373,0.000
4367,-0.380,0.000
4368,-0.393,0.000
4369,-0.387,0.000
4370,-0.380,0.007
4371,-0.363,0.005
4372,-0.373,0.010
4373,-0.373,0.018
4374,-0.357,0.005
4375,-0.357,0.010
4376,-0.350,0.005
4377,-0.357,-0.005
4378,-0.367,0.005
4379,-0.363,0.000
4380,-0.373,0.000
4381,-0.367,0.005
4382,-0.360,0.000
4383,-0.360,0.015
4384,-0.357,0.018
4385,-0.343,0.018
4386,-0.340,0.028
4387,-0.350,0.010
4388,-0.357,0.020
4389,-0.363,0.020
4390,-0.363,0.010
4391,-0.357,0.020
4392,-0.363,0.018
4393,-0.357,0.028
4394,-0.350,0.040
4395,-0.350,0.045
4396,-0.333,0.043
4397,-0.320,0.045
4398,-0.317,0.055
4399,-0.307,0.052
4400,-0.310,0.040
4401,-0.310,0.030
4402,-0.317,0.025
4403,-0.320,0.022
4404,-0.317,0.010
4405,-0.323,0.005
4406,-0.317,0.000
4407,-0.307,-0.005
4408,-0.293,-0.005
4409,-0.287,-0.015
4410,-0.283,-0.018
4411,-0.273,-0.022
4412,-0.277,-0.018
4413,-0.267,-0.018
4414,-0.267,-0.018
4415,-0.270,-0.025
4416,-0.270,-0.033
4417,-0.293,-0.040
4418,-0.300,-0.048
4419,-0.317,-0.045
4420,-0.333,-0.033
4421,-0.330,-0.022
4422,-0.323,-0.022
4423,-0.307,-0.005
4424,-0.290,0.000
4425,-0.293,0.005
4426,-0.277,0.000
4427,-0.293,0.000
4428,-0.303,0.000
4429,-0.327,0.000
4430,-0.353,0.010
4431,-0.373,0.010
4432,-0.380,0.022
4433,-0.377,0.022
4434,-0.387,0.018
4435,-0.373,0.020
4436,-0.373,0.010
4437,-0.377,0.000
4438,-0.387,0.005
4439,-0.393,0.000
4440,-0.390,0.003
4441,-0.400,0.000
4442,-0.397,0.015
4443,-0.377,0.013
4444,-0.370,0.015
4445,-0.357,0.028
4446,-0.350,0.018
4447,-0.340,0.022
4448,-0.340,0.020
4449,-0.350,0.010
4450,-0.357,0.005
4451,-0.360,0.003
4452,-0.363,0.005
4453,-0.360,0.005
4454,-0.363,0.013
4455,-0.350,0.018
4456,-0.347,0.022
4457,-0.337,0.028
4458,-0.333,0.028
4459,-0.337,0.037
4460,-0.327,0.028
4461,-0.340,0.022
4462,-0.340,0.028
4463,-0.340,0.028
4464,-0.340,0.022
4465,-0.337,0.035
4466,-0.333,0.045
4467,-0.337,0.068
4468,-0.327,0.098
4469,-0.317,0.133
4470,-0.330,0.177
4471,-0.343,0.217
4472,-0.357,0.247
4473,-0.377,0.263
4474,-0.380,0.287
4475,-0.377,0.305
4476,-0.380,0.338
4477,-0.380,0.375
4478,-0.390,0.385
4479,-0.390,0.380
4480,-0.367,0.318
4481,-0.330,0.210
4482,-0.227,0.058
4483,-0.097,-0.068
4484,0.103,-0.115
4485,0.307,-0.083
4486,0.460,0.003
4487,0.587,0.090
4488,0.633,0.133
4489,0.617,0.125
4490,0.527,0.075
4491,0.347,0.000
4492,0.073,-0.058
4493,-0.257,-0.098
4494,-0.590,-0.113
4495,-0.870,-0.102
4496,-1.003,-0.080
4497,-1.037,-0.060
4498,-0.977,-0.043
4499,-0.873,-0.045
4500,-0.777,-0.050
4501,-0.690,-0.045
4502,-0.620,-0.043
4503,-0.560,-0.022
4504,-0.510,-0.005
4505,-0.473,-0.005
4506,-0.437,0.000
4507,-0.410,-0.010
4508,-0.387,-0.013
4509,-0.380,-0.033
4510,-0.363,-0.030
4511,-0.347,-0.030
4512,-0.347,-0.030
4513,-0.327,-0.020
4514,-0.310,-0.020
4515,-0.293,-0.018
4516,-0.270,-0.018
4517,-0.267,-0.018
4518,-0.260,-0.020
4519,-0.243,-0.028
4520,-0.230,-0.022
4521,-0.223,-0.028
4522,-0.217,-0.028
4523,-0.217,-0.035
4524,-0.223,-0.048
4525,-0.213,-0.045
4526,-0.187,-0.040
4527,-0.180,-0.028
4528,-0.170,-0.015
4529,-0.157,-0.022
4530,-0.167,-0.020
4531,-0.153,-0.037
4532,-0.157,-0.035
4533,-0.147,-0.040
4534,-0.153,-0.043
4535,-0.157,-0.052
4536,-0.163,-0.062
4537,-0.170,-0.052
4538,-0.160,-0.048
4539,-0.157,-0.045
4540,-0.143,-0.040
4541,-0.140,-0.045
4542,-0.120,-0.045
4543,-0.107,-0.048
4544,-0.113,-0.058
4545,-0.107,-0.058
4546,-0.117,-0.062
4547,-0.117,-0.065
4548,-0.107,-0.062
4549,-0.103,-0.075
4550,-0.097,-0.065
4551,-0.093,-0.062
4552,-0.073,-0.058
4553,-0.053,-0.058
4554,-0.047,-0.052
4555,-0.040,-0.048
4556,-0.040,-0.062
4557,-0.037,-0.070
4558,-0.023,-0.077
4559,-0.037,-0.083
4560,-0.030,-0.092
4561,-0.023,-0.092
4562,-0.023,-0.087
4563,0.003,-0.075
4564,0.007,-0.068
4565,0.023,-0.065
4566,0.027,-0.072
4567,0.030,-0.075
4568,0.017,-0.092
4569,0.030,-0.092
4570,0.037,-0.092
4571,0.030,-0.100
4572,0.030,-0.095
4573,0.017,-0.100
4574,0.020,-0.092
4575,0.037,-0.080
4576,0.043,-0.080
4577,0.053,-0.072
4578,0.053,-0.087
4579,0.057,-0.075
4580,0.060,-0.077
4581,0.043,-0.092
4582,0.053,-0.092
4583,0.057,-0.095
4584,0.040,-0.098
4585,0.040,-0.092
4586,0.053,-0.083
4587,0.070,-0.083
4588,0.073,-0.072
4589,0.090,-0.062
4590,0.083,-0.070
4591,0.087,-0.060
4592,0.083,-0.062
4593,0.077,-0.083
4594,0.083,-0.070
4595,0.073,-0.072
4596,0.057,-0.075
4597,0.060,-0.060
4598,0.063,-0.050
4599,0.067,-0.045
4600,0.060,-0.040
4601,0.077,-0.035
4602,0.077,-0.030
4603,0.080,-0.025
4604,0.073,-0.020
4605,0.047,-0.033
4606,0.037,-0.028
4607,0.027,-0.025
4608,0.020,-0.013
4609,0.007,-0.010
4610,-0.003,-0.003
4611,-0.010,0.005
4612,-0.017,0.010
4613,-0.023,0.025
4614,-0.030,0.020
4615,-0.040,0.028
4616,-0.047,0.040
4617,-0.070,0.035
4618,-0.083,0.030
4619,-0.083,0.022
4620,-0.107,0.028
4621,-0.123,0.035
4622,-0.123,0.035
4623,-0.137,0.048
4624,-0.130,0.058
4625,-0.127,0.058
4626,-0.127,0.058
4627,-0.133,0.060
4628,-0.140,0.055
4629,-0.157,0.055
4630,-0.170,0.052
4631,-0.187,0.052
4632,-0.183,0.043
4633,-0.193,0.052
4634,-0.190,0.052
4635,-0.183,0.065
4636,-0.167,0.068
4637,-0.177,0.083
4638,-0.177,0.092
4639,-0.177,0.087
4640,-0.183,0.080
4641,-0.193,0.083
4642,-0.207,0.070
4643,-0.210,0.062
4644,-0.223,0.065
4645,-0.217,0.072
4646,-0.217,0.070
4647,-0.223,0.080
4648,-0.213,0.098
4649,-0.207,0.100
4650,-0.203,0.095
4651,-0.200,0.092
4652,-0.210,0.087
4653,-0.217,0.077
4654,-0.220,0.080
4655,-0.223,0.075
4656,-0.237,0.065
4657,-0.240,0.077
4658,-0.237,0.087
4659,-0.247,0.077
4660,-0.243,0.092
4661,-0.240,0.087
4662,-0.247,0.085
4663,-0.247,0.090
4664,-0.243,0.080
4665,-0.247,0.072
4666,-0.253,0.070
4667,-0.247,0.070
4668,-0.247,0.062
4669,-0.257,0.058
4670,-0.260,0.077
4671,-0.257,0.077
4672,-0.243,0.080
4673,-0.237,0.087
4674,-0.237,0.090
4675,-0.223,0.085
4676,-0.247,0.080
4677,-0.267,0.070
4678,-0.257,0.058
4679,-0.263,0.055
4680,-0.270,0.045
4681,-0.270,0.052
4682,-0.257,0.060
4683,-0.247,0.065
4684,-0.247,0.070
4685,-0.237,0.075
4686,-0.233,0.068
4687,-0.223,0.058
4688,-0.230,0.048
4689,-0.247,0.045
4690,-0.257,0.048
4691,-0.253,0.033
4692,-0.257,0.040
4693,-0.263,0.030
4694,-0.240,0.035
4695,-0.233,0.035
4696,-0.227,0.040
4697,-0.217,0.062
4698,-0.217,0.040
4699,-0.210,0.040
4700,-0.213,0.035
4701,-0.210,0.035
4702,-0.213,0.033
4703,-0.217,0.018
4704,-0.213,0.025
4705,-0.213,0.022
4706,-0.217,0.030
4707,-0.210,0.040
4708,-0.207,0.043
4709,-0.193,0.050
4710,-0.197,0.048
4711,-0.197,0.045
4712,-0.193,0.040
4713,-0.210,0.022
4714,-0.207,0.022
4715,-0.217,0.018
4716,-0.223,0.013
4717,-0.227,0.022
4718,-0.233,0.020
4719,-0.213,0.022
4720,-0.203,0.028
4721,-0.197,0.035
4722,-0.190,0.028
4723,-0.193,0.035
4724,-0.187,0.035
4725,-0.200,0.018
4726,-0.200,0.018
4727,-0.203,0.010
4728,-0.213,0.010
4729,-0.210,0.013
4730,-0.217,0.010
4731,-0.203,0.018
4732,-0.200,0.018
4733,-0.197,0.022
4734,-0.190,0.015
4735,-0.197,0.022
4736,-0.187,0.010
4737,-0.190,0.003
4738,-0.197,0.005
4739,-0.190,-0.003
4740,-0.200,0.000
4741,-0.187,0.000
4742,-0.197,0.007
4743,-0.187,0.010
4744,-0.173,0.010
4745,-0.183,0.018
4746,-0.187,0.025
4747,-0.177,0.010
4748,-0.177,0.018
4749,-0.190,0.000
4750,-0.210,0.005
4751,-0.207,0.005
4752,-0.217,0.000
4753,-0.210,0.007
4754,-0.203,0.000
4755,-0.200,0.007
4756,-0.187,0.007
4757,-0.187,0.007
4758,-0.180,0.020
4759,-0.177,0.010
4760,-0.187,0.018
4761,-0.190,0.003
4762,-0.193,0.005
4763,-0.193,0.000
4764,-0.207,-0.003
4765,-0.210,0.000
4766,-0.207,0.000
4767,-0.200,0.010
4768,-0.183,0.010
4769,-0.180,0.010
4770,-0.177,0.010
4771,-0.173,0.005
4772,-0.177,0.005
4773,-0.177,0.000
4774,-0.193,0.000
4775,-0.190,0.000
4776,-0.200,0.000
4777,-0.200,0.003
4778,-0.187,0.000
4779,-0.187,0.003
4780,-0.180,0.018
4781,-0.173,0.005
4782,-0.170,0.015
4783,-0.163,0.010
4784,-0.163,0.015
4785,-0.160,0.010
4786,-0.177,0.013
4787,-0.177,0.007
4788,-0.177,0.010
4789,-0.180,0.003
4790,-0.177,0.015
4791,-0.170,0.018
4792,-0.153,0.035
4793,-0.140,0.040
4794,-0.147,0.040
4795,-0.133,0.043
4796,-0.147,0.037
4797,-0.143,0.045
4798,-0.133,0.033
4799,-0.140,0.030
4800,-0.143,0.028
4801,-0.143,0.030
4802,-0.150,0.028
4803,-0.133,0.028
4804,-0.140,0.028
4805,-0.140,0.028
4806,-0.130,0.018
4807,-0.130,0.013
4808,-0.130,0.000
4809,-0.133,-0.015
4810,-0.133,-0.028
4811,-0.130,-0.037
4812,-0.127,-0.045
4813,-0.137,-0.040
4814,-0.117,-0.035
4815,-0.100,-0.045
4816,-0.117,-0.040
4817,-0.117,-0.045
4818,-0.120,-0.045
4819,-0.140,-0.040
4820,-0.153,-0.055
4821,-0.170,-0.062
4822,-0.160,-0.058
4823,-0.150,-0.052
4824,-0.147,-0.035
4825,-0.140,-0.035
4826,-0.140,-0.022
4827,-0.127,-0.005
4828,-0.123,0.007
4829,-0.147,0.007
4830,-0.163,0.005
4831,-0.180,0.000
4832,-0.193,-0.010
4833,-0.213,-0.018
4834,-0.210,-0.020
4835,-0.220,-0.020
4836,-0.217,-0.013
4837,-0.213,-0.013
4838,-0.217,-0.005
4839,-0.203,0.000
4840,-0.200,0.000
4841,-0.197,0.005
4842,-0.190,-0.005
4843,-0.197,0.005
4844,-0.187,-0.007
4845,-0.200,-0.010
4846,-0.200,-0.013
4847,-0.210,-0.020
4848,-0.223,-0.018
4849,-0.213,-0.022
4850,-0.217,-0.010
4851,-0.197,-0.005
4852,-0.197,-0.005
4853,-0.193,0.005
4854,-0.193,0.005
4855,-0.200,0.005
4856,-0.190,0.000
4857,-0.203,-0.005
4858,-0.210,-0.003
4859,-0.210,-0.013
4860,-0.210,-0.005
4861,-0.207,-0.003
4862,-0.213,0.000
4863,-0.210,0.013
4864,-0.190,0.018
4865,-0.187,0.030
4866,-0.170,0.040
4867,-0.173,0.060
4868,-0.170,0.075
4869,-0.193,0.105
4870,-0.210,0.145
4871,-0.223,0.188
4872,-0.257,0.215
4873,-0.263,0.240
4874,-0.270,0.247
4875,-0.280,0.260
4876,-0.247,0.270
4877,-0.233,0.297
4878,-0.223,0.340
4879,-0.227,0.378
4880,-0.247,0.395
4881,-0.273,0.370
4882,-0.290,0.297
4883,-0.287,0.185
4884,-0.247,0.030
4885,-0.163,-0.128
4886,-0.023,-0.258
4887,0.147,-0.307
4888,0.317,-0.265
4889,0.457,-0.163
4890,0.560,-0.055
4891,0.600,0.010
4892,0.590,0.035
4893,0.507,0.000
4894,0.350,-0.050
4895,0.113,-0.090
4896,-0.170,-0.113
4897,-0.480,-0.113
4898,-0.707,-0.092
4899,-0.847,-0.075
4900,-0.870,-0.058
4901,-0.817,-0.040
4902,-0.723,-0.033
4903,-0.633,-0.035
4904,-0.563,-0.040
4905,-0.487,-0.040
4906,-0.430,-0.040
4907,-0.380,-0.025
4908,-0.347,-0.028
4909,-0.310,-0.022
4910,-0.280,-0.030
4911,-0.253,-0.028
4912,-0.230,-0.018
4913,-0.213,-0.018
4914,-0.203,-0.010
4915,-0.190,-0.005
4916,-0.193,-0.005
4917,-0.190,-0.010
4918,-0.190,-0.020
4919,-0.187,-0.022
4920,-0.177,-0.037
4921,-0.183,-0.040
4922,-0.153,-0.028
4923,-0.153,-0.033
4924,-0.130,-0.013
4925,-0.100,-0.015
4926,-0.107,-0.018
4927,-0.093,-0.015
4928,-0.083,-0.035
4929,-0.083,-0.040
4930,-0.087,-0.048
4931,-0.090,-0.040
4932,-0.080,-0.040
4933,-0.100,-0.040
4934,-0.070,-0.035
4935,-0.063,-0.035
4936,-0.053,-0.025
4937,-0.037,-0.022
4938,-0.040,-0.028
4939,-0.027,-0.028
4940,-0.033,-0.037
4941,-0.037,-0.043
4942,-0.033,-0.045
4943,-0.027,-0.045
4944,-0.020,-0.050
4945,-0.020,-0.058
4946,-0.017,-0.050
4947,-0.007,-0.045
4948,0.010,-0.035
4949,0.030,-0.022
4950,0.017,-0.030
4951,0.013,-0.028
4952,0.020,-0.048
4953,0.017,-0.055
4954,0.037,-0.052
4955,0.027,-0.068
4956,0.020,-0.070
4957,0.023,-0.062
4958,0.037,-0.058
4959,0.047,-0.062
4960,0.063,-0.052
4961,0.077,-0.052
4962,0.080,-0.060
4963,0.083,-0.062
4964,0.083,-0.075
4965,0.080,-0.072
4966,0.073,-0.085
4967,0.067,-0.092
4968,0.077,-0.080
4969,0.083,-0.095
4970,0.083,-0.083
4971,0.113,-0.077
4972,0.107,-0.085
4973,0.117,-0.070
4974,0.123,-0.077
4975,0.133,-0.080
4976,0.140,-0.083
4977,0.130,-0.090
4978,0.123,-0.092
4979,0.130,-0.098
4980,0.107,-0.107
4981,0.120,-0.100
4982,0.123,-0.102
4983,0.140,-0.090
4984,0.140,-0.085
4985,0.153,-0.080
4986,0.167,-0.080
4987,0.160,-0.083
4988,0.167,-0.098
4989,0.163,-0.100
4990,0.163,-0.105
4991,0.163,-0.105
4992,0.157,-0.105
4993,0.153,-0.100
4994,0.163,-0.092
4995,0.170,-0.087
4996,0.170,-0.085
4997,0.177,-0.072
4998,0.183,-0.075
4999,0.190,-0.072
5000,0.177,-0.070
5001,0.163,-0.080
5002,0.163,-0.072
5003,0.163,-0.072
5004,0.143,-0.075
5005,0.147,-0.058
5006,0.137,-0.055
5007,0.143,-0.040
5008,0.147,-0.028
5009,0.147,-0.020
5010,0.143,-0.020
5011,0.130,-0.015
5012,0.133,-0.018
5013,0.117,-0.028
5014,0.103,-0.018
5015,0.100,-0.020
5016,0.073,-0.020
5017,0.057,-0.010
5018,0.037,-0.010
5019,0.033,0.007
5020,0.047,0.010
5021,0.037,0.015
5022,0.027,0.022
5023,0.013,0.018
5024,0.010,0.018
5025,-0.003,0.010
5026,-0.030,0.007
5027,-0.027,0.015
5028,-0.043,0.010
5029,-0.040,0.013
5030,-0.050,0.018
5031,-0.053,0.025
5032,-0.053,0.033
5033,-0.060,0.037
5034,-0.060,0.035
5035,-0.057,0.033
5036,-0.060,0.040
5037,-0.073,0.040
5038,-0.093,0.033
5039,-0.107,0.028
5040,-0.123,0.030
5041,-0.123,0.028
5042,-0.137,0.033
5043,-0.140,0.045
5044,-0.140,0.058
5045,-0.133,0.062
5046,-0.130,0.062
5047,-0.127,0.058
5048,-0.133,0.062
5049,-0.140,0.062
5050,-0.163,0.060
5051,-0.150,0.050
5052,-0.170,0.050
5053,-0.170,0.072
5054,-0.163,0.080
5055,-0.160,0.080
5056,-0.150,0.090
5057,-0.150,0.095
5058,-0.143,0.090
5059,-0.153,0.100
5060,-0.147,0.092
5061,-0.157,0.087
5062,-0.170,0.090
5063,-0.163,0.087
5064,-0.177,0.087
5065,-0.190,0.090
5066,-0.180,0.095
5067,-0.183,0.092
5068,-0.177,0.110
5069,-0.170,0.110
5070,-0.180,0.122
5071,-0.170,0.115
5072,-0.187,0.110
5073,-0.193,0.105
5074,-0.200,0.095
5075,-0.193,0.095
5076,-0.193,0.087
5077,-0.210,0.090
5078,-0.200,0.092
5079,-0.197,0.085
5080,-0.200,0.100
5081,-0.187,0.100
5082,-0.200,0.087
5083,-0.207,0.098
5084,-0.193,0.087
5085,-0.217,0.085
5086,-0.207,0.083
5087,-0.210,0.075
5088,-0.217,0.065
5089,-0.217,0.070
5090,-0.210,0.070
5091,-0.200,0.062
5092,-0.203,0.068
5093,-0.190,0.077
5094,-0.193,0.080
5095,-0.193,0.075
5096,-0.187,0.065
5097,-0.200,0.062
5098,-0.190,0.050
5099,-0.210,0.040
5100,-0.223,0.040
5101,-0.223,0.037
5102,-0.227,0.052
5103,-0.200,0.062
5104,-0.200,0.058
5105,-0.197,0.060
5106,-0.193,0.052
5107,-0.187,0.058
5108,-0.170,0.040
5109,-0.183,0.033
5110,-0.180,0.028
5111,-0.187,0.025
5112,-0.190,0.028
5113,-0.200,0.022
5114,-0.207,0.025
5115,-0.187,0.033
5116,-0.177,0.037
5117,-0.173,0.048
5118,-0.173,0.037
5119,-0.170,0.040
5120,-0.173,0.035
5121,-0.180,0.022
5122,-0.183,0.028
5123,-0.187,0.013
5124,-0.200,0.015
5125,-0.193,0.020
5126,-0.203,0.022
5127,-0.200,0.030
5128,-0.200,0.037
5129,-0.197,0.035
5130,-0.183,0.025
5131,-0.197,0.025
5132,-0.200,0.018
5133,-0.200,0.005
5134,-0.197,0.010
5135,-0.190,0.003
5136,-0.200,0.005
5137,-0.207,0.015
5138,-0.200,0.018
5139,-0.193,0.022
5140,-0.177,0.022
5141,-0.180,0.020
5142,-0.177,0.022
5143,-0.170,0.022
5144,-0.170,0.013
5145,-0.177,0.010
5146,-0.180,0.005
5147,-0.170,0.005
5148,-0.180,0.000
5149,-0.190,0.003
5150,-0.177,0.007
5151,-0.183,0.007
5152,-0.167,0.015
5153,-0.177,0.022
5154,-0.160,0.015
5155,-0.173,0.015
5156,-0.163,0.015
5157,-0.177,0.000
5158,-0.177,-0.003
5159,-0.190,0.000
5160,-0.200,-0.005
5161,-0.217,0.000
5162,-0.200,0.000
5163,-0.193,0.005
5164,-0.187,0.000
5165,-0.180,0.013
5166,-0.183,0.018
5167,-0.173,0.007
5168,-0.183,0.007
5169,-0.183,0.007
5170,-0.193,0.000
5171,-0.210,0.005
5172,-0.213,0.000
5173,-0.220,0.003
5174,-0.200,-0.005
5175,-0.210,0.000
5176,-0.200,0.015
5177,-0.200,0.018
5178,-0.197,0.022
5179,-0.170,0.025
5180,-0.170,0.013
5181,-0.177,0.015
5182,-0.187,0.005
5183,-0.187,0.000
5184,-0.187,0.000
5185,-0.200,-0.005
5186,-0.193,0.003
5187,-0.203,-0.005
5188,-0.193,0.015
5189,-0.193,0.013
5190,-0.190,0.015
5191,-0.177,0.022
5192,-0.187,0.010
5193,-0.193,0.005
5194,-0.183,0.000
5195,-0.190,0.005
5196,-0.187,0.010
5197,-0.197,0.018
5198,-0.187,0.028
5199,-0.177,0.033
5200,-0.173,0.040
5201,-0.170,0.043
5202,-0.170,0.035
5203,-0.153,0.045
5204,-0.157,0.030
5205,-0.163,0.030
5206,-0.170,0.018
5207,-0.187,0.000
5208,-0.177,-0.003
5209,-0.193,-0.010
5210,-0.183,-0.013
5211,-0.170,-0.010
5212,-0.160,-0.020
5213,-0.140,-0.025
5214,-0.120,-0.030
5215,-0.117,-0.035
5216,-0.117,-0.040
5217,-0.130,-0.052
5218,-0.150,-0.068
5219,-0.170,-0.077
5220,-0.187,-0.075
5221,-0.210,-0.077
5222,-0.223,-0.072
5223,-0.207,-0.052
5224,-0.200,-0.040
5225,-0.170,-0.035
5226,-0.167,-0.028
5227,-0.147,-0.018
5228,-0.143,-0.010
5229,-0.147,-0.010
5230,-0.170,-0.010
5231,-0.200,-0.013
5232,-0.233,-0.018
5233,-0.257,-0.018
5234,-0.270,-0.028
5235,-0.263,-0.025
5236,-0.263,-0.022
5237,-0.257,-0.010
5238,-0.257,-0.022
5239,-0.253,-0.015
5240,-0.250,-0.022
5241,-0.280,-0.035
5242,-0.280,-0.028
5243,-0.293,-0.043
5244,-0.303,-0.035
5245,-0.290,-0.035
5246,-0.293,-0.025
5247,-0.273,-0.005
5248,-0.267,-0.007
5249,-0.260,0.000
5250,-0.257,0.000
5251,-0.263,-0.010
5252,-0.253,-0.013
5253,-0.267,-0.033
5254,-0.270,-0.022
5255,-0.273,-0.028
5256,-0.283,-0.028
5257,-0.270,-0.018
5258,-0.277,-0.010
5259,-0.270,-0.005
5260,-0.260,0.000
5261,-0.257,0.003
5262,-0.250,0.000
5263,-0.240,0.000
5264,-0.247,0.005
5265,-0.260,-0.005
5266,-0.260,-0.005
5267,-0.263,-0.005
5268,-0.263,-0.003
5269,-0.257,0.022
5270,-0.253,0.048
5271,-0.253,0.095
5272,-0.250,0.140
5273,-0.270,0.188
5274,-0.287,0.223
5275,-0.287,0.237
5276,-0.303,0.245
5277,-0.323,0.237
5278,-0.317,0.253
5279,-0.293,0.278
5280,-0.303,0.315
5281,-0.313,0.357
5282,-0.330,0.370
5283,-0.357,0.338
5284,-0.363,0.268
5285,-0.340,0.128
5286,-0.277,-0.045
5287,-0.157,-0.198
5288,0.010,-0.278
5289,0.177,-0.258
5290,0.333,-0.152
5291,0.443,-0.043
5292,0.490,0.013
5293,0.467,0.028
5294,0.347,-0.020
5295,0.097,-0.077
5296,-0.223,-0.115
5297,-0.550,-0.145
5298,-0.817,-0.135
5299,-0.970,-0.122
5300,-1.003,-0.105
5301,-0.950,-0.098
5302,-0.860,-0.085
5303,-0.747,-0.075
5304,-0.660,-0.075
5305,-0.597,-0.065
5306,-0.550,-0.052
5307,-0.513,-0.052
5308,-0.470,-0.035
5309,-0.430,-0.033
5310,-0.397,-0.035
5311,-0.357,-0.035
5312,-0.340,-0.050
5313,-0.323,-0.048
5314,-0.313,-0.040
5315,-0.297,-0.040
5316,-0.293,-0.040
5317,-0.300,-0.050
5318,-0.287,-0.048
5319,-0.273,-0.040
5320,-0.253,-0.025
5321,-0.233,-0.025
5322,-0.230,-0.028
5323,-0.233,-0.030
5324,-0.217,-0.040
5325,-0.210,-0.048
5326,-0.197,-0.045
5327,-0.200,-0.050
5328,-0.200,-0.052
5329,-0.203,-0.055
5330,-0.200,-0.040
5331,-0.183,-0.030
5332,-0.193,-0.025
5333,-0.193,-0.030
5334,-0.180,-0.037
5335,-0.173,-0.045
5336,-0.163,-0.052
5337,-0.153,-0.052
5338,-0.153,-0.050
5339,-0.160,-0.060
5340,-0.167,-0.052
5341,-0.153,-0.045
5342,-0.153,-0.040
5343,-0.147,-0.037
5344,-0.143,-0.045
5345,-0.120,-0.040
5346,-0.107,-0.040
5347,-0.100,-0.037
5348,-0.100,-0.045
5349,-0.107,-0.052
5350,-0.103,-0.052
5351,-0.103,-0.060
5352,-0.103,-0.070
5353,-0.097,-0.070
5354,-0.093,-0.065
5355,-0.077,-0.062
5356,-0.073,-0.065
5357,-0.060,-0.055
5358,-0.053,-0.060
5359,-0.043,-0.062
5360,-0.040,-0.075
5361,-0.037,-0.083
5362,-0.050,-0.075
5363,-0.047,-0.095
5364,-0.043,-0.085
5365,-0.027,-0.080
5366,-0.037,-0.085
5367,-0.023,-0.070
5368,-0.010,-0.075
5369,-0.003,-0.065
5370,0.020,-0.058
5371,0.013,-0.065
5372,0.003,-0.077
5373,-0.017,-0.072
5374,-0.003,-0.083
5375,-0.017,-0.098
5376,-0.023,-0.090
5377,-0.013,-0.090
5378,-0.020,-0.087
5379,0.010,-0.070
5380,0.027,-0.068
5381,0.023,-0.070
5382,0.030,-0.060
5383,0.030,-0.075
5384,0.030,-0.072
5385,0.040,-0.075
5386,0.023,-0.077
5387,0.017,-0.087
5388,0.010,-0.085
5389,0.017,-0.077
5390,0.010,-0.075
5391,0.030,-0.060
5392,0.043,-0.052
5393,0.040,-0.055
5394,0.037,-0.052
5395,0.047,-0.045
5396,0.050,-0.037
5397,0.040,-0.052
5398,0.030,-0.058
5399,0.037,-0.055
5400,0.037,-0.045
5401,0.030,-0.033
5402,0.023,-0.040
5403,0.030,-0.020
5404,0.040,-0.005
5405,0.033,0.000
5406,0.020,0.005
5407,0.007,0.003
5408,-0.013,0.000
5409,-0.030,-0.005
5410,-0.040,-0.007
5411,-0.047,-0.010
5412,-0.057,-0.003
5413,-0.060,0.010
5414,-0.057,0.015
5415,-0.077,0.030
5416,-0.077,0.033
5417,-0.093,0.040
5418,-0.093,0.052
5419,-0.107,0.048
5420,-0.130,0.040
5421,-0.157,0.035
5422,-0.173,0.030
5423,-0.200,0.037
5424,-0.210,0.035
5425,-0.217,0.043
5426,-0.217,0.052
5427,-0.220,0.055
5428,-0.223,0.062
5429,-0.223,0.068
5430,-0.233,0.068
5431,-0.237,0.070
5432,-0.257,0.058
5433,-0.263,0.062
5434,-0.263,0.055
5435,-0.280,0.050
5436,-0.273,0.050
5437,-0.287,0.060
5438,-0.287,0.083
5439,-0.277,0.085
5440,-0.280,0.087
5441,-0.280,0.087
5442,-0.280,0.087
5443,-0.267,0.087
5444,-0.277,0.087
5445,-0.280,0.090
5446,-0.287,0.080
5447,-0.297,0.092
5448,-0.293,0.087
5449,-0.317,0.092
5450,-0.310,0.098
5451,-0.313,0.098
5452,-0.317,0.105
5453,-0.303,0.115
5454,-0.303,0.113
5455,-0.307,0.122
5456,-0.310,0.100
5457,-0.320,0.105
5458,-0.320,0.098
5459,-0.353,0.087
5460,-0.343,0.105
5461,-0.350,0.100
5462,-0.353,0.115
5463,-0.340,0.115
5464,-0.340,0.115
5465,-0.330,0.122
5466,-0.340,0.113
5467,-0.340,0.122
5468,-0.347,0.105
5469,-0.363,0.100
5470,-0.373,0.092
5471,-0.377,0.092
5472,-0.373,0.098
5473,-0.373,0.087
5474,-0.380,0.102
5475,-0.367,0.105
5476,-0.377,0.098
5477,-0.360,0.105
5478,-0.350,0.098
5479,-0.350,0.102
5480,-0.340,0.095
5481,-0.363,0.087
5482,-0.370,0.090
5483,-0.380,0.080
5484,-0.387,0.080
5485,-0.380,0.080
5486,-0.383,0.075
5487,-0.370,0.083
5488,-0.373,0.092
5489,-0.357,0.092
5490,-0.347,0.083
5491,-0.350,0.080
5492,-0.340,0.077
5493,-0.350,0.058
5494,-0.357,0.068
5495,-0.370,0.068
5496,-0.370,0.060
5497,-0.380,0.058
5498,-0.397,0.062
5499,-0.363,0.075
5500,-0.357,0.075
5501,-0.357,0.080
5502,-0.357,0.087
5503,-0.360,0.085
5504,-0.357,0.075
5505,-0.370,0.062
5506,-0.370,0.062
5507,-0.377,0.060
5508,-0.380,0.052
5509,-0.383,0.052
5510,-0.377,0.060
5511,-0.367,0.072
5512,-0.357,0.070
5513,-0.357,0.070
5514,-0.350,0.077
5515,-0.347,0.070
5516,-0.350,0.052
5517,-0.357,0.048
5518,-0.370,0.052
5519,-0.373,0.052
5520,-0.380,0.052
5521,-0.387,0.052
5522,-0.380,0.052
5523,-0.383,0.058
5524,-0.363,0.065
5525,-0.360,0.058
5526,-0.357,0.058
5527,-0.357,0.052
5528,-0.367,0.060
5529,-0.363,0.052
5530,-0.373,0.045
5531,-0.367,0.035
5532,-0.373,0.035
5533,-0.377,0.050
5534,-0.377,0.058
5535,-0.370,0.062
5536,-0.357,0.062
5537,-0.357,0.062
5538,-0.353,0.077
5539,-0.353,0.065
5540,-0.350,0.050
5541,-0.357,0.043
5542,-0.363,0.040
5543,-0.360,0.045
5544,-0.363,0.043
5545,-0.377,0.045
5546,-0.377,0.050
5547,-0.380,0.052
5548,-0.383,0.070
5549,-0.363,0.062
5550,-0.360,0.058
5551,-0.357,0.052
5552,-0.363,0.058
5553,-0.363,0.052
5554,-0.370,0.048
5555,-0.373,0.040
5556,-0.380,0.033
5557,-0.387,0.035
5558,-0.383,0.045
5559,-0.377,0.052
5560,-0.350,0.060
5561,-0.343,0.058
5562,-0.357,0.058
5563,-0.357,0.062
5564,-0.373,0.048
5565,-0.373,0.045
5566,-0.383,0.035
5567,-0.380,0.025
5568,-0.377,0.035
5569,-0.380,0.037
5570,-0.373,0.058
5571,-0.360,0.052
5572,-0.343,0.058
5573,-0.337,0.045
5574,-0.350,0.048
5575,-0.353,0.058
5576,-0.350,0.040
5577,-0.350,0.043
5578,-0.350,0.040
5579,-0.363,0.037
5580,-0.360,0.043
5581,-0.363,0.043
5582,-0.350,0.052
5583,-0.337,0.058
5584,-0.333,0.062
5585,-0.320,0.070
5586,-0.317,0.075
5587,-0.310,0.085
5588,-0.317,0.075
5589,-0.333,0.080
5590,-0.317,0.080
5591,-0.323,0.068
5592,-0.333,0.065
5593,-0.323,0.058
5594,-0.317,0.058
5595,-0.317,0.052
5596,-0.317,0.055
5597,-0.310,0.058
5598,-0.303,0.040
5599,-0.293,0.033
5600,-0.293,0.010
5601,-0.293,0.000
5602,-0.287,-0.003
5603,-0.280,-0.005
5604,-0.280,-0.005
5605,-0.273,-0.005
5606,-0.283,0.000
5607,-0.283,0.000
5608,-0.300,-0.003
5609,-0.317,0.000
5610,-0.327,-0.007
5611,-0.333,-0.003
5612,-0.320,0.000
5613,-0.313,0.005
5614,-0.290,0.020
5615,-0.270,0.013
5616,-0.270,0.028
5617,-0.263,0.030
5618,-0.280,0.035
5619,-0.293,0.043
5620,-0.307,0.040
5621,-0.333,0.040
5622,-0.347,0.035
5623,-0.360,0.037
5624,-0.367,0.033
5625,-0.387,0.013
5626,-0.393,0.010
5627,-0.393,0.005
5628,-0.410,0.005
5629,-0.403,0.018
5630,-0.410,0.022
5631,-0.390,0.028
5632,-0.380,0.028
5633,-0.373,0.033
5634,-0.363,0.025
5635,-0.367,0.028
5636,-0.363,0.030
5637,-0.377,0.020
5638,-0.383,0.022
5639,-0.377,0.020
5640,-0.387,0.013
5641,-0.380,0.020
5642,-0.380,0.025
5643,-0.373,0.033
5644,-0.367,0.030
5645,-0.360,0.033
5646,-0.357,0.033
5647,-0.360,0.030
5648,-0.363,0.037
5649,-0.363,0.035
5650,-0.380,0.030
5651,-0.370,0.028
5652,-0.373,0.025
5653,-0.363,0.025
5654,-0.363,0.035
5655,-0.357,0.040
5656,-0.340,0.050
5657,-0.330,0.052
5658,-0.327,0.060
5659,-0.323,0.062
5660,-0.333,0.075
5661,-0.337,0.085
5662,-0.347,0.110
5663,-0.357,0.145
5664,-0.370,0.182
5665,-0.390,0.223
5666,-0.407,0.268
5667,-0.410,0.292
5668,-0.400,0.315
5669,-0.387,0.335
5670,-0.373,0.372
5671,-0.373,0.412
5672,-0.390,0.438
5673,-0.403,0.445
5674,-0.420,0.415
5675,-0.410,0.365
5676,-0.370,0.265
5677,-0.300,0.140
5678,-0.167,0.000
5679,-0.023,-0.117
5680,0.163,-0.122
5681,0.333,-0.072
5682,0.453,0.020
5683,0.543,0.102
5684,0.553,0.120
5685,0.497,0.080
5686,0.330,0.018
5687,0.070,-0.045
5688,-0.270,-0.115
5689,-0.613,-0.115
5690,-0.890,-0.107
5691,-1.050,-0.070
5692,-1.077,-0.035
5693,-1.017,-0.028
5694,-0.917,-0.020
5695,-0.800,-0.018
5696,-0.713,-0.025
5697,-0.643,-0.028
5698,-0.590,-0.025
5699,-0.560,-0.022
5700,-0.533,-0.013
5701,-0.493,-0.010
5702,-0.473,-0.007
5703,-0.443,-0.010
5704,-0.417,0.000
5705,-0.393,0.000
5706,-0.377,-0.007
5707,-0.353,-0.005
5708,-0.347,-0.013
5709,-0.340,-0.007
5710,-0.333,-0.018
5711,-0.340,-0.013
5712,-0.337,-0.018
5713,-0.313,-0.020
5714,-0.307,-0.013
5715,-0.290,-0.013
5716,-0.283,-0.020
5717,-0.270,-0.015
5718,-0.263,-0.015
5719,-0.257,-0.018
5720,-0.247,-0.030
5721,-0.240,-0.035
5722,-0.233,-0.030
5723,-0.240,-0.045
5724,-0.240,-0.043
5725,-0.243,-0.048
5726,-0.220,-0.030
5727,-0.210,-0.035
5728,-0.200,-0.018
5729,-0.180,-0.007
5730,-0.170,-0.018
5731,-0.173,-0.018
5732,-0.167,-0.028
5733,-0.170,-0.035
5734,-0.180,-0.045
5735,-0.177,-0.043
5736,-0.177,-0.037
5737,-0.183,-0.035
5738,-0.177,-0.043
5739,-0.157,-0.033
5740,-0.157,-0.030
5741,-0.140,-0.020
5742,-0.123,-0.022
5743,-0.127,-0.022
5744,-0.130,-0.028
5745,-0.147,-0.045
5746,-0.140,-0.050
5747,-0.117,-0.050
5748,-0.123,-0.052
5749,-0.123,-0.045
5750,-0.117,-0.050
5751,-0.100,-0.040
5752,-0.090,-0.030
5753,-0.080,-0.025
5754,-0.063,-0.028
5755,-0.057,-0.040
5756,-0.047,-0.052
5757,-0.047,-0.062
5758,-0.047,-0.065
5759,-0.050,-0.080
5760,-0.053,-0.070
5761,-0.050,-0.062
5762,-0.037,-0.070
5763,-0.030,-0.062
5764,-0.023,-0.052
5765,-0.017,-0.052
5766,-0.010,-0.052
5767,-0.010,-0.058
5768,0.013,-0.058
5769,0.030,-0.058
5770,0.007,-0.062
5771,0.010,-0.072
5772,0.003,-0.068
5773,0.007,-0.062
5774,-0.013,-0.070
5775,0.007,-0.052
5776,0.040,-0.045
5777,0.037,-0.045
5778,0.027,-0.045
5779,0.030,-0.050
5780,0.033,-0.048
5781,0.030,-0.058
5782,0.010,-0.062
5783,0.017,-0.075
5784,0.023,-0.062
5785,0.020,-0.062
5786,0.023,-0.060
5787,0.030,-0.045
5788,0.053,-0.028
5789,0.053,-0.030
5790,0.047,-0.035
5791,0.050,-0.040
5792,0.060,-0.045
5793,0.047,-0.048
5794,0.033,-0.052
5795,0.047,-0.052
5796,0.037,-0.050
5797,0.023,-0.033
5798,0.023,-0.018
5799,0.023,-0.010
5800,0.033,0.000
5801,0.033,0.000
5802,0.023,0.003
5803,0.017,0.010
5804,0.017,0.003
5805,0.003,0.010
5806,-0.017,0.005
5807,-0.020,0.013
5808,-0.023,0.018
5809,-0.053,0.022
5810,-0.060,0.030
5811,-0.070,0.037
5812,-0.070,0.050
5813,-0.067,0.058
5814,-0.083,0.062
5815,-0.083,0.068
5816,-0.100,0.062
5817,-0.113,0.062
5818,-0.130,0.048
5819,-0.150,0.058
5820,-0.147,0.058
5821,-0.160,0.058
5822,-0.167,0.072
5823,-0.167,0.077
5824,-0.177,0.080
5825,-0.170,0.072
5826,-0.187,0.085
5827,-0.180,0.080
5828,-0.207,0.072
5829,-0.220,0.080
5830,-0.223,0.080
5831,-0.233,0.075
5832,-0.243,0.080
5833,-0.253,0.077
5834,-0.257,0.080
5835,-0.243,0.080
5836,-0.237,0.098
5837,-0.223,0.095
5838,-0.237,0.098
5839,-0.227,0.105
5840,-0.233,0.087
5841,-0.257,0.092
5842,-0.250,0.092
5843,-0.267,0.085
5844,-0.263,0.092
5845,-0.270,0.092
5846,-0.287,0.100
5847,-0.280,0.110
5848,-0.277,0.115
5849,-0.280,0.125
5850,-0.277,0.113
5851,-0.280,0.117
5852,-0.267,0.105
5853,-0.287,0.087
5854,-0.290,0.100
5855,-0.300,0.085
5856,-0.310,0.098
5857,-0.307,0.110
5858,-0.310,0.107
5859,-0.307,0.115
5860,-0.300,0.107
5861,-0.303,0.122
5862,-0.300,0.110
5863,-0.293,0.120
5864,-0.287,0.107
5865,-0.303,0.092
5866,-0.307,0.098
5867,-0.310,0.080
5868,-0.317,0.087
5869,-0.317,0.090
5870,-0.310,0.090
5871,-0.310,0.090
5872,-0.303,0.095
5873,-0.290,0.100
5874,-0.290,0.092
5875,-0.293,0.092
5876,-0.293,0.075
5877,-0.317,0.068
5878,-0.317,0.072
5879,-0.327,0.060
5880,-0.333,0.058
5881,-0.317,0.062
5882,-0.320,0.068
5883,-0.313,0.070
5884,-0.310,0.070
5885,-0.310,0.087
5886,-0.303,0.085
5887,-0.307,0.072
5888,-0.310,0.075
5889,-0.317,0.060
5890,-0.330,0.052
5891,-0.320,0.045
5892,-0.330,0.045
5893,-0.327,0.052
5894,-0.323,0.058
5895,-0.317,0.060
5896,-0.297,0.062
5897,-0.293,0.070
5898,-0.280,0.070
5899,-0.280,0.062
5900,-0.283,0.043
5901,-0.293,0.033
5902,-0.303,0.040
5903,-0.300,0.040
5904,-0.317,0.037
5905,-0.310,0.045
5906,-0.293,0.045
5907,-0.303,0.050
5908,-0.293,0.045
5909,-0.290,0.048
5910,-0.280,0.045
5911,-0.280,0.043
5912,-0.280,0.035
5913,-0.287,0.025
5914,-0.300,0.028
5915,-0.290,0.022
5916,-0.297,0.018
5917,-0.293,0.033
5918,-0.290,0.035
5919,-0.287,0.035
5920,-0.267,0.045
5921,-0.270,0.045
5922,-0.283,0.045
5923,-0.287,0.035
5924,-0.287,0.037
5925,-0.287,0.030
5926,-0.293,0.018
5927,-0.293,0.018
5928,-0.303,0.020
5929,-0.313,0.018
5930,-0.303,0.020
5931,-0.303,0.020
5932,-0.300,0.028
5933,-0.300,0.030
5934,-0.290,0.035
5935,-0.287,0.033
5936,-0.287,0.028
5937,-0.290,0.018
5938,-0.300,0.010
5939,-0.310,0.010
5940,-0.313,0.022
5941,-0.303,0.018
5942,-0.293,0.022
5943,-0.290,0.025
5944,-0.280,0.022
5945,-0.280,0.025
5946,-0.280,0.028
5947,-0.270,0.022
5948,-0.270,0.015
5949,-0.280,0.018
5950,-0.277,0.005
5951,-0.287,0.003
5952,-0.280,0.005
5953,-0.287,0.000
5954,-0.277,0.020
5955,-0.270,0.018
5956,-0.270,0.028
5957,-0.273,0.037
5958,-0.263,0.028
5959,-0.263,0.022
5960,-0.257,0.020
5961,-0.267,0.018
5962,-0.273,0.015
5963,-0.290,0.015
5964,-0.290,0.005
5965,-0.293,0.003
5966,-0.287,0.010
5967,-0.280,0.010
5968,-0.283,0.022
5969,-0.280,0.028
5970,-0.280,0.028
5971,-0.267,0.033
5972,-0.270,0.022
5973,-0.283,0.018
5974,-0.283,0.013
5975,-0.297,0.005
5976,-0.303,0.003
5977,-0.307,0.005
5978,-0.307,0.005
5979,-0.293,0.018
5980,-0.287,0.028
5981,-0.273,0.033
5982,-0.277,0.028
5983,-0.277,0.033
5984,-0.270,0.022
5985,-0.290,0.022
5986,-0.280,0.025
5987,-0.270,0.022
5988,-0.273,0.028
5989,-0.277,0.035
5990,-0.260,0.035
5991,-0.257,0.040
5992,-0.243,0.043
5993,-0.227,0.050
5994,-0.220,0.045
5995,-0.217,0.037
5996,-0.207,0.025
5997,-0.223,0.010
5998,-0.227,0.000
5999,-0.227,-0.005
6000,-0.240,-0.022
6001,-0.223,-0.028
6002,-0.217,-0.037
6003,-0.200,-0.035
6004,-0.193,-0.043
6005,-0.173,-0.028
6006,-0.163,-0.028
6007,-0.177,-0.040
6008,-0.187,-0.050
6009,-0.223,-0.065
6010,-0.253,-0.072
6011,-0.257,-0.077
6012,-0.273,-0.080
6013,-0.267,-0.055
6014,-0.247,-0.040
6015,-0.223,-0.020
6016,-0.203,-0.015
6017,-0.193,0.000
6018,-0.187,0.000
6019,-0.210,-0.005
6020,-0.240,0.000
6021,-0.270,-0.018
6022,-0.303,-0.020
6023,-0.317,-0.035
6024,-0.327,-0.033
6025,-0.327,-0.020
6026,-0.320,-0.020
6027,-0.323,-0.010
6028,-0.303,-0.010
6029,-0.303,-0.010
6030,-0.310,-0.007
6031,-0.300,-0.015
6032,-0.297,-0.015
6033,-0.303,-0.025
6034,-0.317,-0.033
6035,-0.313,-0.033
6036,-0.320,-0.030
6037,-0.317,-0.028
6038,-0.310,-0.022
6039,-0.310,-0.018
6040,-0.293,0.000
6041,-0.297,-0.005
6042,-0.300,-0.005
6043,-0.303,-0.010
6044,-0.317,-0.010
6045,-0.317,-0.018
6046,-0.300,-0.020
6047,-0.303,-0.020
6048,-0.303,-0.013
6049,-0.313,-0.010
6050,-0.303,-0.005
6051,-0.303,-0.005
6052,-0.293,0.000
6053,-0.290,0.000
6054,-0.287,0.007
6055,-0.277,0.013
6056,-0.283,0.007
6057,-0.287,0.022
6058,-0.287,0.030
6059,-0.293,0.062
6060,-0.303,0.087
6061,-0.327,0.133
6062,-0.330,0.180
6063,-0.350,0.228
6064,-0.357,0.258
6065,-0.363,0.268
6066,-0.363,0.268
6067,-0.327,0.275
6068,-0.323,0.278
6069,-0.320,0.318
6070,-0.330,0.360
6071,-0.357,0.390
6072,-0.387,0.388
6073,-0.410,0.343
6074,-0.400,0.258
6075,-0.360,0.100
6076,-0.270,-0.075
6077,-0.140,-0.237
6078,0.020,-0.338
6079,0.197,-0.312
6080,0.350,-0.215
6081,0.453,-0.087
6082,0.503,-0.005
6083,0.483,0.018
6084,0.377,-0.007
6085,0.170,-0.065
6086,-0.120,-0.100
6087,-0.433,-0.140
6088,-0.723,-0.120
6089,-0.903,-0.102
6090,-0.977,-0.072
6091,-0.943,-0.052
6092,-0.853,-0.060
6093,-0.750,-0.055
6094,-0.637,-0.052
6095,-0.553,-0.055
6096,-0.497,-0.052
6097,-0.443,-0.052
6098,-0.403,-0.033
6099,-0.377,-0.028
6100,-0.360,-0.025
6101,-0.350,-0.028
6102,-0.343,-0.040
6103,-0.330,-0.040
6104,-0.327,-0.045
6105,-0.320,-0.048
6106,-0.303,-0.045
6107,-0.303,-0.055
6108,-0.293,-0.045
6109,-0.273,-0.045
6110,-0.267,-0.033
6111,-0.250,-0.043
6112,-0.240,-0.043
6113,-0.233,-0.040
6114,-0.213,-0.040
6115,-0.213,-0.035
6116,-0.197,-0.045
6117,-0.203,-0.058
6118,-0.217,-0.058
6119,-0.207,-0.062
6120,-0.210,-0.060
6121,-0.200,-0.072
6122,-0.190,-0.055
6123,-0.177,-0.037
6124,-0.167,-0.045
6125,-0.157,-0.037
6126,-0.143,-0.040
6127,-0.140,-0.045
6128,-0.143,-0.048
6129,-0.150,-0.068
6130,-0.147,-0.072
6131,-0.140,-0.070
6132,-0.143,-0.075
6133,-0.140,-0.070
6134,-0.130,-0.060
6135,-0.123,-0.052
6136,-0.123,-0.058
6137,-0.110,-0.055
6138,-0.097,-0.060
6139,-0.107,-0.058
6140,-0.103,-0.065
6141,-0.107,-0.075
6142,-0.117,-0.075
6143,-0.107,-0.083
6144,-0.107,-0.098
6145,-0.093,-0.087
6146,-0.093,-0.098
6147,-0.080,-0.080
6148,-0.060,-0.072
6149,-0.047,-0.077
6150,-0.033,-0.075
6151,-0.030,-0.077
6152,-0.037,-0.087
6153,-0.030,-0.098
6154,-0.033,-0.107
6155,-0.027,-0.113
6156,-0.037,-0.110
6157,-0.023,-0.107
6158,-0.017,-0.110
6159,-0.007,-0.098
6160,0.020,-0.087
6161,0.017,-0.095
6162,0.037,-0.090
6163,0.043,-0.107
6164,0.037,-0.105
6165,0.043,-0.107
6166,0.030,-0.113
6167,0.017,-0.115
6168,0.007,-0.117
6169,0.030,-0.105
6170,0.040,-0.105
6171,0.040,-0.092
6172,0.040,-0.100
6173,0.047,-0.098
6174,0.073,-0.092
6175,0.070,-0.098
6176,0.067,-0.105
6177,0.077,-0.107
6178,0.070,-0.110
6179,0.063,-0.115
6180,0.073,-0.115
6181,0.060,-0.115
6182,0.050,-0.110
6183,0.060,-0.098
6184,0.070,-0.083
6185,0.083,-0.087
6186,0.083,-0.085
6187,0.087,-0.077
6188,0.070,-0.092
6189,0.073,-0.092
6190,0.073,-0.087
6191,0.057,-0.087
6192,0.063,-0.077
6193,0.060,-0.070
6194,0.053,-0.072
6195,0.050,-0.065
6196,0.063,-0.045
6197,0.057,-0.040
6198,0.047,-0.043
6199,0.047,-0.035
6200,0.043,-0.037
6201,0.023,-0.035
6202,0.007,-0.028
6203,0.000,-0.043
6204,-0.017,-0.040
6205,-0.030,-0.040
6206,-0.027,-0.028
6207,-0.030,-0.018
6208,-0.030,-0.013
6209,-0.023,-0.003
6210,-0.030,-0.003
6211,-0.033,0.000
6212,-0.053,0.000
6213,-0.063,-0.003
6214,-0.077,-0.005
6215,-0.093,-0.018
6216,-0.117,-0.010
6217,-0.137,-0.018
6218,-0.133,0.000
6219,-0.140,0.003
6220,-0.153,0.020
6221,-0.153,0.025
6222,-0.170,0.018
6223,-0.163,0.022
6224,-0.160,0.020
6225,-0.187,0.010
6226,-0.193,0.018
6227,-0.200,0.007
6228,-0.213,0.013
6229,-0.220,0.020
6230,-0.223,0.018
6231,-0.210,0.028
6232,-0.210,0.033
6233,-0.210,0.045
6234,-0.217,0.040
6235,-0.223,0.050
6236,-0.217,0.050
6237,-0.233,0.037
6238,-0.240,0.040
6239,-0.247,0.033
6240,-0.260,0.035
6241,-0.257,0.035
6242,-0.250,0.048
6243,-0.240,0.068
6244,-0.233,0.075
6245,-0.233,0.072
6246,-0.233,0.075
6247,-0.243,0.070
6248,-0.237,0.065
6249,-0.253,0.060
6250,-0.263,0.070
6251,-0.277,0.070
6252,-0.293,0.075
6253,-0.297,0.072
6254,-0.290,0.083
6255,-0.280,0.083
6256,-0.277,0.087
6257,-0.267,0.098
6258,-0.263,0.092
6259,-0.270,0.092
6260,-0.270,0.092
6261,-0.270,0.070
6262,-0.280,0.070
6263,-0.287,0.068
6264,-0.293,0.062
6265,-0.293,0.060
6266,-0.297,0.062
6267,-0.290,0.080
6268,-0.273,0.085
6269,-0.270,0.077
6270,-0.270,0.077
6271,-0.263,0.070
6272,-0.270,0.058
6273,-0.283,0.040
6274,-0.293,0.052
6275,-0.290,0.050
6276,-0.293,0.043
6277,-0.293,0.043
6278,-0.287,0.040
6279,-0.287,0.050
6280,-0.273,0.050
6281,-0.273,0.045
6282,-0.280,0.045
6283,-0.270,0.037
6284,-0.270,0.025
6285,-0.280,0.018
6286,-0.283,0.010
6287,-0.290,0.003
6288,-0.283,0.003
6289,-0.290,0.013
6290,-0.287,0.007
6291,-0.270,0.018
6292,-0.257,0.028
6293,-0.247,0.010
6294,-0.247,0.018
6295,-0.250,0.010
6296,-0.253,0.000
6297,-0.250,0.000
6298,-0.260,-0.005
6299,-0.257,-0.003
6300,-0.263,-0.020
6301,-0.273,-0.005
6302,-0.267,-0.010
6303,-0.257,-0.005
6304,-0.247,0.000
6305,-0.247,0.000
6306,-0.247,0.005
6307,-0.247,0.000
6308,-0.257,-0.003
6309,-0.267,-0.015
6310,-0.277,-0.018
6311,-0.277,-0.022
6312,-0.277,-0.018
6313,-0.280,-0.018
6314,-0.263,-0.005
6315,-0.260,-0.007
6316,-0.257,0.000
6317,-0.253,-0.010
6318,-0.257,-0.015
6319,-0.247,-0.018
6320,-0.257,-0.028
6321,-0.263,-0.035
6322,-0.270,-0.033
6323,-0.270,-0.033
6324,-0.270,-0.033
6325,-0.283,-0.035
6326,-0.283,-0.033
6327,-0.277,-0.030
6328,-0.257,-0.020
6329,-0.247,-0.015
6330,-0.247,-0.018
6331,-0.237,-0.015
6332,-0.240,-0.035
6333,-0.240,-0.040
6334,-0.257,-0.052
6335,-0.260,-0.050
6336,-0.257,-0.040
6337,-0.257,-0.045
6338,-0.260,-0.033
6339,-0.253,-0.033
6340,-0.243,-0.022
6341,-0.223,-0.022
6342,-0.240,-0.022
6343,-0.230,-0.025
6344,-0.240,-0.035
6345,-0.257,-0.040
6346,-0.263,-0.050
6347,-0.263,-0.052
6348,-0.277,-0.040
6349,-0.280,-0.045
6350,-0.277,-0.045
6351,-0.260,-0.037
6352,-0.263,-0.037
6353,-0.240,-0.030
6354,-0.247,-0.030
6355,-0.243,-0.025
6356,-0.253,-0.045
6357,-0.263,-0.052
6358,-0.260,-0.048
6359,-0.267,-0.060
6360,-0.273,-0.055
6361,-0.283,-0.058
6362,-0.273,-0.045
6363,-0.263,-0.035
6364,-0.257,-0.035
6365,-0.253,-0.028
6366,-0.253,-0.052
6367,-0.247,-0.052
6368,-0.243,-0.050
6369,-0.257,-0.058
6370,-0.267,-0.058
6371,-0.273,-0.062
6372,-0.263,-0.055
6373,-0.257,-0.048
6374,-0.257,-0.045
6375,-0.250,-0.040
6376,-0.233,-0.030
6377,-0.210,-0.025
6378,-0.200,-0.022
6379,-0.210,-0.018
6380,-0.217,-0.013
6381,-0.240,-0.022
6382,-0.237,-0.020
6383,-0.240,-0.037
6384,-0.233,-0.035
6385,-0.223,-0.035
6386,-0.233,-0.040
6387,-0.227,-0.040
6388,-0.223,-0.052
6389,-0.223,-0.058
6390,-0.210,-0.070
6391,-0.213,-0.087
6392,-0.203,-0.098
6393,-0.190,-0.110
6394,-0.203,-0.113
6395,-0.200,-0.117
6396,-0.193,-0.125
6397,-0.213,-0.125
6398,-0.223,-0.138
6399,-0.233,-0.133
6400,-0.240,-0.133
6401,-0.240,-0.135
6402,-0.223,-0.122
6403,-0.210,-0.115
6404,-0.187,-0.105
6405,-0.177,-0.105
6406,-0.183,-0.098
6407,-0.187,-0.087
6408,-0.210,-0.100
6409,-0.223,-0.077
6410,-0.250,-0.083
6411,-0.277,-0.075
6412,-0.280,-0.062
6413,-0.293,-0.077
6414,-0.287,-0.077
6415,-0.287,-0.085
6416,-0.293,-0.095
6417,-0.297,-0.105
6418,-0.303,-0.110
6419,-0.307,-0.115
6420,-0.310,-0.113
6421,-0.323,-0.110
6422,-0.307,-0.100
6423,-0.313,-0.107
6424,-0.293,-0.087
6425,-0.293,-0.102
6426,-0.293,-0.087
6427,-0.293,-0.098
6428,-0.307,-0.100
6429,-0.303,-0.098
6430,-0.313,-0.110
6431,-0.317,-0.107
6432,-0.317,-0.120
6433,-0.327,-0.110
6434,-0.317,-0.105
6435,-0.310,-0.095
6436,-0.293,-0.075
6437,-0.293,-0.080
6438,-0.287,-0.070
6439,-0.280,-0.080
6440,-0.287,-0.092
6441,-0.290,-0.092
6442,-0.293,-0.105
6443,-0.310,-0.095
6444,-0.310,-0.098
6445,-0.317,-0.092
6446,-0.310,-0.070
6447,-0.303,-0.058
6448,-0.303,-0.040
6449,-0.290,-0.022
6450,-0.293,0.005
6451,-0.287,0.035
6452,-0.317,0.070
6453,-0.333,0.122
6454,-0.347,0.150
6455,-0.373,0.170
6456,-0.377,0.185
6457,-0.383,0.205
6458,-0.373,0.237
6459,-0.367,0.290
6460,-0.360,0.320
6461,-0.370,0.320
6462,-0.387,0.273
6463,-0.380,0.168
6464,-0.340,-0.005
6465,-0.263,-0.203
6466,-0.130,-0.362
6467,0.030,-0.417
6468,0.207,-0.340
6469,0.343,-0.212
6470,0.433,-0.075
6471,0.450,-0.020
6472,0.373,-0.028
6473,0.173,-0.092
6474,-0.127,-0.163
6475,-0.467,-0.207
6476,-0.760,-0.237
6477,-0.973,-0.233
6478,-1.070,-0.217
6479,-1.067,-0.198
6480,-0.993,-0.180
6481,-0.897,-0.165
6482,-0.830,-0.152
6483,-0.770,-0.155
6484,-0.727,-0.140
6485,-0.690,-0.128
6486,-0.657,-0.122
6487,-0.610,-0.115
6488,-0.550,-0.110
6489,-0.503,-0.117
6490,-0.443,-0.110
6491,-0.420,-0.128
6492,-0.397,-0.122
6493,-0.387,-0.122
6494,-0.380,-0.115
6495,-0.367,-0.113
6496,-0.343,-0.110
6497,-0.337,-0.102
6498,-0.317,-0.098
6499,-0.303,-0.105
6500,-0.297,-0.115
6501,-0.287,-0.122
6502,-0.287,-0.125
6503,-0.283,-0.142
6504,-0.277,-0.125
6505,-0.273,-0.125
6506,-0.263,-0.117
6507,-0.257,-0.115
6508,-0.247,-0.105
6509,-0.243,-0.110
6510,-0.227,-0.113
6511,-0.223,-0.120
6512,-0.217,-0.115
6513,-0.220,-0.128
6514,-0.223,-0.120
6515,-0.220,-0.130
6516,-0.223,-0.125
6517,-0.227,-0.128
6518,-0.217,-0.125
6519,-0.213,-0.122
6520,-0.197,-0.117
6521,-0.187,-0.113
6522,-0.173,-0.115
6523,-0.177,-0.120
6524,-0.170,-0.115
6525,-0.177,-0.135
6526,-0.177,-0.138
6527,-0.170,-0.150
6528,-0.187,-0.147
6529,-0.177,-0.142
6530,-0.187,-0.145
6531,-0.167,-0.133
6532,-0.153,-0.128
6533,-0.143,-0.128
6534,-0.127,-0.130
6535,-0.117,-0.147
6536,-0.103,-0.152
6537,-0.123,-0.168
6538,-0.130,-0.175
6539,-0.113,-0.168
6540,-0.120,-0.175
6541,-0.117,-0.168
6542,-0.100,-0.168
6543,-0.083,-0.158
6544,-0.070,-0.158
6545,-0.070,-0.170
6546,-0.087,-0.163
6547,-0.080,-0.168
6548,-0.067,-0.175
6549,-0.057,-0.172
6550,-0.067,-0.185
6551,-0.060,-0.190
6552,-0.070,-0.200
6553,-0.070,-0.193
6554,-0.063,-0.185
6555,-0.053,-0.180
6556,-0.047,-0.180
6557,-0.030,-0.175
6558,-0.037,-0.175
6559,-0.027,-0.175
6560,-0.027,-0.180
6561,-0.027,-0.190
6562,-0.030,-0.195
6563,-0.040,-0.195
6564,-0.040,-0.203
6565,-0.047,-0.198
6566,-0.033,-0.193
6567,-0.033,-0.185
6568,-0.017,-0.180
6569,-0.007,-0.182
6570,-0.013,-0.180
6571,0.003,-0.175
6572,-0.003,-0.188
6573,-0.010,-0.190
6574,-0.017,-0.193
6575,-0.023,-0.185
6576,-0.023,-0.185
6577,-0.023,-0.180
6578,-0.020,-0.170
6579,-0.017,-0.168
6580,-0.010,-0.158
6581,-0.003,-0.158
6582,-0.010,-0.158
6583,-0.013,-0.152
6584,-0.010,-0.158
6585,-0.023,-0.152
6586,-0.030,-0.160
6587,-0.050,-0.163
6588,-0.047,-0.158
6589,-0.047,-0.158
6590,-0.043,-0.145
6591,-0.040,-0.140
6592,-0.030,-0.130
6593,-0.027,-0.110
6594,-0.027,-0.115
6595,-0.037,-0.095
6596,-0.050,-0.110
6597,-0.070,-0.105
6598,-0.093,-0.113
6599,-0.113,-0.115
6600,-0.127,-0.117
6601,-0.140,-0.110
6602,-0.143,-0.095
6603,-0.153,-0.083
6604,-0.150,-0.070
6605,-0.163,-0.062
6606,-0.177,-0.070
6607,-0.193,-0.062
6608,-0.200,-0.075
6609,-0.227,-0.072
6610,-0.237,-0.075
6611,-0.253,-0.080
6612,-0.263,-0.072
6613,-0.273,-0.068
6614,-0.280,-0.065
6615,-0.280,-0.068
6616,-0.287,-0.055
6617,-0.273,-0.043
6618,-0.287,-0.045
6619,-0.293,-0.045
6620,-0.293,-0.045
6621,-0.303,-0.050
6622,-0.310,-0.045
6623,-0.313,-0.062
6624,-0.333,-0.062
