'sample interval','ECG','ECG'
'0.004 sec','mV','mV'
0,-0.640,-0.070
1,-0.910,-0.065
2,-0.935,-0.060
3,-0.930,-0.035
4,-0.935,-0.040
5,-0.955,-0.055
6,-0.950,-0.060
7,-0.950,-0.055
8,-0.940,-0.030
9,-0.925,0.000
10,-0.890,0.025
11,-0.870,0.055
12,-0.830,0.080
13,-0.800,0.120
14,-0.745,0.115
15,-0.695,0.110
16,-0.635,0.120
17,-0.570,0.145
18,-0.505,0.165
19,-0.430,0.180
20,-0.415,0.215
21,-0.390,0.190
22,-0.360,0.210
23,-0.350,0.180
24,-0.335,0.215
25,-0.320,0.230
26,-0.285,0.245
27,-0.250,0.245
28,-0.245,0.260
29,-0.240,0.270
30,-0.245,0.260
31,-0.240,0.245
32,-0.220,0.250
33,-0.225,0.250
34,-0.185,0.270
35,-0.155,0.285
36,-0.155,0.325
37,-0.140,0.300
38,-0.140,0.305
39,-0.130,0.280
40,-0.130,0.285
41,-0.130,0.290
42,-0.090,0.305
43,-0.095,0.320
44,-0.050,0.335
45,-0.040,0.360
46,-0.035,0.350
47,-0.050,0.345
48,-0.030,0.345
49,0.000,0.335
50,0.015,0.325
51,0.035,0.360
52,0.070,0.370
53,0.080,0.380
54,0.090,0.360
55,0.090,0.375
56,0.085,0.345
57,0.100,0.345
58,0.110,0.345
59,0.145,0.355
60,0.170,0.345
61,0.140,0.370
62,0.145,0.350
63,0.150,0.345
64,0.105,0.290
65,0.090,0.300
66,0.055,0.295
67,0.035,0.290
68,0.000,0.295
69,-0.010,0.295
70,-0.030,0.300
71,-0.045,0.285
72,-0.105,0.250
73,-0.130,0.245
74,-0.155,0.215
75,-0.145,0.230
76,-0.190,0.215
77,-0.190,0.235
78,-0.180,0.240
79,-0.215,0.225
80,-0.230,0.220
81,-0.260,0.175
82,-0.285,0.160
83,-0.300,0.155
84,-0.310,0.155
85,-0.335,0.165
86,-0.355,0.180
87,-0.390,0.175
88,-0.430,0.135
89,-0.445,0.155
90,-0.490,0.115
91,-0.470,0.115
92,-0.475,0.125
93,-0.485,0.130
94,-0.475,0.130
95,-0.475,0.150
96,-0.495,0.140
97,-0.520,0.135
98,-0.530,0.115
99,-0.545,0.105
100,-0.560,0.095
101,-0.535,0.115
102,-0.540,0.110
103,-0.525,0.140
104,-0.535,0.135
105,-0.570,0.125
106,-0.580,0.090
107,-0.570,0.105
108,-0.580,0.070
109,-0.555,0.090
110,-0.560,0.110
111,-0.545,0.110
112,-0.565,0.115
113,-0.550,0.105
114,-0.585,0.110
115,-0.585,0.085
116,-0.590,0.075
117,-0.580,0.085
118,-0.565,0.130
119,-0.530,0.130
120,-0.515,0.125
121,-0.560,0.130
122,-0.555,0.130
123,-0.580,0.110
124,-0.560,0.120
125,-0.525,0.095
126,-0.475,0.115
127,-0.460,0.110
128,-0.440,0.045
129,-0.490,0.025
130,-0.500,-0.035
131,-0.600,-0.065
132,-0.725,-0.110
133,-0.845,-0.110
134,-0.955,-0.120
135,-1.030,-0.105
136,-1.070,-0.115
137,-1.105,-0.095
138,-1.110,-0.105
139,-1.145,-0.090
140,-1.180,-0.095
141,-1.135,-0.095
142,-1.130,-0.070
143,-1.080,-0.065
144,-1.045,-0.040
145,-1.060,-0.040
146,-1.050,-0.015
147,-1.015,0.010
148,-0.995,0.040
149,-0.950,0.040
150,-0.900,0.060
151,-0.815,0.085
152,-0.730,0.120
153,-0.685,0.140
154,-0.640,0.145
155,-0.615,0.160
156,-0.585,0.155
157,-0.565,0.160
158,-0.500,0.175
159,-0.460,0.190
160,-0.410,0.215
161,-0.375,0.220
162,-0.360,0.220
163,-0.355,0.230
164,-0.345,0.205
165,-0.350,0.240
166,-0.330,0.225
167,-0.290,0.250
168,-0.250,0.255
169,-0.220,0.280
170,-0.205,0.265
171,-0.225,0.275
172,-0.220,0.255
173,-0.195,0.255
174,-0.185,0.260
175,-0.160,0.270
176,-0.120,0.280
177,-0.095,0.305
178,-0.105,0.310
179,-0.080,0.310
180,-0.060,0.300
181,-0.075,0.295
182,-0.050,0.315
183,-0.035,0.305
184,0.000,0.325
185,0.025,0.355
186,0.060,0.375
187,0.100,0.375
188,0.090,0.360
189,0.080,0.335
190,0.075,0.325
191,0.115,0.355
192,0.130,0.350
193,0.155,0.340
194,0.155,0.345
195,0.175,0.370
196,0.165,0.355
197,0.145,0.310
198,0.125,0.295
199,0.100,0.315
200,0.070,0.295
201,0.065,0.310
202,0.075,0.290
203,0.055,0.275
204,0.040,0.265
205,0.005,0.275
206,-0.050,0.225
207,-0.075,0.250
208,-0.085,0.225
209,-0.110,0.220
210,-0.095,0.245
211,-0.100,0.240
212,-0.120,0.220
213,-0.155,0.230
214,-0.160,0.230
215,-0.180,0.180
216,-0.205,0.170
217,-0.225,0.155
218,-0.225,0.180
219,-0.240,0.165
220,-0.280,0.170
221,-0.315,0.165
222,-0.345,0.155
223,-0.385,0.120
224,-0.385,0.110
225,-0.380,0.130
226,-0.380,0.110
227,-0.380,0.150
228,-0.365,0.135
229,-0.380,0.125
230,-0.400,0.125
231,-0.410,0.090
232,-0.410,0.115
233,-0.410,0.105
234,-0.425,0.115
235,-0.400,0.120
236,-0.410,0.125
237,-0.415,0.130
238,-0.410,0.105
239,-0.440,0.110
240,-0.460,0.100
241,-0.440,0.085
242,-0.455,0.110
243,-0.405,0.130
244,-0.425,0.130
245,-0.400,0.140
246,-0.440,0.140
247,-0.460,0.125
248,-0.510,0.100
249,-0.490,0.105
250,-0.480,0.110
251,-0.455,0.130
252,-0.430,0.135
253,-0.430,0.140
254,-0.450,0.140
255,-0.455,0.150
256,-0.485,0.130
257,-0.470,0.140
258,-0.440,0.125
259,-0.405,0.120
260,-0.360,0.095
261,-0.365,0.070
262,-0.380,0.020
263,-0.440,-0.010
264,-0.515,-0.040
265,-0.630,-0.090
266,-0.755,-0.080
267,-0.870,-0.080
268,-0.980,-0.100
269,-1.020,-0.095
270,-1.050,-0.115
271,-1.080,-0.110
272,-1.090,-0.110
273,-1.125,-0.120
274,-1.125,-0.120
275,-1.105,-0.110
276,-1.090,-0.080
277,-1.055,-0.080
278,-1.045,-0.070
279,-1.025,-0.045
280,-1.010,-0.045
281,-1.030,-0.030
282,-0.995,-0.020
283,-0.940,0.005
284,-0.910,0.010
285,-0.815,0.050
286,-0.765,0.075
287,-0.720,0.055
288,-0.680,0.090
289,-0.640,0.085
290,-0.615,0.110
291,-0.575,0.115
292,-0.530,0.115
293,-0.470,0.135
294,-0.430,0.155
295,-0.420,0.140
296,-0.400,0.175
297,-0.405,0.150
298,-0.385,0.145
299,-0.355,0.140
300,-0.350,0.145
301,-0.320,0.170
302,-0.280,0.175
303,-0.275,0.180
304,-0.250,0.195
305,-0.245,0.195
306,-0.260,0.185
307,-0.250,0.190
308,-0.210,0.160
309,-0.200,0.205
310,-0.160,0.205
311,-0.130,0.210
312,-0.115,0.220
313,-0.120,0.220
314,-0.150,0.205
315,-0.120,0.245
316,-0.090,0.225
317,-0.070,0.235
318,-0.055,0.260
319,-0.020,0.260
320,0.000,0.285
321,0.010,0.260
322,0.015,0.275
323,0.000,0.245
324,0.025,0.265
325,0.040,0.260
326,0.085,0.280
327,0.135,0.290
328,0.150,0.295
329,0.140,0.275
330,0.140,0.265
331,0.100,0.265
332,0.105,0.255
333,0.115,0.245
334,0.105,0.235
335,0.120,0.235
336,0.100,0.255
337,0.090,0.255
338,0.055,0.225
339,0.055,0.225
340,0.035,0.190
341,0.025,0.175
342,0.020,0.145
343,0.005,0.130
344,-0.045,0.135
345,-0.120,0.095
346,-0.175,0.075
347,-0.245,0.025
348,-0.290,-0.025
349,-0.370,-0.080
350,-0.480,-0.115
351,-0.605,-0.130
352,-0.740,-0.165
353,-0.850,-0.175
354,-0.985,-0.170
355,-1.070,-0.185
356,-1.165,-0.195
357,-1.220,-0.215
358,-1.220,-0.235
359,-1.210,-0.230
360,-1.200,-0.220
361,-1.210,-0.205
362,-1.240,-0.170
363,-1.265,-0.160
364,-1.265,-0.165
365,-1.280,-0.165
366,-1.240,-0.155
367,-1.185,-0.130
368,-1.125,-0.100
369,-1.090,-0.105
370,-1.060,-0.090
371,-1.060,-0.065
372,-1.025,-0.090
373,-1.025,-0.065
374,-0.995,-0.040
375,-0.980,-0.025
376,-0.925,0.015
377,-0.865,0.055
378,-0.805,0.075
379,-0.760,0.105
380,-0.700,0.105
381,-0.615,0.125
382,-0.565,0.165
383,-0.420,0.150
384,-0.350,0.170
385,-0.270,0.190
386,-0.215,0.205
387,-0.185,0.205
388,-0.145,0.240
389,-0.125,0.230
390,-0.105,0.225
391,-0.070,0.235
392,-0.015,0.250
393,0.035,0.280
394,0.095,0.305
395,0.125,0.320
396,0.150,0.310
397,0.185,0.310
398,0.195,0.325
399,0.235,0.335
400,0.255,0.310
401,0.305,0.355
402,0.340,0.350
403,0.380,0.385
404,0.390,0.370
405,0.395,0.350
406,0.385,0.345
407,0.425,0.340
408,0.440,0.335
409,0.465,0.325
410,0.470,0.340
411,0.485,0.350
412,0.450,0.335
413,0.420,0.345
414,0.405,0.330
415,0.385,0.325
416,0.360,0.315
417,0.380,0.310
418,0.380,0.280
419,0.360,0.295
420,0.350,0.310
421,0.305,0.295
422,0.280,0.270
423,0.235,0.270
424,0.235,0.270
425,0.215,0.285
426,0.210,0.275
427,0.200,0.255
428,0.175,0.255
429,0.165,0.250
430,0.125,0.240
431,0.085,0.240
432,0.065,0.230
433,0.055,0.215
434,0.050,0.220
435,0.055,0.230
436,0.050,0.230
437,0.050,0.210
438,0.020,0.230
439,0.000,0.215
440,-0.025,0.200
441,-0.030,0.190
442,-0.005,0.195
443,-0.010,0.190
444,0.000,0.195
445,-0.010,0.225
446,-0.020,0.225
447,-0.065,0.205
448,-0.075,0.210
449,-0.045,0.200
450,-0.045,0.180
451,-0.025,0.220
452,0.000,0.210
453,-0.020,0.205
454,-0.020,0.225
455,-0.035,0.215
456,-0.050,0.220
457,-0.050,0.200
458,-0.045,0.205
459,-0.045,0.235
460,-0.020,0.240
461,0.000,0.265
462,0.015,0.255
463,0.000,0.240
464,-0.010,0.230
465,-0.015,0.255
466,-0.005,0.240
467,0.035,0.230
468,0.045,0.240
469,0.050,0.270
470,0.065,0.275
471,0.035,0.260
472,0.005,0.250
473,-0.040,0.225
474,-0.025,0.230
475,-0.010,0.230
476,-0.005,0.240
477,-0.015,0.255
478,-0.015,0.250
479,-0.050,0.240
480,-0.040,0.250
481,-0.095,0.225
482,-0.075,0.205
483,-0.085,0.230
484,-0.070,0.225
485,-0.055,0.220
486,-0.075,0.235
487,-0.075,0.225
488,-0.105,0.205
489,-0.110,0.190
490,-0.155,0.185
491,-0.170,0.160
492,-0.230,0.165
493,-0.210,0.180
494,-0.200,0.190
495,-0.225,0.200
496,-0.235,0.180
497,-0.245,0.185
498,-0.275,0.160
499,-0.280,0.155
500,-0.295,0.165
501,-0.280,0.170
502,-0.270,0.190
503,-0.275,0.165
504,-0.280,0.165
505,-0.315,0.175
506,-0.335,0.145
507,-0.335,0.125
508,-0.320,0.135
509,-0.315,0.140
510,-0.305,0.150
511,-0.310,0.165
512,-0.310,0.150
513,-0.345,0.135
514,-0.345,0.120
515,-0.365,0.120
516,-0.345,0.110
517,-0.365,0.125
518,-0.345,0.130
519,-0.340,0.145
520,-0.340,0.145
521,-0.360,0.140
522,-0.360,0.135
523,-0.370,0.115
524,-0.365,0.105
525,-0.370,0.120
526,-0.375,0.145
527,-0.345,0.130
528,-0.335,0.165
529,-0.330,0.140
530,-0.315,0.145
531,-0.335,0.110
532,-0.325,0.070
533,-0.340,0.070
534,-0.330,0.040
535,-0.345,0.030
536,-0.390,0.000
537,-0.485,-0.025
538,-0.610,-0.035
539,-0.715,-0.060
540,-0.855,-0.060
541,-0.910,-0.100
542,-0.955,-0.120
543,-0.985,-0.080
544,-0.975,-0.080
545,-1.015,-0.075
546,-1.060,-0.065
547,-1.070,-0.080
548,-1.060,-0.095
549,-1.045,-0.110
550,-1.040,-0.090
551,-1.030,-0.060
552,-1.030,-0.055
553,-1.015,-0.010
554,-0.995,-0.015
555,-0.960,0.005
556,-0.955,0.010
557,-0.915,0.025
558,-0.845,0.020
559,-0.785,0.065
560,-0.700,0.075
561,-0.640,0.095
562,-0.610,0.110
563,-0.590,0.115
564,-0.565,0.095
565,-0.550,0.095
566,-0.545,0.075
567,-0.490,0.105
568,-0.450,0.130
569,-0.425,0.135
570,-0.410,0.160
571,-0.425,0.155
572,-0.405,0.135
573,-0.390,0.105
574,-0.380,0.130
575,-0.360,0.130
576,-0.350,0.160
577,-0.330,0.175
578,-0.310,0.180
579,-0.300,0.185
580,-0.305,0.185
581,-0.315,0.165
582,-0.290,0.170
583,-0.285,0.150
584,-0.250,0.180
585,-0.220,0.195
586,-0.205,0.225
587,-0.210,0.195
588,-0.205,0.210
589,-0.215,0.200
590,-0.205,0.195
591,-0.175,0.200
592,-0.170,0.225
593,-0.135,0.225
594,-0.105,0.245
595,-0.090,0.255
596,-0.095,0.250
597,-0.080,0.255
598,-0.095,0.250
599,-0.060,0.245
600,-0.055,0.250
601,0.000,0.295
602,0.000,0.260
603,0.000,0.275
604,0.005,0.260
605,0.000,0.255
606,-0.035,0.255
607,-0.060,0.205
608,-0.060,0.235
609,-0.045,0.230
610,-0.065,0.245
611,-0.080,0.255
612,-0.090,0.235
613,-0.095,0.230
614,-0.145,0.220
615,-0.180,0.195
616,-0.190,0.180
617,-0.185,0.215
618,-0.190,0.200
619,-0.175,0.190
620,-0.205,0.210
621,-0.240,0.195
622,-0.250,0.200
623,-0.275,0.150
624,-0.280,0.145
625,-0.315,0.140
626,-0.330,0.145
627,-0.355,0.145
628,-0.375,0.165
629,-0.395,0.150
630,-0.425,0.150
631,-0.460,0.110
632,-0.490,0.115
633,-0.470,0.125
634,-0.465,0.125
635,-0.475,0.120
636,-0.465,0.130
637,-0.485,0.130
638,-0.510,0.110
639,-0.525,0.115
640,-0.550,0.095
641,-0.530,0.100
642,-0.530,0.100
643,-0.530,0.140
644,-0.510,0.145
645,-0.505,0.125
646,-0.515,0.140
647,-0.530,0.110
648,-0.555,0.090
649,-0.555,0.095
650,-0.550,0.100
651,-0.530,0.100
652,-0.480,0.130
653,-0.490,0.110
654,-0.485,0.110
655,-0.505,0.120
656,-0.520,0.110
657,-0.520,0.080
658,-0.495,0.110
659,-0.520,0.095
660,-0.490,0.115
661,-0.470,0.125
662,-0.475,0.140
663,-0.475,0.135
664,-0.495,0.120
665,-0.470,0.105
666,-0.455,0.095
667,-0.460,0.085
668,-0.445,0.040
669,-0.450,0.015
670,-0.495,-0.020
671,-0.555,-0.055
672,-0.650,-0.085
673,-0.790,-0.115
674,-0.895,-0.130
675,-1.010,-0.150
676,-1.060,-0.150
677,-1.105,-0.145
678,-1.145,-0.130
679,-1.190,-0.135
680,-1.190,-0.140
681,-1.225,-0.140
682,-1.240,-0.155
683,-1.240,-0.140
684,-1.175,-0.130
685,-1.180,-0.120
686,-1.150,-0.100
687,-1.140,-0.085
688,-1.140,-0.070
689,-1.155,-0.070
690,-1.125,-0.060
691,-1.090,-0.040
692,-1.030,-0.035
693,-0.955,0.000
694,-0.880,0.015
695,-0.840,0.035
696,-0.790,0.040
697,-0.770,0.040
698,-0.755,0.060
699,-0.720,0.020
700,-0.695,0.055
701,-0.650,0.075
702,-0.625,0.085
703,-0.610,0.110
704,-0.580,0.100
705,-0.595,0.090
706,-0.610,0.090
707,-0.605,0.085
708,-0.585,0.100
709,-0.570,0.100
710,-0.515,0.120
711,-0.525,0.135
712,-0.500,0.125
713,-0.530,0.145
714,-0.505,0.145
715,-0.500,0.140
716,-0.500,0.155
717,-0.455,0.155
718,-0.450,0.155
719,-0.395,0.195
720,-0.410,0.215
721,-0.415,0.225
722,-0.395,0.185
723,-0.400,0.170
724,-0.385,0.205
725,-0.350,0.195
726,-0.285,0.225
727,-0.270,0.255
728,-0.250,0.255
729,-0.260,0.245
730,-0.240,0.250
731,-0.240,0.235
732,-0.230,0.235
733,-0.200,0.250
734,-0.160,0.255
735,-0.155,0.260
736,-0.120,0.255
737,-0.120,0.265
738,-0.110,0.240
739,-0.145,0.230
740,-0.155,0.240
741,-0.155,0.220
742,-0.150,0.220
743,-0.150,0.210
744,-0.160,0.220
745,-0.185,0.220
746,-0.210,0.205
747,-0.240,0.190
748,-0.285,0.185
749,-0.300,0.180
750,-0.295,0.160
751,-0.310,0.155
752,-0.295,0.175
753,-0.300,0.170
754,-0.345,0.145
755,-0.350,0.140
756,-0.370,0.130
757,-0.380,0.110
758,-0.420,0.110
759,-0.390,0.105
760,-0.430,0.100
761,-0.445,0.110
762,-0.470,0.105
763,-0.500,0.100
764,-0.530,0.070
765,-0.555,0.065
766,-0.560,0.070
767,-0.555,0.085
768,-0.560,0.085
769,-0.545,0.090
770,-0.560,0.080
771,-0.565,0.080
772,-0.590,0.060
773,-0.605,0.055
774,-0.620,0.055
775,-0.615,0.045
776,-0.590,0.070
777,-0.590,0.070
778,-0.580,0.070
779,-0.580,0.080
780,-0.630,0.065
781,-0.625,0.050
782,-0.645,0.045
783,-0.630,0.045
784,-0.635,0.065
785,-0.595,0.055
786,-0.600,0.070
787,-0.625,0.060
788,-0.640,0.060
789,-0.640,0.020
790,-0.660,0.020
791,-0.670,0.020
792,-0.635,0.050
793,-0.615,0.030
794,-0.600,0.050
795,-0.605,0.045
796,-0.605,0.045
797,-0.610,0.035
798,-0.620,0.020
799,-0.640,0.025
800,-0.620,0.015
801,-0.580,0.025
802,-0.570,0.005
803,-0.560,-0.005
804,-0.605,-0.050
805,-0.625,-0.100
806,-0.680,-0.130
807,-0.725,-0.155
808,-0.795,-0.200
809,-0.885,-0.205
810,-0.970,-0.240
811,-1.070,-0.225
812,-1.140,-0.250
813,-1.195,-0.230
814,-1.240,-0.265
815,-1.250,-0.250
816,-1.260,-0.280
817,-1.265,-0.250
818,-1.245,-0.235
819,-1.225,-0.235
820,-1.205,-0.220
821,-1.215,-0.210
822,-1.200,-0.205
823,-1.235,-0.190
824,-1.195,-0.185
825,-1.165,-0.160
826,-1.090,-0.115
827,-1.030,-0.080
828,-0.985,-0.050
829,-0.935,-0.055
830,-0.890,-0.035
831,-0.860,-0.045
832,-0.815,-0.035
833,-0.780,-0.030
834,-0.705,-0.005
835,-0.645,0.010
836,-0.605,0.015
837,-0.580,0.025
838,-0.580,0.025
839,-0.575,0.015
840,-0.565,0.035
841,-0.560,0.030
842,-0.500,0.050
843,-0.470,0.065
844,-0.450,0.065
845,-0.430,0.090
846,-0.430,0.065
847,-0.420,0.085
848,-0.435,0.095
849,-0.410,0.085
850,-0.370,0.105
851,-0.330,0.125
852,-0.295,0.120
853,-0.270,0.135
854,-0.260,0.135
855,-0.255,0.140
856,-0.270,0.150
857,-0.265,0.135
858,-0.240,0.140
859,-0.215,0.165
860,-0.175,0.190
861,-0.140,0.195
862,-0.115,0.195
863,-0.110,0.205
864,-0.095,0.210
865,-0.105,0.225
866,-0.075,0.220
867,-0.040,0.225
868,-0.020,0.230
869,0.015,0.225
870,0.035,0.240
871,0.035,0.225
872,0.005,0.205
873,-0.005,0.195
874,0.005,0.195
875,0.000,0.185
876,0.000,0.180
877,0.000,0.190
878,-0.020,0.190
879,-0.045,0.180
880,-0.050,0.165
881,-0.100,0.140
882,-0.125,0.130
883,-0.145,0.110
884,-0.150,0.130
885,-0.145,0.110
886,-0.155,0.120
887,-0.165,0.115
888,-0.190,0.110
889,-0.245,0.090
890,-0.260,0.045
891,-0.280,0.040
892,-0.260,0.040
893,-0.265,0.020
894,-0.270,0.025
895,-0.305,0.035
896,-0.360,0.055
897,-0.400,0.020
898,-0.420,0.015
899,-0.425,0.000
900,-0.430,0.000
901,-0.435,0.010
902,-0.445,0.010
903,-0.415,0.015
904,-0.445,0.015
905,-0.425,0.025
906,-0.485,-0.010
907,-0.485,-0.020
908,-0.465,-0.040
909,-0.455,-0.020
910,-0.460,-0.050
911,-0.435,-0.010
912,-0.460,-0.040
913,-0.460,-0.020
914,-0.480,-0.045
915,-0.505,-0.040
916,-0.515,-0.060
917,-0.480,-0.045
918,-0.450,-0.055
919,-0.455,-0.045
920,-0.470,-0.025
921,-0.475,-0.045
922,-0.460,-0.040
923,-0.515,-0.050
924,-0.505,-0.065
925,-0.485,-0.060
926,-0.480,-0.045
927,-0.470,-0.040
928,-0.470,-0.030
929,-0.480,-0.035
930,-0.470,-0.045
931,-0.490,-0.060
932,-0.475,-0.060
933,-0.455,-0.080
934,-0.445,-0.070
935,-0.415,-0.070
936,-0.390,-0.080
937,-0.430,-0.110
938,-0.465,-0.150
939,-0.505,-0.210
940,-0.530,-0.260
941,-0.590,-0.285
942,-0.640,-0.305
943,-0.740,-0.320
944,-0.810,-0.320
945,-0.890,-0.340
946,-0.960,-0.315
947,-1.005,-0.355
948,-1.045,-0.360
949,-1.050,-0.345
950,-1.070,-0.345
951,-1.050,-0.360
952,-1.055,-0.345
953,-1.040,-0.325
954,-1.025,-0.300
955,-1.040,-0.310
956,-1.045,-0.280
957,-1.025,-0.305
958,-1.025,-0.275
959,-0.985,-0.235
960,-0.930,-0.210
961,-0.875,-0.170
962,-0.825,-0.145
963,-0.785,-0.125
964,-0.735,-0.140
965,-0.690,-0.115
966,-0.640,-0.120
967,-0.585,-0.090
968,-0.565,-0.090
969,-0.495,-0.040
970,-0.465,-0.040
971,-0.460,-0.030
972,-0.425,-0.050
973,-0.400,-0.040
974,-0.385,-0.040
975,-0.375,-0.030
976,-0.355,-0.045
977,-0.315,-0.020
978,-0.295,0.000
979,-0.275,0.000
980,-0.260,0.015
981,-0.270,0.000
982,-0.265,0.000
983,-0.215,-0.010
984,-0.200,0.030
985,-0.175,0.000
986,-0.145,0.065
987,-0.135,0.060
988,-0.140,0.050
989,-0.150,0.060
990,-0.115,0.065
991,-0.110,0.060
992,-0.100,0.080
993,-0.065,0.090
994,-0.040,0.095
995,-0.025,0.115
996,-0.005,0.115
997,-0.030,0.135
998,0.000,0.110
999,0.000,0.115
1000,0.030,0.095
1001,0.055,0.120
1002,0.090,0.130
1003,0.095,0.130
1004,0.090,0.135
1005,0.085,0.105
1006,0.040,0.075
1007,0.050,0.070
1008,0.025,0.050
1009,0.025,0.055
1010,0.005,0.045
1011,0.020,0.055
1012,-0.035,0.045
1013,-0.050,0.035
1014,-0.090,0.000
1015,-0.125,0.000
1016,-0.160,-0.015
1017,-0.175,0.000
1018,-0.195,-0.010
1019,-0.200,-0.010
1020,-0.230,-0.005
1021,-0.260,0.000
1022,-0.295,-0.025
1023,-0.325,-0.055
1024,-0.330,-0.085
1025,-0.365,-0.080
1026,-0.350,-0.090
1027,-0.380,-0.075
1028,-0.395,-0.080
1029,-0.460,-0.075
1030,-0.485,-0.090
1031,-0.530,-0.115
1032,-0.545,-0.135
1033,-0.545,-0.140
1034,-0.540,-0.135
1035,-0.545,-0.115
1036,-0.530,-0.120
1037,-0.540,-0.110
1038,-0.575,-0.115
1039,-0.595,-0.150
1040,-0.610,-0.165
1041,-0.605,-0.160
1042,-0.620,-0.150
1043,-0.610,-0.150
1044,-0.600,-0.155
1045,-0.595,-0.140
1046,-0.605,-0.135
1047,-0.620,-0.160
1048,-0.620,-0.155
1049,-0.640,-0.160
1050,-0.620,-0.170
1051,-0.630,-0.160
1052,-0.600,-0.160
1053,-0.590,-0.160
1054,-0.605,-0.155
1055,-0.625,-0.145
1056,-0.640,-0.150
1057,-0.630,-0.155
1058,-0.615,-0.165
1059,-0.625,-0.155
1060,-0.595,-0.140
1061,-0.575,-0.125
1062,-0.570,-0.125
1063,-0.575,-0.120
1064,-0.600,-0.150
1065,-0.600,-0.160
1066,-0.570,-0.175
1067,-0.525,-0.160
1068,-0.505,-0.160
1069,-0.510,-0.140
1070,-0.515,-0.185
1071,-0.540,-0.220
1072,-0.565,-0.295
1073,-0.610,-0.315
1074,-0.650,-0.360
1075,-0.710,-0.355
1076,-0.795,-0.370
1077,-0.870,-0.375
1078,-0.930,-0.370
1079,-0.980,-0.365
1080,-1.000,-0.375
1081,-1.055,-0.415
1082,-1.065,-0.425
1083,-1.080,-0.415
1084,-1.085,-0.410
1085,-1.070,-0.380
1086,-1.045,-0.365
1087,-1.045,-0.360
1088,-1.040,-0.345
1089,-1.040,-0.345
1090,-1.065,-0.320
1091,-1.045,-0.340
1092,-0.995,-0.305
1093,-0.970,-0.275
1094,-0.925,-0.220
1095,-0.875,-0.185
1096,-0.845,-0.155
1097,-0.830,-0.160
1098,-0.795,-0.150
1099,-0.750,-0.170
1100,-0.720,-0.130
1101,-0.685,-0.110
1102,-0.615,-0.080
1103,-0.555,-0.085
1104,-0.555,-0.050
1105,-0.535,-0.060
1106,-0.500,-0.070
1107,-0.465,-0.065
1108,-0.460,-0.055
1109,-0.430,-0.050
1110,-0.405,-0.045
1111,-0.375,-0.015
1112,-0.380,0.000
1113,-0.365,0.010
1114,-0.355,0.005
1115,-0.360,-0.020
1116,-0.355,-0.005
1117,-0.330,0.000
1118,-0.255,0.005
1119,-0.240,0.035
1120,-0.215,0.050
1121,-0.235,0.070
1122,-0.230,0.060
1123,-0.230,0.055
1124,-0.220,0.035
1125,-0.160,0.055
1126,-0.140,0.060
1127,-0.120,0.095
1128,-0.100,0.110
1129,-0.110,0.140
1130,-0.100,0.140
1131,-0.110,0.105
1132,-0.100,0.105
1133,-0.065,0.130
1134,-0.060,0.135
1135,-0.005,0.140
1136,0.000,0.170
1137,0.020,0.175
1138,0.015,0.180
1139,0.025,0.175
1140,0.025,0.185
1141,0.055,0.150
1142,0.070,0.135
1143,0.055,0.130
1144,0.070,0.155
1145,0.060,0.135
1146,0.040,0.135
1147,0.020,0.110
1148,-0.010,0.095
1149,-0.040,0.080
1150,-0.040,0.090
1151,-0.065,0.090
1152,-0.050,0.060
1153,-0.080,0.080
1154,-0.120,0.075
1155,-0.135,0.065
1156,-0.155,0.040
1157,-0.175,0.045
1158,-0.190,0.005
1159,-0.195,0.010
1160,-0.200,0.030
1161,-0.215,0.020
1162,-0.245,-0.005
1163,-0.260,-0.010
1164,-0.280,0.000
1165,-0.320,-0.055
1166,-0.350,-0.045
1167,-0.375,-0.040
1168,-0.380,-0.035
1169,-0.375,-0.055
1170,-0.400,-0.030
1171,-0.405,-0.025
1172,-0.425,-0.040
1173,-0.450,-0.070
1174,-0.455,-0.060
1175,-0.455,-0.080
1176,-0.440,-0.060
1177,-0.435,-0.040
1178,-0.440,-0.035
1179,-0.465,-0.045
1180,-0.475,-0.035
1181,-0.490,-0.050
1182,-0.465,-0.065
1183,-0.490,-0.075
1184,-0.495,-0.065
1185,-0.470,-0.050
1186,-0.465,-0.050
1187,-0.495,-0.045
1188,-0.490,-0.050
1189,-0.500,-0.070
1190,-0.510,-0.075
1191,-0.525,-0.070
1192,-0.535,-0.095
1193,-0.495,-0.065
1194,-0.495,-0.070
1195,-0.490,-0.040
1196,-0.505,-0.020
1197,-0.520,-0.050
1198,-0.535,-0.065
1199,-0.525,-0.075
1200,-0.530,-0.060
1201,-0.515,-0.060
1202,-0.495,-0.055
1203,-0.485,-0.035
1204,-0.495,-0.030
1205,-0.480,-0.070
1206,-0.480,-0.095
1207,-0.495,-0.115
1208,-0.500,-0.160
1209,-0.535,-0.230
1210,-0.530,-0.245
1211,-0.610,-0.235
1212,-0.670,-0.270
1213,-0.770,-0.295
1214,-0.865,-0.325
1215,-0.955,-0.340
1216,-1.015,-0.360
1217,-1.035,-0.360
1218,-1.040,-0.355
1219,-1.040,-0.350
1220,-1.045,-0.325
1221,-1.065,-0.315
1222,-1.095,-0.330
1223,-1.095,-0.335
1224,-1.095,-0.350
1225,-1.075,-0.335
1226,-1.055,-0.310
1227,-1.040,-0.280
1228,-1.015,-0.230
1229,-1.005,-0.200
1230,-1.005,-0.175
1231,-0.980,-0.195
1232,-0.930,-0.160
1233,-0.895,-0.155
1234,-0.825,-0.125
1235,-0.775,-0.115
1236,-0.710,-0.090
1237,-0.655,-0.075
1238,-0.630,-0.055
1239,-0.620,-0.050
1240,-0.605,-0.040
1241,-0.575,-0.040
1242,-0.550,-0.025
1243,-0.485,-0.030
1244,-0.460,0.000
1245,-0.480,-0.010
1246,-0.460,0.010
1247,-0.460,0.005
1248,-0.465,0.005
1249,-0.455,0.000
1250,-0.405,0.015
1251,-0.385,0.045
1252,-0.345,0.065
1253,-0.350,0.045
1254,-0.330,0.095
1255,-0.340,0.085
1256,-0.330,0.060
1257,-0.335,0.065
1258,-0.305,0.075
1259,-0.270,0.080
1260,-0.240,0.075
1261,-0.225,0.125
1262,-0.240,0.120
1263,-0.210,0.110
1264,-0.215,0.110
1265,-0.225,0.125
1266,-0.210,0.085
1267,-0.175,0.095
1268,-0.155,0.120
1269,-0.125,0.135
1270,-0.105,0.155
1271,-0.105,0.165
1272,-0.085,0.165
1273,-0.100,0.135
1274,-0.075,0.120
1275,-0.075,0.135
1276,-0.015,0.155
1277,0.020,0.150
1278,0.030,0.155
1279,0.020,0.135
1280,0.010,0.145
1281,0.000,0.135
1282,-0.020,0.095
1283,-0.005,0.105
1284,-0.010,0.110
1285,-0.015,0.100
1286,-0.005,0.085
1287,-0.040,0.045
1288,-0.085,0.005
1289,-0.120,-0.040
1290,-0.210,-0.060
1291,-0.280,-0.110
1292,-0.350,-0.150
1293,-0.370,-0.190
1294,-0.455,-0.230
1295,-0.515,-0.270
1296,-0.630,-0.315
1297,-0.770,-0.355
1298,-0.890,-0.400
1299,-0.970,-0.410
1300,-1.040,-0.445
1301,-1.090,-0.440
1302,-1.105,-0.435
1303,-1.135,-0.430
1304,-1.185,-0.450
1305,-1.195,-0.460
1306,-1.240,-0.495
1307,-1.260,-0.455
1308,-1.290,-0.445
1309,-1.290,-0.430
1310,-1.260,-0.405
1311,-1.245,-0.370
1312,-1.220,-0.350
1313,-1.205,-0.330
1314,-1.190,-0.340
1315,-1.160,-0.320
1316,-1.150,-0.315
1317,-1.105,-0.295
1318,-1.050,-0.285
1319,-1.040,-0.240
1320,-1.010,-0.215
1321,-1.000,-0.130
1322,-0.990,-0.120
1323,-0.930,-0.090
1324,-0.860,-0.085
1325,-0.800,-0.030
1326,-0.700,-0.010
1327,-0.560,0.020
1328,-0.500,0.070
1329,-0.430,0.075
1330,-0.395,0.110
1331,-0.360,0.075
1332,-0.295,0.100
1333,-0.250,0.120
1334,-0.175,0.145
1335,-0.130,0.170
1336,-0.070,0.195
1337,-0.030,0.220
1338,0.000,0.245
1339,0.000,0.240
1340,0.035,0.240
1341,0.075,0.255
1342,0.115,0.305
1343,0.150,0.300
1344,0.225,0.325
1345,0.235,0.340
1346,0.275,0.335
1347,0.300,0.360
1348,0.310,0.340
1349,0.330,0.350
1350,0.375,0.360
1351,0.415,0.370
1352,0.435,0.350
1353,0.470,0.385
1354,0.475,0.390
1355,0.455,0.385
1356,0.455,0.395
1357,0.445,0.355
1358,0.435,0.330
1359,0.425,0.355
1360,0.425,0.355
1361,0.435,0.365
1362,0.405,0.335
1363,0.380,0.320
1364,0.330,0.305
1365,0.310,0.280
1366,0.280,0.235
1367,0.265,0.230
1368,0.245,0.245
1369,0.225,0.240
1370,0.195,0.215
1371,0.140,0.215
1372,0.100,0.190
1373,0.045,0.185
1374,0.010,0.155
1375,0.010,0.145
1376,-0.005,0.135
1377,-0.020,0.155
1378,-0.035,0.160
1379,-0.065,0.150
1380,-0.100,0.130
1381,-0.130,0.120
1382,-0.135,0.130
1383,-0.140,0.125
1384,-0.135,0.130
1385,-0.120,0.110
1386,-0.135,0.140
1387,-0.150,0.130
1388,-0.160,0.135
1389,-0.200,0.105
1390,-0.220,0.115
1391,-0.210,0.100
1392,-0.160,0.100
1393,-0.160,0.110
1394,-0.155,0.120
1395,-0.155,0.135
1396,-0.165,0.125
1397,-0.215,0.110
1398,-0.210,0.105
1399,-0.215,0.095
1400,-0.210,0.095
1401,-0.190,0.110
1402,-0.160,0.110
1403,-0.185,0.130
1404,-0.180,0.135
1405,-0.200,0.125
1406,-0.210,0.130
1407,-0.200,0.110
1408,-0.215,0.100
1409,-0.185,0.125
1410,-0.150,0.140
1411,-0.135,0.145
1412,-0.135,0.145
1413,-0.140,0.160
1414,-0.145,0.125
1415,-0.140,0.120
1416,-0.150,0.110
1417,-0.125,0.115
1418,-0.100,0.140
1419,-0.095,0.135
1420,-0.125,0.140
1421,-0.120,0.135
1422,-0.140,0.120
1423,-0.170,0.135
1424,-0.180,0.095
1425,-0.170,0.105
1426,-0.175,0.090
1427,-0.155,0.100
1428,-0.175,0.105
1429,-0.200,0.100
1430,-0.210,0.070
1431,-0.235,0.080
1432,-0.255,0.040
1433,-0.270,0.055
1434,-0.250,0.010
1435,-0.265,0.045
1436,-0.285,0.040
1437,-0.295,0.055
1438,-0.315,0.030
1439,-0.355,0.015
1440,-0.390,0.000
1441,-0.420,-0.015
1442,-0.435,-0.010
1443,-0.440,0.000
1444,-0.430,0.000
1445,-0.440,0.000
1446,-0.455,0.015
1447,-0.470,0.005
1448,-0.510,-0.010
1449,-0.505,-0.015
1450,-0.510,-0.030
1451,-0.485,-0.010
1452,-0.480,0.000
1453,-0.505,0.000
1454,-0.500,-0.005
1455,-0.510,-0.015
1456,-0.525,-0.015
1457,-0.555,-0.035
1458,-0.555,-0.045
1459,-0.530,-0.050
1460,-0.525,-0.040
1461,-0.530,-0.015
1462,-0.525,-0.020
1463,-0.550,-0.015
1464,-0.530,-0.015
1465,-0.560,-0.040
1466,-0.570,-0.030
1467,-0.540,-0.045
1468,-0.535,-0.045
1469,-0.510,-0.035
1470,-0.530,-0.015
1471,-0.540,0.000
1472,-0.555,0.000
1473,-0.550,-0.035
1474,-0.520,-0.045
1475,-0.475,-0.060
1476,-0.470,-0.060
1477,-0.485,-0.075
1478,-0.495,-0.100
1479,-0.525,-0.155
1480,-0.565,-0.185
1481,-0.660,-0.230
1482,-0.765,-0.275
1483,-0.870,-0.275
1484,-0.965,-0.285
1485,-1.015,-0.285
1486,-1.075,-0.285
1487,-1.110,-0.290
1488,-1.135,-0.270
1489,-1.190,-0.315
1490,-1.220,-0.320
1491,-1.215,-0.315
1492,-1.220,-0.310
1493,-1.200,-0.310
1494,-1.175,-0.295
1495,-1.170,-0.240
1496,-1.165,-0.240
1497,-1.195,-0.220
1498,-1.185,-0.215
1499,-1.165,-0.220
1500,-1.130,-0.175
1501,-1.065,-0.145
1502,-0.980,-0.120
1503,-0.940,-0.090
1504,-0.885,-0.080
1505,-0.855,-0.065
1506,-0.820,-0.060
1507,-0.825,-0.080
1508,-0.770,-0.045
1509,-0.705,-0.035
1510,-0.690,-0.020
1511,-0.655,-0.010
1512,-0.635,0.005
1513,-0.625,0.035
1514,-0.625,0.015
1515,-0.620,0.020
1516,-0.600,0.000
1517,-0.565,0.000
1518,-0.540,0.020
1519,-0.505,0.055
1520,-0.505,0.055
1521,-0.515,0.060
1522,-0.510,0.070
1523,-0.500,0.070
1524,-0.490,0.050
1525,-0.465,0.060
1526,-0.440,0.080
1527,-0.425,0.105
1528,-0.390,0.125
1529,-0.400,0.125
1530,-0.400,0.115
1531,-0.410,0.110
1532,-0.380,0.105
1533,-0.365,0.115
1534,-0.320,0.130
1535,-0.305,0.145
1536,-0.280,0.140
1537,-0.275,0.170
1538,-0.265,0.155
1539,-0.260,0.160
1540,-0.270,0.145
1541,-0.260,0.130
1542,-0.230,0.160
1543,-0.205,0.165
1544,-0.145,0.185
1545,-0.150,0.200
1546,-0.150,0.185
1547,-0.135,0.190
1548,-0.150,0.195
1549,-0.135,0.190
1550,-0.105,0.195
1551,-0.100,0.205
1552,-0.065,0.190
1553,-0.070,0.175
1554,-0.070,0.175
1555,-0.080,0.160
1556,-0.115,0.165
1557,-0.130,0.145
1558,-0.140,0.145
1559,-0.160,0.155
1560,-0.125,0.150
1561,-0.130,0.155
1562,-0.160,0.125
1563,-0.185,0.135
1564,-0.210,0.120
1565,-0.235,0.120
1566,-0.255,0.105
1567,-0.255,0.100
1568,-0.240,0.115
1569,-0.235,0.125
1570,-0.255,0.100
1571,-0.265,0.115
1572,-0.310,0.075
1573,-0.310,0.080
1574,-0.345,0.055
1575,-0.360,0.035
1576,-0.365,0.065
1577,-0.390,0.035
1578,-0.415,0.055
1579,-0.415,0.055
1580,-0.440,0.050
1581,-0.485,0.015
1582,-0.490,0.025
1583,-0.495,0.020
1584,-0.470,0.030
1585,-0.440,0.050
1586,-0.440,0.045
1587,-0.460,0.045
1588,-0.470,0.025
1589,-0.500,0.060
1590,-0.525,0.045
1591,-0.515,0.020
1592,-0.500,0.040
1593,-0.490,0.035
1594,-0.465,0.055
1595,-0.460,0.045
1596,-0.470,0.055
1597,-0.485,0.060
1598,-0.495,0.045
1599,-0.475,0.025
1600,-0.450,0.055
1601,-0.430,0.055
1602,-0.425,0.075
1603,-0.420,0.060
1604,-0.425,0.075
1605,-0.420,0.065
1606,-0.460,0.050
1607,-0.445,0.055
1608,-0.445,0.050
1609,-0.410,0.055
1610,-0.390,0.085
1611,-0.375,0.105
1612,-0.380,0.115
1613,-0.380,0.090
1614,-0.365,0.085
1615,-0.370,0.050
1616,-0.350,0.045
1617,-0.350,0.005
1618,-0.360,-0.035
1619,-0.375,-0.040
1620,-0.395,-0.100
1621,-0.490,-0.100
1622,-0.595,-0.170
1623,-0.730,-0.180
1624,-0.860,-0.225
1625,-0.940,-0.235
1626,-0.965,-0.225
1627,-0.995,-0.220
1628,-1.010,-0.200
1629,-1.025,-0.210
1630,-1.040,-0.190
1631,-1.060,-0.220
1632,-1.075,-0.220
1633,-1.055,-0.190
1634,-1.035,-0.185
1635,-1.010,-0.160
1636,-0.995,-0.120
1637,-0.995,-0.100
1638,-0.970,-0.060
1639,-0.925,-0.060
1640,-0.870,-0.050
1641,-0.825,-0.020
1642,-0.740,0.005
1643,-0.665,0.015
1644,-0.605,0.045
1645,-0.575,0.065
1646,-0.565,0.065
1647,-0.555,0.060
1648,-0.535,0.050
1649,-0.490,0.065
1650,-0.455,0.075
1651,-0.455,0.095
1652,-0.420,0.115
1653,-0.390,0.145
1654,-0.420,0.135
1655,-0.370,0.120
1656,-0.410,0.120
1657,-0.395,0.125
1658,-0.360,0.135
1659,-0.340,0.170
1660,-0.320,0.165
1661,-0.290,0.180
1662,-0.285,0.180
1663,-0.275,0.190
1664,-0.240,0.175
1665,-0.230,0.180
1666,-0.205,0.195
1667,-0.190,0.200
1668,-0.150,0.220
1669,-0.125,0.250
1670,-0.090,0.260
1671,-0.095,0.270
1672,-0.075,0.255
1673,-0.065,0.270
1674,-0.035,0.265
1675,-0.025,0.275
1676,0.015,0.280
1677,0.070,0.315
1678,0.075,0.310
1679,0.100,0.290
1680,0.095,0.300
1681,0.085,0.295
1682,0.080,0.315
1683,0.115,0.290
1684,0.145,0.305
1685,0.145,0.305
1686,0.150,0.300
1687,0.155,0.280
1688,0.120,0.280
1689,0.090,0.260
1690,0.065,0.260
1691,0.070,0.240
1692,0.075,0.240
1693,0.080,0.250
1694,0.060,0.270
1695,0.060,0.270
1696,0.030,0.230
1697,0.000,0.225
1698,-0.040,0.235
1699,-0.040,0.205
1700,-0.035,0.195
1701,-0.050,0.210
1702,-0.030,0.215
1703,-0.030,0.200
1704,-0.060,0.200
1705,-0.075,0.170
1706,-0.100,0.170
1707,-0.130,0.160
1708,-0.160,0.130
1709,-0.140,0.145
1710,-0.150,0.155
1711,-0.170,0.165
1712,-0.185,0.155
1713,-0.205,0.165
1714,-0.215,0.140
1715,-0.235,0.130
1716,-0.250,0.125
1717,-0.250,0.120
1718,-0.215,0.120
1719,-0.215,0.140
1720,-0.200,0.135
1721,-0.230,0.135
1722,-0.220,0.130
1723,-0.240,0.125
1724,-0.235,0.115
1725,-0.255,0.110
1726,-0.225,0.100
1727,-0.225,0.135
1728,-0.215,0.135
1729,-0.225,0.140
1730,-0.240,0.120
1731,-0.260,0.095
1732,-0.260,0.085
1733,-0.245,0.115
1734,-0.250,0.095
1735,-0.230,0.100
1736,-0.220,0.150
1737,-0.215,0.140
1738,-0.245,0.140
1739,-0.250,0.105
1740,-0.260,0.070
1741,-0.270,0.095
1742,-0.235,0.120
1743,-0.230,0.135
1744,-0.205,0.140
1745,-0.210,0.160
1746,-0.215,0.145
1747,-0.175,0.140
1748,-0.215,0.120
1749,-0.185,0.090
1750,-0.210,0.075
1751,-0.185,0.075
1752,-0.160,0.045
1753,-0.200,0.040
1754,-0.225,-0.020
1755,-0.305,-0.060
1756,-0.410,-0.115
1757,-0.550,-0.145
1758,-0.665,-0.140
1759,-0.730,-0.150
1760,-0.805,-0.145
1761,-0.835,-0.140
1762,-0.860,-0.125
1763,-0.860,-0.130
1764,-0.880,-0.140
1765,-0.900,-0.130
1766,-0.925,-0.150
1767,-0.885,-0.135
1768,-0.845,-0.095
1769,-0.815,-0.080
1770,-0.810,-0.060
1771,-0.810,-0.025
1772,-0.795,-0.015
1773,-0.795,0.000
1774,-0.730,0.005
1775,-0.655,0.015
1776,-0.580,0.050
1777,-0.490,0.070
1778,-0.440,0.105
1779,-0.380,0.120
1780,-0.360,0.105
1781,-0.320,0.120
1782,-0.285,0.125
1783,-0.230,0.130
1784,-0.170,0.135
1785,-0.150,0.155
1786,-0.090,0.175
1787,-0.060,0.195
1788,-0.055,0.175
1789,-0.070,0.175
1790,-0.045,0.180
1791,-0.010,0.195
1792,0.010,0.195
1793,0.055,0.210
1794,0.080,0.250
1795,0.085,0.230
1796,0.100,0.260
1797,0.125,0.235
1798,0.115,0.255
1799,0.115,0.235
1800,0.165,0.255
1801,0.195,0.270
1802,0.245,0.255
1803,0.260,0.290
1804,0.260,0.300
1805,0.290,0.320
1806,0.300,0.310
1807,0.320,0.290
1808,0.335,0.310
1809,0.375,0.315
1810,0.425,0.330
1811,0.460,0.350
1812,0.495,0.345
1813,0.495,0.335
1814,0.520,0.325
1815,0.495,0.335
1816,0.545,0.335
1817,0.555,0.330
1818,0.575,0.340
1819,0.605,0.320
1820,0.620,0.340
1821,0.600,0.330
1822,0.550,0.315
1823,0.530,0.295
1824,0.515,0.290
1825,0.490,0.290
1826,0.480,0.280
1827,0.480,0.295
1828,0.460,0.300
1829,0.420,0.265
1830,0.395,0.280
1831,0.340,0.265
1832,0.315,0.235
1833,0.300,0.240
1834,0.300,0.255
1835,0.300,0.230
1836,0.280,0.225
1837,0.275,0.225
1838,0.230,0.220
1839,0.195,0.195
1840,0.170,0.180
1841,0.125,0.175
1842,0.120,0.160
1843,0.090,0.170
1844,0.070,0.175
1845,0.035,0.170
1846,0.010,0.155
1847,-0.030,0.150
1848,-0.045,0.135
1849,-0.045,0.145
1850,-0.080,0.150
1851,-0.070,0.155
1852,-0.075,0.150
1853,-0.075,0.170
1854,-0.080,0.145
1855,-0.095,0.150
1856,-0.130,0.130
1857,-0.140,0.110
1858,-0.150,0.120
1859,-0.150,0.105
1860,-0.130,0.120
1861,-0.150,0.145
1862,-0.150,0.145
1863,-0.160,0.135
1864,-0.195,0.115
1865,-0.190,0.115
1866,-0.195,0.105
1867,-0.180,0.115
1868,-0.170,0.120
1869,-0.155,0.130
1870,-0.155,0.115
1871,-0.175,0.120
1872,-0.185,0.135
1873,-0.190,0.105
1874,-0.200,0.110
1875,-0.205,0.105
1876,-0.175,0.110
1877,-0.155,0.105
1878,-0.145,0.120
1879,-0.150,0.130
1880,-0.160,0.120
1881,-0.170,0.130
1882,-0.160,0.115
1883,-0.130,0.110
1884,-0.080,0.090
1885,-0.080,0.100
1886,-0.095,0.065
1887,-0.095,0.045
1888,-0.110,0.000
1889,-0.175,-0.060
1890,-0.295,-0.100
1891,-0.400,-0.115
1892,-0.540,-0.100
1893,-0.650,-0.105
1894,-0.735,-0.115
1895,-0.805,-0.135
1896,-0.835,-0.145
1897,-0.870,-0.120
1898,-0.880,-0.155
1899,-0.910,-0.130
1900,-0.895,-0.135
1901,-0.865,-0.110
1902,-0.865,-0.105
1903,-0.815,-0.100
1904,-0.815,-0.065
1905,-0.815,-0.050
1906,-0.835,-0.060
1907,-0.790,-0.015
1908,-0.750,0.010
1909,-0.630,0.025
1910,-0.555,0.030
1911,-0.500,0.045
1912,-0.415,0.080
1913,-0.370,0.075
1914,-0.315,0.080
1915,-0.295,0.095
1916,-0.260,0.090
1917,-0.235,0.115
1918,-0.155,0.120
1919,-0.115,0.120
1920,-0.070,0.120
1921,-0.070,0.130
1922,-0.070,0.140
1923,-0.075,0.140
1924,-0.055,0.125
1925,-0.035,0.135
1926,0.000,0.125
1927,0.020,0.145
1928,0.035,0.150
1929,0.045,0.165
1930,0.035,0.165
1931,0.030,0.150
1932,0.025,0.155
1933,0.050,0.155
1934,0.090,0.155
1935,0.095,0.155
1936,0.120,0.175
1937,0.135,0.185
1938,0.140,0.175
1939,0.130,0.185
1940,0.115,0.175
1941,0.140,0.195
1942,0.180,0.190
1943,0.210,0.200
1944,0.235,0.190
1945,0.245,0.215
1946,0.255,0.230
1947,0.250,0.225
1948,0.270,0.230
1949,0.300,0.235
1950,0.340,0.230
1951,0.340,0.235
1952,0.390,0.240
1953,0.385,0.215
1954,0.400,0.245
1955,0.390,0.225
1956,0.375,0.210
1957,0.340,0.175
1958,0.325,0.185
1959,0.325,0.180
1960,0.335,0.175
1961,0.300,0.200
1962,0.265,0.175
1963,0.225,0.180
1964,0.190,0.155
1965,0.160,0.140
1966,0.115,0.135
1967,0.110,0.140
1968,0.125,0.140
1969,0.110,0.140
1970,0.100,0.130
1971,0.065,0.120
1972,0.030,0.125
1973,0.000,0.115
1974,-0.030,0.085
1975,-0.040,0.095
1976,-0.075,0.105
1977,-0.080,0.105
1978,-0.095,0.085
1979,-0.145,0.100
1980,-0.180,0.085
1981,-0.230,0.075
1982,-0.250,0.080
1983,-0.245,0.055
1984,-0.240,0.070
1985,-0.220,0.045
1986,-0.215,0.075
1987,-0.235,0.065
1988,-0.245,0.075
1989,-0.255,0.040
1990,-0.280,0.055
1991,-0.300,0.045
1992,-0.305,0.035
1993,-0.295,0.045
1994,-0.295,0.065
1995,-0.320,0.065
1996,-0.310,0.050
1997,-0.335,0.050
1998,-0.345,0.035
1999,-0.355,0.015
2000,-0.340,0.005
2001,-0.350,0.025
2002,-0.340,0.045
2003,-0.315,0.025
2004,-0.350,0.025
2005,-0.350,0.055
2006,-0.365,0.035
2007,-0.360,0.030
2008,-0.365,0.010
2009,-0.350,0.015
2010,-0.340,0.020
2011,-0.340,0.055
2012,-0.330,0.055
2013,-0.325,0.060
2014,-0.335,0.040
2015,-0.345,0.035
2016,-0.310,0.050
2017,-0.300,0.030
2018,-0.255,0.025
2019,-0.235,0.015
2020,-0.235,0.000
2021,-0.290,-0.025
2022,-0.330,-0.065
2023,-0.400,-0.115
2024,-0.500,-0.125
2025,-0.625,-0.160
2026,-0.775,-0.165
2027,-0.880,-0.165
2028,-0.980,-0.180
2029,-1.030,-0.180
2030,-1.075,-0.205
2031,-1.125,-0.200
2032,-1.160,-0.205
2033,-1.155,-0.210
2034,-1.150,-0.220
2035,-1.130,-0.185
2036,-1.120,-0.190
2037,-1.125,-0.180
2038,-1.115,-0.175
2039,-1.135,-0.170
2040,-1.125,-0.145
2041,-1.100,-0.160
2042,-1.050,-0.110
2043,-0.985,-0.080
2044,-0.895,-0.080
2045,-0.845,-0.055
2046,-0.785,-0.030
2047,-0.740,-0.025
2048,-0.700,-0.035
2049,-0.640,-0.040
2050,-0.610,-0.035
2051,-0.550,-0.005
2052,-0.510,0.000
2053,-0.470,0.025
2054,-0.445,0.005
2055,-0.420,0.015
2056,-0.415,0.010
2057,-0.405,0.000
2058,-0.400,-0.010
2059,-0.370,0.000
2060,-0.350,0.020
2061,-0.320,0.040
2062,-0.295,0.030
2063,-0.285,0.055
2064,-0.295,0.055
2065,-0.285,0.040
2066,-0.275,0.045
2067,-0.215,0.055
2068,-0.195,0.045
2069,-0.155,0.070
2070,-0.155,0.100
2071,-0.150,0.095
2072,-0.125,0.110
2073,-0.125,0.075
2074,-0.120,0.105
2075,-0.090,0.075
2076,-0.060,0.120
2077,-0.030,0.115
2078,0.000,0.140
2079,0.020,0.150
2080,0.025,0.135
2081,0.040,0.150
2082,0.035,0.125
2083,0.075,0.120
2084,0.115,0.150
2085,0.155,0.130
2086,0.170,0.140
2087,0.170,0.140
2088,0.155,0.145
2089,0.140,0.120
2090,0.120,0.095
2091,0.075,0.075
2092,0.095,0.070
2093,0.070,0.090
2094,0.060,0.105
2095,0.035,0.090
2096,-0.030,0.075
2097,-0.060,0.075
2098,-0.075,0.035
2099,-0.090,0.045
2100,-0.135,0.035
2101,-0.125,0.045
2102,-0.150,0.055
2103,-0.160,0.070
2104,-0.180,0.065
2105,-0.190,0.025
2106,-0.195,-0.005
2107,-0.210,-0.060
2108,-0.225,-0.065
2109,-0.270,-0.090
2110,-0.350,-0.105
2111,-0.470,-0.115
2112,-0.580,-0.140
2113,-0.680,-0.180
2114,-0.800,-0.240
2115,-0.905,-0.275
2116,-0.995,-0.285
2117,-1.085,-0.305
2118,-1.165,-0.325
2119,-1.235,-0.320
2120,-1.270,-0.280
2121,-1.325,-0.320
2122,-1.345,-0.320
2123,-1.395,-0.330
2124,-1.410,-0.355
2125,-1.435,-0.335
2126,-1.420,-0.345
2127,-1.410,-0.330
2128,-1.425,-0.315
2129,-1.415,-0.310
2130,-1.430,-0.320
2131,-1.455,-0.325
2132,-1.465,-0.340
2133,-1.430,-0.340
2134,-1.430,-0.320
2135,-1.405,-0.310
2136,-1.385,-0.290
2137,-1.380,-0.255
2138,-1.375,-0.230
2139,-1.370,-0.235
2140,-1.375,-0.215
2141,-1.330,-0.200
2142,-1.265,-0.170
2143,-1.210,-0.145
2144,-1.100,-0.095
2145,-1.000,-0.075
2146,-0.945,-0.075
2147,-0.865,-0.070
2148,-0.815,-0.060
2149,-0.770,-0.070
2150,-0.735,-0.060
2151,-0.690,-0.030
2152,-0.640,-0.040
2153,-0.605,-0.015
2154,-0.580,0.010
2155,-0.545,0.000
2156,-0.530,-0.010
2157,-0.530,0.030
2158,-0.490,0.015
2159,-0.445,0.015
2160,-0.370,0.045
2161,-0.360,0.075
2162,-0.320,0.080
2163,-0.300,0.085
2164,-0.280,0.080
2165,-0.230,0.080
2166,-0.225,0.060
2167,-0.180,0.085
2168,-0.145,0.105
2169,-0.115,0.135
2170,-0.065,0.135
2171,-0.075,0.135
2172,-0.070,0.135
2173,-0.075,0.125
2174,-0.070,0.120
2175,-0.060,0.090
2176,-0.035,0.095
2177,-0.005,0.105
2178,-0.015,0.125
2179,-0.030,0.115
2180,-0.045,0.130
2181,-0.060,0.100
2182,-0.055,0.090
2183,-0.060,0.085
2184,-0.045,0.095
2185,-0.040,0.105
2186,-0.020,0.090
2187,-0.025,0.085
2188,-0.030,0.060
2189,-0.070,0.025
2190,-0.105,0.005
2191,-0.175,-0.040
2192,-0.245,-0.090
2193,-0.305,-0.120
2194,-0.380,-0.140
2195,-0.440,-0.175
2196,-0.560,-0.200
2197,-0.690,-0.245
2198,-0.870,-0.305
2199,-1.005,-0.325
2200,-1.125,-0.340
2201,-1.200,-0.355
2202,-1.240,-0.335
2203,-1.270,-0.350
2204,-1.295,-0.340
2205,-1.325,-0.345
2206,-1.355,-0.345
2207,-1.360,-0.365
2208,-1.375,-0.345
2209,-1.365,-0.340
2210,-1.325,-0.310
2211,-1.310,-0.310
2212,-1.315,-0.275
2213,-1.320,-0.275
2214,-1.310,-0.265
2215,-1.305,-0.260
2216,-1.260,-0.275
2217,-1.215,-0.250
2218,-1.175,-0.220
2219,-1.135,-0.190
2220,-1.090,-0.190
2221,-1.095,-0.175
2222,-1.070,-0.155
2223,-1.070,-0.160
2224,-1.035,-0.125
2225,-0.995,-0.095
2226,-0.915,-0.060
2227,-0.815,-0.010
2228,-0.700,0.040
2229,-0.630,0.050
2230,-0.530,0.055
2231,-0.430,0.075
2232,-0.310,0.080
2233,-0.205,0.080
2234,-0.150,0.120
2235,-0.045,0.140
2236,0.000,0.165
2237,0.035,0.155
2238,0.060,0.195
2239,0.090,0.170
2240,0.130,0.190
2241,0.175,0.200
2242,0.220,0.190
2243,0.290,0.220
2244,0.325,0.220
2245,0.345,0.235
2246,0.360,0.235
2247,0.355,0.230
2248,0.350,0.245
2249,0.355,0.200
2250,0.375,0.225
2251,0.405,0.220
2252,0.405,0.220
2253,0.415,0.230
2254,0.415,0.250
2255,0.410,0.235
2256,0.385,0.215
2257,0.385,0.195
2258,0.360,0.180
2259,0.355,0.175
2260,0.355,0.175
2261,0.345,0.190
2262,0.310,0.165
2263,0.290,0.150
2264,0.265,0.135
2265,0.195,0.130
2266,0.190,0.110
2267,0.160,0.095
2268,0.150,0.090
2269,0.100,0.075
2270,0.060,0.085
2271,0.015,0.080
2272,-0.020,0.050
2273,-0.055,0.030
2274,-0.110,0.020
2275,-0.140,0.010
2276,-0.175,-0.020
2277,-0.180,-0.015
2278,-0.230,0.015
2279,-0.260,-0.010
2280,-0.280,-0.020
2281,-0.335,-0.040
2282,-0.370,-0.045
2283,-0.375,-0.075
2284,-0.395,-0.040
2285,-0.415,-0.040
2286,-0.430,-0.040
2287,-0.460,-0.040
2288,-0.445,-0.030
2289,-0.460,-0.060
2290,-0.500,-0.090
2291,-0.520,-0.080
2292,-0.510,-0.115
2293,-0.525,-0.095
2294,-0.490,-0.090
2295,-0.490,-0.070
2296,-0.535,-0.075
2297,-0.540,-0.105
2298,-0.550,-0.100
2299,-0.540,-0.130
2300,-0.535,-0.115
2301,-0.505,-0.095
2302,-0.515,-0.100
2303,-0.525,-0.105
2304,-0.525,-0.120
2305,-0.500,-0.130
2306,-0.545,-0.155
2307,-0.565,-0.210
2308,-0.600,-0.235
2309,-0.645,-0.275
2310,-0.680,-0.275
2311,-0.750,-0.285
2312,-0.810,-0.315
2313,-0.930,-0.335
2314,-1.035,-0.345
2315,-1.145,-0.385
2316,-1.170,-0.380
2317,-1.205,-0.355
2318,-1.200,-0.365
2319,-1.205,-0.360
2320,-1.220,-0.340
2321,-1.235,-0.325
2322,-1.235,-0.360
2323,-1.250,-0.360
2324,-1.250,-0.355
2325,-1.260,-0.355
2326,-1.220,-0.320
2327,-1.180,-0.305
2328,-1.170,-0.280
2329,-1.170,-0.240
2330,-1.130,-0.225
2331,-1.115,-0.235
2332,-1.095,-0.220
2333,-1.035,-0.220
2334,-0.980,-0.175
2335,-0.885,-0.145
2336,-0.800,-0.135
2337,-0.755,-0.095
2338,-0.690,-0.125
2339,-0.670,-0.115
2340,-0.620,-0.120
2341,-0.595,-0.105
2342,-0.550,-0.105
2343,-0.505,-0.090
2344,-0.465,-0.055
2345,-0.455,-0.050
2346,-0.425,-0.055
2347,-0.415,-0.075
2348,-0.420,-0.060
2349,-0.390,-0.060
2350,-0.375,-0.075
2351,-0.350,-0.040
2352,-0.310,-0.020
2353,-0.260,-0.020
2354,-0.225,0.000
2355,-0.210,0.000
2356,-0.195,-0.005
2357,-0.170,0.010
2358,-0.130,-0.015
2359,-0.130,-0.010
2360,-0.095,0.005
2361,-0.045,0.030
2362,-0.055,0.035
2363,-0.060,0.020
2364,-0.040,0.035
2365,-0.055,0.005
2366,-0.030,0.005
2367,-0.020,0.000
2368,0.005,0.000
2369,0.040,0.025
2370,0.035,0.040
2371,0.010,0.035
2372,0.020,0.000
2373,-0.005,0.015
2374,-0.020,-0.035
2375,0.000,-0.040
2376,-0.020,-0.025
2377,-0.010,-0.055
2378,-0.045,-0.040
2379,-0.055,-0.055
2380,-0.120,-0.055
2381,-0.190,-0.080
2382,-0.245,-0.105
2383,-0.290,-0.100
2384,-0.295,-0.080
2385,-0.310,-0.100
2386,-0.315,-0.105
2387,-0.345,-0.140
2388,-0.380,-0.160
2389,-0.440,-0.195
2390,-0.495,-0.220
2391,-0.565,-0.250
2392,-0.640,-0.280
2393,-0.715,-0.295
2394,-0.765,-0.335
2395,-0.865,-0.380
2396,-0.970,-0.385
2397,-1.085,-0.415
2398,-1.220,-0.430
2399,-1.280,-0.475
2400,-1.330,-0.455
2401,-1.340,-0.460
2402,-1.335,-0.455
2403,-1.370,-0.460
2404,-1.355,-0.450
2405,-1.350,-0.450
2406,-1.390,-0.455
2407,-1.395,-0.450
2408,-1.415,-0.440
2409,-1.405,-0.425
2410,-1.345,-0.415
2411,-1.325,-0.410
2412,-1.320,-0.395
2413,-1.300,-0.395
2414,-1.290,-0.400
2415,-1.270,-0.390
2416,-1.275,-0.355
2417,-1.245,-0.385
2418,-1.205,-0.325
2419,-1.155,-0.320
2420,-1.145,-0.290
2421,-1.125,-0.295
2422,-1.095,-0.260
2423,-1.075,-0.235
2424,-1.020,-0.205
2425,-0.925,-0.190
2426,-0.840,-0.160
2427,-0.730,-0.145
2428,-0.615,-0.095
2429,-0.530,-0.100
2430,-0.460,-0.095
2431,-0.435,-0.085
2432,-0.395,-0.070
2433,-0.345,-0.065
2434,-0.265,-0.070
2435,-0.195,-0.030
2436,-0.155,0.000
2437,-0.095,0.010
2438,-0.085,0.010
2439,-0.055,0.020
2440,-0.030,0.020
2441,-0.005,0.010
2442,0.060,0.025
2443,0.095,0.065
2444,0.165,0.060
2445,0.175,0.085
2446,0.205,0.100
2447,0.235,0.085
2448,0.245,0.070
2449,0.265,0.075
2450,0.290,0.055
2451,0.345,0.090
2452,0.375,0.105
2453,0.380,0.095
2454,0.365,0.110
2455,0.370,0.090
2456,0.340,0.075
2457,0.330,0.060
2458,0.305,0.085
2459,0.335,0.050
2460,0.335,0.085
2461,0.340,0.085
2462,0.325,0.065
2463,0.315,0.045
2464,0.280,0.055
2465,0.245,0.025
2466,0.210,0.060
2467,0.195,0.025
2468,0.220,0.040
2469,0.190,0.065
2470,0.180,0.060
2471,0.150,0.030
2472,0.105,0.010
2473,0.050,0.000
2474,0.045,-0.015
2475,0.005,-0.020
2476,0.010,-0.015
2477,-0.035,0.010
2478,-0.055,-0.005
2479,-0.100,0.000
2480,-0.085,-0.025
2481,-0.135,-0.035
2482,-0.140,-0.045
2483,-0.170,-0.040
2484,-0.190,-0.025
2485,-0.160,-0.025
2486,-0.155,0.005
2487,-0.175,0.000
2488,-0.170,0.015
2489,-0.170,0.000
2490,-0.160,-0.005
2491,-0.170,-0.020
2492,-0.160,0.005
2493,-0.130,0.025
2494,-0.110,0.025
2495,-0.105,0.015
2496,-0.090,0.020
2497,-0.095,-0.005
2498,-0.090,-0.010
2499,-0.130,-0.015
2500,-0.120,-0.020
2501,-0.095,0.005
2502,-0.110,0.005
2503,-0.130,0.020
2504,-0.085,0.005
2505,-0.115,0.000
2506,-0.145,-0.030
2507,-0.160,-0.010
2508,-0.155,-0.025
2509,-0.175,-0.010
2510,-0.155,0.000
2511,-0.185,-0.020
2512,-0.195,-0.020
2513,-0.190,-0.025
2514,-0.255,-0.040
2515,-0.275,-0.080
2516,-0.300,-0.070
2517,-0.315,-0.095
2518,-0.325,-0.060
2519,-0.310,-0.060
2520,-0.360,-0.070
2521,-0.405,-0.085
2522,-0.440,-0.090
2523,-0.455,-0.085
2524,-0.470,-0.130
2525,-0.460,-0.110
2526,-0.475,-0.110
2527,-0.470,-0.115
2528,-0.465,-0.095
2529,-0.490,-0.110
2530,-0.535,-0.100
2531,-0.545,-0.130
2532,-0.580,-0.120
2533,-0.585,-0.125
2534,-0.580,-0.110
2535,-0.555,-0.120
2536,-0.575,-0.100
2537,-0.595,-0.120
2538,-0.585,-0.115
2539,-0.615,-0.145
2540,-0.630,-0.140
2541,-0.645,-0.145
2542,-0.635,-0.130
2543,-0.620,-0.110
2544,-0.605,-0.120
2545,-0.615,-0.130
2546,-0.630,-0.110
2547,-0.635,-0.115
2548,-0.660,-0.160
2549,-0.650,-0.140
2550,-0.640,-0.135
2551,-0.640,-0.105
2552,-0.595,-0.110
2553,-0.595,-0.115
2554,-0.585,-0.120
2555,-0.545,-0.130
2556,-0.585,-0.150
2557,-0.605,-0.205
2558,-0.620,-0.220
2559,-0.615,-0.245
2560,-0.715,-0.280
2561,-0.790,-0.295
2562,-0.910,-0.285
2563,-1.040,-0.320
2564,-1.140,-0.350
2565,-1.185,-0.370
2566,-1.180,-0.370
2567,-1.190,-0.345
2568,-1.210,-0.340
2569,-1.205,-0.335
2570,-1.205,-0.300
2571,-1.220,-0.330
2572,-1.205,-0.315
2573,-1.220,-0.310
2574,-1.200,-0.295
2575,-1.195,-0.290
2576,-1.150,-0.235
2577,-1.125,-0.215
2578,-1.070,-0.195
2579,-1.005,-0.150
2580,-0.970,-0.150
2581,-0.905,-0.160
2582,-0.850,-0.135
2583,-0.795,-0.125
2584,-0.720,-0.115
2585,-0.685,-0.080
2586,-0.645,-0.060
2587,-0.620,-0.070
2588,-0.600,-0.065
2589,-0.590,-0.075
2590,-0.575,-0.065
2591,-0.535,-0.065
2592,-0.515,-0.045
2593,-0.470,-0.035
2594,-0.465,-0.030
2595,-0.450,-0.020
2596,-0.470,-0.020
2597,-0.445,-0.010
2598,-0.440,-0.015
2599,-0.415,-0.020
2600,-0.405,-0.020
2601,-0.370,0.000
2602,-0.355,0.030
2603,-0.355,0.055
2604,-0.340,0.045
2605,-0.320,0.045
2606,-0.345,0.025
2607,-0.310,0.035
2608,-0.280,0.045
2609,-0.255,0.055
2610,-0.220,0.085
2611,-0.205,0.090
2612,-0.195,0.090
2613,-0.190,0.095
2614,-0.190,0.115
2615,-0.150,0.095
2616,-0.115,0.105
2617,-0.080,0.145
2618,-0.035,0.165
2619,-0.010,0.155
2620,0.005,0.170
2621,0.015,0.180
2622,0.005,0.160
2623,0.020,0.150
2624,0.035,0.170
2625,0.060,0.155
2626,0.095,0.175
2627,0.100,0.185
2628,0.120,0.190
2629,0.105,0.185
2630,0.085,0.175
2631,0.080,0.140
2632,0.055,0.140
2633,0.065,0.145
2634,0.050,0.135
2635,0.055,0.130
2636,0.055,0.150
2637,0.040,0.135
2638,0.000,0.135
2639,-0.035,0.120
2640,-0.050,0.105
2641,-0.060,0.115
2642,-0.075,0.135
2643,-0.050,0.125
2644,-0.050,0.115
2645,-0.075,0.130
2646,-0.095,0.115
2647,-0.140,0.105
2648,-0.150,0.070
2649,-0.160,0.080
2650,-0.180,0.060
2651,-0.165,0.085
2652,-0.195,0.075
2653,-0.210,0.070
2654,-0.235,0.065
2655,-0.275,0.060
2656,-0.280,0.045
2657,-0.290,0.035
2658,-0.305,0.040
2659,-0.280,0.065
2660,-0.265,0.070
2661,-0.260,0.070
2662,-0.295,0.080
2663,-0.315,0.050
2664,-0.335,0.060
2665,-0.340,0.030
2666,-0.340,0.050
2667,-0.320,0.060
2668,-0.270,0.085
2669,-0.285,0.100
2670,-0.310,0.080
2671,-0.335,0.075
2672,-0.320,0.065
2673,-0.360,0.070
2674,-0.360,0.080
2675,-0.375,0.070
2676,-0.345,0.070
2677,-0.320,0.065
2678,-0.310,0.080
2679,-0.305,0.075
2680,-0.315,0.080
2681,-0.320,0.065
2682,-0.340,0.070
2683,-0.320,0.070
2684,-0.300,0.080
2685,-0.275,0.120
2686,-0.280,0.125
2687,-0.265,0.115
2688,-0.265,0.115
2689,-0.265,0.120
2690,-0.250,0.095
2691,-0.225,0.115
2692,-0.215,0.100
2693,-0.170,0.105
2694,-0.180,0.065
2695,-0.195,0.030
2696,-0.215,-0.010
2697,-0.265,-0.060
2698,-0.345,-0.085
2699,-0.455,-0.130
2700,-0.565,-0.125
2701,-0.650,-0.145
2702,-0.725,-0.115
2703,-0.775,-0.115
2704,-0.815,-0.140
2705,-0.830,-0.135
2706,-0.865,-0.140
2707,-0.870,-0.130
2708,-0.845,-0.155
2709,-0.860,-0.120
2710,-0.845,-0.100
2711,-0.795,-0.075
2712,-0.780,-0.065
2713,-0.800,-0.040
2714,-0.790,0.000
2715,-0.745,0.010
2716,-0.675,0.030
2717,-0.575,0.025
2718,-0.510,0.080
2719,-0.420,0.090
2720,-0.375,0.125
2721,-0.335,0.140
2722,-0.305,0.140
2723,-0.240,0.155
2724,-0.210,0.155
2725,-0.175,0.160
2726,-0.125,0.180
2727,-0.075,0.205
2728,-0.060,0.200
2729,-0.050,0.220
2730,-0.050,0.215
2731,-0.050,0.205
2732,-0.025,0.215
2733,-0.005,0.195
2734,0.025,0.245
2735,0.055,0.255
2736,0.090,0.270
2737,0.090,0.275
2738,0.070,0.260
2739,0.075,0.280
2740,0.085,0.255
2741,0.090,0.265
2742,0.125,0.285
2743,0.155,0.290
2744,0.165,0.325
2745,0.200,0.345
2746,0.195,0.335
2747,0.205,0.340
2748,0.210,0.330
2749,0.225,0.330
2750,0.275,0.360
2751,0.285,0.345
2752,0.330,0.380
2753,0.340,0.375
2754,0.340,0.390
2755,0.335,0.390
2756,0.345,0.370
2757,0.350,0.355
2758,0.360,0.360
2759,0.375,0.365
2760,0.405,0.370
2761,0.415,0.390
2762,0.415,0.350
2763,0.390,0.350
2764,0.385,0.350
2765,0.380,0.315
2766,0.350,0.330
2767,0.325,0.325
2768,0.335,0.355
2769,0.350,0.340
2770,0.320,0.330
2771,0.315,0.315
2772,0.275,0.280
2773,0.270,0.260
2774,0.280,0.235
2775,0.285,0.215
2776,0.295,0.180
2777,0.235,0.150
2778,0.185,0.075
2779,0.080,0.030
2780,0.010,-0.020
2781,-0.125,-0.085
2782,-0.275,-0.155
2783,-0.440,-0.165
2784,-0.570,-0.165
2785,-0.670,-0.155
2786,-0.745,-0.195
2787,-0.805,-0.185
2788,-0.830,-0.210
2789,-0.895,-0.210
2790,-0.930,-0.200
2791,-0.955,-0.225
2792,-0.955,-0.200
2793,-0.920,-0.205
2794,-0.925,-0.160
2795,-0.920,-0.165
2796,-0.910,-0.145
2797,-0.915,-0.165
2798,-0.885,-0.150
2799,-0.855,-0.140
2800,-0.805,-0.145
2801,-0.780,-0.100
2802,-0.725,-0.080
2803,-0.710,-0.075
2804,-0.715,-0.050
2805,-0.705,-0.035
2806,-0.715,-0.035
2807,-0.680,0.000
2808,-0.670,0.030
2809,-0.585,0.065
2810,-0.545,0.120
2811,-0.465,0.160
2812,-0.400,0.195
2813,-0.300,0.225
2814,-0.195,0.245
2815,-0.125,0.245
2816,-0.025,0.280
2817,0.080,0.285
2818,0.150,0.340
2819,0.185,0.360
2820,0.235,0.395
2821,0.260,0.390
2822,0.280,0.395
2823,0.325,0.390
2824,0.345,0.410
2825,0.400,0.415
2826,0.470,0.440
2827,0.515,0.495
2828,0.550,0.525
2829,0.590,0.525
2830,0.620,0.535
2831,0.615,0.510
2832,0.645,0.535
2833,0.685,0.550
2834,0.730,0.545
2835,0.775,0.575
2836,0.780,0.590
2837,0.835,0.605
2838,0.825,0.595
2839,0.795,0.565
2840,0.840,0.555
2841,0.845,0.565
2842,0.860,0.570
2843,0.890,0.545
2844,0.870,0.580
2845,0.870,0.575
2846,0.840,0.535
2847,0.805,0.520
2848,0.790,0.520
2849,0.770,0.480
2850,0.760,0.470
2851,0.755,0.460
2852,0.765,0.480
2853,0.750,0.500
2854,0.710,0.480
2855,0.685,0.460
2856,0.635,0.425
2857,0.620,0.425
2858,0.620,0.395
2859,0.590,0.400
2860,0.595,0.405
2861,0.570,0.395
2862,0.530,0.385
2863,0.510,0.375
2864,0.485,0.355
2865,0.460,0.335
2866,0.445,0.320
2867,0.440,0.315
2868,0.430,0.370
2869,0.420,0.375
2870,0.410,0.335
2871,0.405,0.335
2872,0.355,0.305
2873,0.375,0.295
2874,0.365,0.290
2875,0.375,0.285
2876,0.375,0.305
2877,0.400,0.315
2878,0.385,0.300
2879,0.360,0.320
2880,0.365,0.285
2881,0.325,0.290
2882,0.335,0.300
2883,0.355,0.300
2884,0.355,0.300
2885,0.365,0.305
2886,0.380,0.305
2887,0.370,0.325
2888,0.355,0.330
2889,0.335,0.300
2890,0.330,0.290
2891,0.335,0.290
2892,0.380,0.280
2893,0.410,0.285
2894,0.430,0.335
2895,0.415,0.340
2896,0.435,0.310
2897,0.405,0.305
2898,0.390,0.275
2899,0.380,0.285
2900,0.405,0.290
2901,0.400,0.280
2902,0.410,0.290
2903,0.375,0.290
2904,0.370,0.275
2905,0.345,0.255
2906,0.320,0.220
2907,0.305,0.225
2908,0.325,0.235
2909,0.300,0.250
2910,0.320,0.245
2911,0.310,0.240
2912,0.270,0.240
2913,0.260,0.220
2914,0.225,0.190
2915,0.200,0.170
2916,0.180,0.185
2917,0.175,0.180
2918,0.150,0.190
2919,0.135,0.175
2920,0.075,0.165
2921,0.050,0.140
2922,0.025,0.130
2923,-0.005,0.090
2924,-0.025,0.110
2925,-0.035,0.105
2926,-0.045,0.105
2927,-0.035,0.125
2928,-0.035,0.115
2929,-0.060,0.095
2930,-0.090,0.095
2931,-0.105,0.080
2932,-0.135,0.050
2933,-0.135,0.070
2934,-0.115,0.070
2935,-0.125,0.060
2936,-0.125,0.085
2937,-0.155,0.080
2938,-0.175,0.060
2939,-0.190,0.040
2940,-0.195,0.040
2941,-0.185,0.040
2942,-0.190,0.045
2943,-0.185,0.060
2944,-0.170,0.080
2945,-0.170,0.070
2946,-0.175,0.055
2947,-0.210,0.040
2948,-0.200,0.030
2949,-0.220,0.025
2950,-0.220,0.025
2951,-0.180,0.055
2952,-0.180,0.075
2953,-0.175,0.070
2954,-0.160,0.075
2955,-0.205,0.070
2956,-0.200,0.055
2957,-0.190,0.050
2958,-0.155,0.045
2959,-0.135,0.085
2960,-0.080,0.065
2961,-0.095,0.045
2962,-0.090,0.005
2963,-0.100,-0.065
2964,-0.160,-0.100
2965,-0.220,-0.165
2966,-0.305,-0.170
2967,-0.405,-0.190
2968,-0.520,-0.200
2969,-0.640,-0.190
2970,-0.690,-0.210
2971,-0.750,-0.220
2972,-0.785,-0.225
2973,-0.820,-0.220
2974,-0.855,-0.230
2975,-0.870,-0.225
2976,-0.840,-0.220
2977,-0.815,-0.195
2978,-0.790,-0.155
2979,-0.780,-0.140
2980,-0.785,-0.165
2981,-0.800,-0.125
2982,-0.770,-0.105
2983,-0.735,-0.080
2984,-0.665,-0.045
2985,-0.590,-0.025
2986,-0.540,0.005
2987,-0.470,0.025
2988,-0.410,0.010
2989,-0.380,0.025
2990,-0.340,0.020
2991,-0.290,0.040
2992,-0.260,0.065
2993,-0.200,0.090
2994,-0.160,0.100
2995,-0.145,0.075
2996,-0.120,0.090
2997,-0.110,0.110
2998,-0.120,0.095
2999,-0.070,0.095
3000,-0.050,0.105
3001,-0.030,0.115
3002,-0.025,0.140
3003,-0.015,0.110
3004,-0.005,0.130
3005,-0.010,0.125
3006,-0.020,0.135
3007,-0.015,0.125
3008,0.000,0.145
3009,0.040,0.135
3010,0.060,0.145
3011,0.080,0.175
3012,0.075,0.150
3013,0.065,0.150
3014,0.045,0.155
3015,0.045,0.150
3016,0.065,0.155
3017,0.105,0.145
3018,0.120,0.195
3019,0.155,0.185
3020,0.140,0.195
3021,0.155,0.205
3022,0.155,0.200
3023,0.150,0.190
3024,0.170,0.200
3025,0.195,0.220
3026,0.230,0.210
3027,0.240,0.240
3028,0.260,0.240
3029,0.275,0.225
3030,0.290,0.220
3031,0.245,0.195
3032,0.280,0.175
3033,0.270,0.175
3034,0.280,0.185
3035,0.265,0.205
3036,0.270,0.160
3037,0.250,0.185
3038,0.215,0.160
3039,0.185,0.130
3040,0.150,0.095
3041,0.140,0.115
3042,0.140,0.110
3043,0.110,0.110
3044,0.110,0.130
3045,0.075,0.105
3046,0.055,0.115
3047,0.030,0.105
3048,0.010,0.075
3049,0.000,0.065
3050,-0.010,0.060
3051,-0.030,0.045
3052,-0.025,0.055
3053,-0.035,0.050
3054,-0.095,0.045
3055,-0.130,0.020
3056,-0.160,0.020
3057,-0.195,0.000
3058,-0.235,0.000
3059,-0.225,-0.005
3060,-0.205,0.000
3061,-0.205,0.010
3062,-0.240,0.005
3063,-0.265,-0.010
3064,-0.275,-0.035
3065,-0.300,-0.025
3066,-0.280,-0.015
3067,-0.265,-0.020
3068,-0.255,-0.010
3069,-0.250,0.000
3070,-0.295,0.030
3071,-0.295,-0.010
3072,-0.335,-0.005
3073,-0.315,-0.025
3074,-0.325,-0.025
3075,-0.305,0.010
3076,-0.280,-0.010
3077,-0.270,0.000
3078,-0.245,0.005
3079,-0.275,0.015
3080,-0.285,-0.020
3081,-0.310,-0.025
3082,-0.310,-0.020
3083,-0.315,-0.025
3084,-0.300,0.000
3085,-0.270,-0.010
3086,-0.260,0.005
3087,-0.280,0.005
3088,-0.290,-0.010
3089,-0.300,-0.015
3090,-0.310,-0.035
3091,-0.325,-0.020
3092,-0.295,0.000
3093,-0.265,0.000
3094,-0.275,0.025
3095,-0.240,0.000
3096,-0.235,0.000
3097,-0.250,-0.020
3098,-0.255,-0.040
3099,-0.275,-0.085
3100,-0.275,-0.130
3101,-0.280,-0.170
3102,-0.335,-0.190
3103,-0.400,-0.255
3104,-0.525,-0.245
3105,-0.685,-0.285
3106,-0.805,-0.300
3107,-0.865,-0.315
3108,-0.890,-0.295
3109,-0.915,-0.305
3110,-0.930,-0.305
3111,-0.955,-0.285
3112,-0.990,-0.295
3113,-1.005,-0.310
3114,-1.025,-0.300
3115,-1.010,-0.330
3116,-1.005,-0.305
3117,-0.975,-0.285
3118,-0.950,-0.265
3119,-0.945,-0.205
3120,-0.950,-0.220
3121,-0.920,-0.200
3122,-0.905,-0.200
3123,-0.880,-0.190
3124,-0.835,-0.175
3125,-0.795,-0.140
3126,-0.720,-0.090
3127,-0.670,-0.075
3128,-0.635,-0.070
3129,-0.600,-0.080
3130,-0.560,-0.080
3131,-0.530,-0.090
3132,-0.520,-0.090
3133,-0.490,-0.080
3134,-0.435,-0.035
3135,-0.400,-0.050
3136,-0.375,-0.025
3137,-0.380,-0.020
3138,-0.375,-0.025
3139,-0.395,-0.020
3140,-0.390,-0.025
3141,-0.345,-0.030
3142,-0.335,-0.015
3143,-0.300,0.005
3144,-0.280,0.015
3145,-0.265,0.005
3146,-0.265,0.015
3147,-0.265,0.000
3148,-0.280,0.000
3149,-0.235,0.015
3150,-0.235,0.005
3151,-0.215,0.040
3152,-0.190,0.040
3153,-0.160,0.060
3154,-0.190,0.060
3155,-0.165,0.045
3156,-0.160,0.065
3157,-0.150,0.075
3158,-0.155,0.065
3159,-0.105,0.080
3160,-0.080,0.105
3161,-0.025,0.120
3162,-0.040,0.125
3163,-0.010,0.115
3164,-0.020,0.105
3165,0.000,0.090
3166,0.025,0.095
3167,0.055,0.115
3168,0.065,0.095
3169,0.070,0.125
3170,0.070,0.110
3171,0.060,0.075
3172,0.035,0.070
3173,0.010,0.055
3174,-0.010,0.030
3175,-0.010,0.030
3176,0.000,0.030
3177,-0.015,0.060
3178,-0.005,0.060
3179,-0.045,0.025
3180,-0.050,0.030
3181,-0.080,0.000
3182,-0.100,-0.025
3183,-0.105,-0.040
3184,-0.080,-0.050
3185,-0.090,-0.055
3186,-0.100,-0.095
3187,-0.160,-0.145
3188,-0.205,-0.230
3189,-0.290,-0.285
3190,-0.380,-0.355
3191,-0.465,-0.405
3192,-0.605,-0.430
3193,-0.730,-0.420
3194,-0.880,-0.460
3195,-1.000,-0.465
3196,-1.085,-0.470
3197,-1.150,-0.490
3198,-1.200,-0.505
3199,-1.205,-0.520
3200,-1.200,-0.500
3201,-1.215,-0.465
3202,-1.210,-0.445
3203,-1.210,-0.455
3204,-1.210,-0.430
3205,-1.215,-0.455
3206,-1.200,-0.430
3207,-1.200,-0.440
3208,-1.170,-0.430
3209,-1.130,-0.405
3210,-1.095,-0.405
3211,-1.115,-0.400
3212,-1.095,-0.365
3213,-1.115,-0.370
3214,-1.110,-0.370
3215,-1.130,-0.350
3216,-1.100,-0.320
3217,-1.065,-0.270
3218,-1.025,-0.215
3219,-0.985,-0.180
3220,-0.910,-0.155
3221,-0.855,-0.125
3222,-0.785,-0.100
3223,-0.695,-0.100
3224,-0.605,-0.070
3225,-0.525,-0.070
3226,-0.430,-0.040
3227,-0.355,0.010
3228,-0.300,0.005
3229,-0.280,0.015
3230,-0.250,0.015
3231,-0.225,0.010
3232,-0.195,0.020
3233,-0.165,0.035
3234,-0.110,0.065
3235,-0.060,0.085
3236,-0.005,0.095
3237,0.015,0.120
3238,0.035,0.105
3239,0.065,0.100
3240,0.085,0.095
3241,0.125,0.135
3242,0.170,0.130
3243,0.230,0.155
3244,0.255,0.180
3245,0.280,0.175
3246,0.280,0.180
3247,0.265,0.175
3248,0.295,0.175
3249,0.280,0.130
3250,0.315,0.145
3251,0.325,0.165
3252,0.350,0.185
3253,0.320,0.170
3254,0.330,0.185
3255,0.320,0.155
3256,0.310,0.135
3257,0.270,0.140
3258,0.285,0.135
3259,0.270,0.130
3260,0.285,0.130
3261,0.260,0.130
3262,0.245,0.125
3263,0.225,0.115
3264,0.200,0.105
3265,0.160,0.075
3266,0.170,0.055
3267,0.165,0.070
3268,0.160,0.090
3269,0.160,0.070
3270,0.120,0.060
3271,0.090,0.050
3272,0.050,0.015
3273,0.025,0.030
3274,-0.005,0.015
3275,-0.010,0.040
3276,0.000,0.035
3277,0.010,0.035
3278,-0.010,0.045
3279,-0.025,0.055
3280,-0.060,0.015
3281,-0.070,0.000
3282,-0.095,0.000
3283,-0.095,-0.005
3284,-0.080,0.000
3285,-0.070,0.005
3286,-0.065,0.030
3287,-0.070,0.030
3288,-0.080,0.010
3289,-0.080,0.020
3290,-0.135,0.000
3291,-0.120,0.000
3292,-0.125,-0.005
3293,-0.105,0.035
3294,-0.080,0.040
3295,-0.090,0.055
3296,-0.095,0.050
3297,-0.120,0.015
3298,-0.090,0.025
3299,-0.075,0.045
3300,-0.070,0.050
3301,-0.055,0.075
3302,-0.020,0.075
3303,-0.025,0.065
3304,-0.040,0.055
3305,-0.050,0.025
3306,-0.070,0.035
3307,-0.090,0.020
3308,-0.090,0.010
3309,-0.100,0.010
3310,-0.085,0.030
3311,-0.080,0.045
3312,-0.105,0.015
3313,-0.135,0.015
3314,-0.145,0.000
3315,-0.160,-0.005
3316,-0.180,-0.020
3317,-0.205,0.000
3318,-0.195,-0.010
3319,-0.205,-0.020
3320,-0.220,-0.020
3321,-0.245,-0.035
3322,-0.275,-0.070
3323,-0.340,-0.075
3324,-0.330,-0.075
3325,-0.365,-0.090
3326,-0.360,-0.085
3327,-0.375,-0.080
3328,-0.390,-0.085
3329,-0.400,-0.080
3330,-0.475,-0.105
3331,-0.485,-0.110
3332,-0.505,-0.115
3333,-0.500,-0.110
3334,-0.495,-0.140
3335,-0.510,-0.130
3336,-0.495,-0.120
3337,-0.510,-0.120
3338,-0.535,-0.125
3339,-0.575,-0.140
3340,-0.575,-0.150
3341,-0.565,-0.145
3342,-0.555,-0.145
3343,-0.555,-0.150
3344,-0.550,-0.130
3345,-0.560,-0.145
3346,-0.570,-0.130
3347,-0.590,-0.165
3348,-0.590,-0.145
3349,-0.565,-0.175
3350,-0.565,-0.150
3351,-0.560,-0.145
3352,-0.535,-0.145
3353,-0.560,-0.135
3354,-0.560,-0.120
3355,-0.570,-0.130
3356,-0.585,-0.135
3357,-0.575,-0.125
3358,-0.560,-0.130
3359,-0.510,-0.105
3360,-0.490,-0.105
3361,-0.445,-0.095
3362,-0.440,-0.110
3363,-0.445,-0.115
3364,-0.465,-0.190
3365,-0.480,-0.230
3366,-0.505,-0.265
3367,-0.515,-0.300
3368,-0.615,-0.315
3369,-0.690,-0.335
3370,-0.840,-0.350
3371,-0.920,-0.355
3372,-1.015,-0.375
3373,-1.060,-0.385
3374,-1.090,-0.390
3375,-1.110,-0.360
3376,-1.120,-0.360
3377,-1.100,-0.350
3378,-1.105,-0.350
3379,-1.105,-0.340
3380,-1.100,-0.350
3381,-1.125,-0.345
3382,-1.120,-0.330
3383,-1.085,-0.300
3384,-1.075,-0.280
3385,-1.030,-0.205
3386,-0.985,-0.210
3387,-0.955,-0.205
3388,-0.915,-0.180
3389,-0.885,-0.155
3390,-0.840,-0.160
3391,-0.745,-0.155
3392,-0.695,-0.160
3393,-0.620,-0.100
3394,-0.600,-0.105
3395,-0.580,-0.075
3396,-0.545,-0.080
3397,-0.535,-0.095
3398,-0.545,-0.075
3399,-0.515,-0.080
3400,-0.465,-0.065
3401,-0.435,-0.065
3402,-0.415,-0.035
3403,-0.400,-0.015
3404,-0.430,-0.015
3405,-0.410,-0.035
3406,-0.415,-0.020
3407,-0.425,-0.035
3408,-0.385,-0.020
3409,-0.365,0.000
3410,-0.305,-0.005
3411,-0.315,0.000
3412,-0.300,0.010
3413,-0.300,0.010
3414,-0.310,0.010
3415,-0.295,0.015
3416,-0.280,0.015
3417,-0.265,0.020
3418,-0.255,0.030
3419,-0.215,0.055
3420,-0.215,0.045
3421,-0.210,0.065
3422,-0.230,0.050
3423,-0.210,0.065
3424,-0.210,0.060
3425,-0.175,0.065
3426,-0.145,0.075
3427,-0.125,0.085
3428,-0.095,0.110
3429,-0.095,0.140
3430,-0.095,0.120
3431,-0.080,0.115
3432,-0.070,0.095
3433,-0.060,0.095
3434,-0.015,0.115
3435,0.000,0.110
3436,0.000,0.100
3437,-0.015,0.095
3438,-0.035,0.110
3439,-0.050,0.080
3440,-0.080,0.070
3441,-0.100,0.075
3442,-0.110,0.030
3443,-0.100,0.060
3444,-0.105,0.075
3445,-0.125,0.065
3446,-0.140,0.050
3447,-0.185,0.035
3448,-0.200,0.025
3449,-0.235,0.015
3450,-0.240,-0.010
3451,-0.220,0.020
3452,-0.245,0.025
3453,-0.245,0.020
3454,-0.265,-0.005
3455,-0.305,-0.010
3456,-0.350,-0.035
3457,-0.340,-0.045
3458,-0.375,-0.040
3459,-0.375,-0.035
3460,-0.405,-0.025
3461,-0.415,-0.040
3462,-0.450,-0.025
3463,-0.470,-0.030
3464,-0.490,-0.045
3465,-0.510,-0.070
3466,-0.515,-0.055
3467,-0.505,-0.075
3468,-0.505,-0.055
3469,-0.505,-0.045
3470,-0.510,-0.035
3471,-0.530,-0.020
3472,-0.570,-0.030
3473,-0.595,-0.055
3474,-0.595,-0.080
3475,-0.590,-0.060
3476,-0.570,-0.055
3477,-0.540,-0.045
3478,-0.565,-0.035
3479,-0.560,-0.020
3480,-0.570,-0.035
3481,-0.595,-0.055
3482,-0.595,-0.065
3483,-0.570,-0.090
3484,-0.565,-0.075
3485,-0.555,-0.045
3486,-0.570,-0.050
3487,-0.560,-0.025
3488,-0.590,-0.060
3489,-0.620,-0.055
3490,-0.600,-0.065
3491,-0.595,-0.050
3492,-0.580,-0.055
3493,-0.555,-0.040
3494,-0.540,-0.025
3495,-0.515,-0.025
3496,-0.530,-0.020
3497,-0.530,-0.035
3498,-0.525,-0.055
3499,-0.510,-0.105
3500,-0.530,-0.105
3501,-0.540,-0.150
3502,-0.540,-0.180
3503,-0.585,-0.220
3504,-0.665,-0.245
3505,-0.785,-0.265
3506,-0.900,-0.295
3507,-1.000,-0.305
3508,-1.070,-0.300
3509,-1.085,-0.315
3510,-1.075,-0.285
3511,-1.095,-0.275
3512,-1.105,-0.275
3513,-1.140,-0.255
3514,-1.160,-0.295
3515,-1.150,-0.290
3516,-1.140,-0.295
3517,-1.110,-0.270
3518,-1.085,-0.235
3519,-1.065,-0.175
3520,-1.050,-0.170
3521,-1.050,-0.160
3522,-1.020,-0.150
3523,-0.990,-0.145
3524,-0.940,-0.120
3525,-0.885,-0.120
3526,-0.815,-0.080
3527,-0.735,-0.050
3528,-0.715,-0.035
3529,-0.705,-0.025
3530,-0.685,-0.025
3531,-0.680,-0.035
3532,-0.635,-0.055
3533,-0.625,-0.035
3534,-0.590,-0.025
3535,-0.560,0.010
3536,-0.535,0.035
3537,-0.520,0.025
3538,-0.525,0.015
3539,-0.560,0.005
3540,-0.535,-0.010
3541,-0.505,0.005
3542,-0.480,0.020
3543,-0.460,0.045
3544,-0.465,0.065
3545,-0.460,0.070
3546,-0.445,0.050
3547,-0.465,0.050
3548,-0.465,0.055
3549,-0.440,0.055
3550,-0.425,0.075
3551,-0.415,0.080
3552,-0.390,0.105
3553,-0.370,0.110
3554,-0.390,0.115
3555,-0.355,0.110
3556,-0.365,0.100
3557,-0.335,0.090
3558,-0.330,0.110
3559,-0.295,0.120
3560,-0.250,0.135
3561,-0.255,0.165
3562,-0.260,0.150
3563,-0.235,0.140
3564,-0.255,0.145
3565,-0.255,0.130
3566,-0.245,0.115
3567,-0.215,0.115
3568,-0.200,0.115
3569,-0.215,0.115
3570,-0.210,0.110
3571,-0.245,0.100
3572,-0.255,0.095
3573,-0.320,0.055
3574,-0.325,0.070
3575,-0.300,0.075
3576,-0.290,0.075
3577,-0.305,0.085
3578,-0.310,0.075
3579,-0.320,0.090
3580,-0.310,0.065
3581,-0.335,0.025
3582,-0.340,0.005
3583,-0.340,-0.040
3584,-0.380,-0.050
3585,-0.395,-0.090
3586,-0.455,-0.150
3587,-0.535,-0.195
3588,-0.640,-0.240
3589,-0.765,-0.295
3590,-0.900,-0.310
3591,-1.015,-0.330
3592,-1.090,-0.320
3593,-1.110,-0.320
3594,-1.140,-0.330
3595,-1.175,-0.360
3596,-1.200,-0.330
3597,-1.220,-0.350
3598,-1.250,-0.350
3599,-1.270,-0.330
3600,-1.275,-0.335
3601,-1.260,-0.310
3602,-1.245,-0.300
3603,-1.215,-0.305
3604,-1.230,-0.305
3605,-1.195,-0.300
3606,-1.215,-0.305
3607,-1.190,-0.300
3608,-1.190,-0.310
3609,-1.155,-0.265
3610,-1.135,-0.250
3611,-1.125,-0.245
3612,-1.135,-0.230
3613,-1.115,-0.205
3614,-1.135,-0.185
3615,-1.090,-0.160
3616,-1.055,-0.105
3617,-1.010,-0.065
3618,-0.955,-0.030
3619,-0.870,0.015
3620,-0.805,0.030
3621,-0.735,0.035
3622,-0.660,0.070
3623,-0.620,0.050
3624,-0.550,0.100
3625,-0.490,0.095
3626,-0.420,0.145
3627,-0.360,0.145
3628,-0.330,0.160
3629,-0.305,0.190
3630,-0.305,0.190
3631,-0.275,0.200
3632,-0.235,0.230
3633,-0.210,0.245
3634,-0.130,0.260
3635,-0.095,0.295
3636,-0.050,0.290
3637,-0.055,0.310
3638,-0.030,0.305
3639,-0.035,0.305
3640,-0.015,0.315
3641,0.010,0.335
3642,0.075,0.360
3643,0.125,0.370
3644,0.160,0.380
3645,0.180,0.390
3646,0.170,0.395
3647,0.160,0.390
3648,0.185,0.375
3649,0.205,0.365
3650,0.210,0.375
3651,0.230,0.365
3652,0.235,0.380
3653,0.235,0.370
3654,0.200,0.385
3655,0.185,0.360
3656,0.150,0.345
3657,0.155,0.335
3658,0.130,0.355
3659,0.175,0.345
3660,0.185,0.325
3661,0.155,0.340
3662,0.125,0.315
3663,0.105,0.320
3664,0.095,0.270
3665,0.050,0.290
3666,0.030,0.265
3667,0.035,0.290
3668,0.050,0.280
3669,0.020,0.275
3670,0.000,0.270
3671,-0.005,0.275
3672,-0.050,0.250
3673,-0.080,0.230
3674,-0.080,0.245
3675,-0.060,0.255
3676,-0.070,0.250
3677,-0.055,0.275
3678,-0.075,0.255
3679,-0.085,0.245
3680,-0.120,0.225
3681,-0.155,0.225
3682,-0.140,0.215
3683,-0.135,0.245
3684,-0.110,0.265
3685,-0.100,0.270
3686,-0.080,0.260
3687,-0.090,0.255
3688,-0.100,0.250
3689,-0.115,0.235
3690,-0.120,0.230
3691,-0.130,0.260
3692,-0.110,0.260
3693,-0.100,0.275
3694,-0.075,0.270
3695,-0.070,0.280
3696,-0.090,0.295
3697,-0.090,0.260
3698,-0.080,0.245
3699,-0.075,0.270
3700,-0.060,0.295
3701,-0.030,0.295
3702,-0.020,0.295
3703,0.025,0.325
3704,0.000,0.300
3705,0.005,0.300
3706,-0.020,0.300
3707,-0.010,0.275
3708,-0.005,0.275
3709,0.010,0.280
3710,0.015,0.295
3711,0.020,0.280
3712,0.020,0.285
3713,-0.010,0.260
3714,-0.020,0.275
3715,-0.035,0.250
3716,-0.030,0.240
3717,-0.015,0.260
3718,-0.010,0.255
3719,0.000,0.265
3720,0.000,0.265
3721,-0.035,0.265
3722,-0.065,0.240
3723,-0.080,0.220
3724,-0.085,0.205
3725,-0.105,0.210
3726,-0.105,0.205
3727,-0.115,0.195
3728,-0.155,0.205
3729,-0.170,0.210
3730,-0.190,0.185
3731,-0.210,0.175
3732,-0.230,0.170
3733,-0.205,0.155
3734,-0.225,0.185
3735,-0.215,0.170
3736,-0.215,0.190
3737,-0.210,0.195
3738,-0.240,0.200
3739,-0.255,0.180
3740,-0.270,0.165
3741,-0.265,0.170
3742,-0.245,0.190
3743,-0.240,0.165
3744,-0.220,0.195
3745,-0.230,0.195
3746,-0.220,0.205
3747,-0.245,0.155
3748,-0.275,0.185
3749,-0.255,0.195
3750,-0.250,0.175
3751,-0.235,0.195
3752,-0.200,0.165
3753,-0.180,0.175
3754,-0.205,0.200
3755,-0.210,0.180
3756,-0.240,0.180
3757,-0.230,0.210
3758,-0.215,0.195
3759,-0.215,0.205
3760,-0.135,0.215
3761,-0.115,0.200
3762,-0.085,0.235
3763,-0.085,0.200
3764,-0.090,0.150
3765,-0.120,0.120
3766,-0.125,0.085
3767,-0.150,0.035
3768,-0.175,0.000
3769,-0.240,-0.030
3770,-0.375,-0.050
3771,-0.495,-0.050
3772,-0.625,-0.080
3773,-0.720,-0.115
3774,-0.760,-0.130
3775,-0.800,-0.130
3776,-0.795,-0.125
3777,-0.815,-0.095
3778,-0.840,-0.095
3779,-0.845,-0.080
3780,-0.835,-0.090
3781,-0.840,-0.090
3782,-0.850,-0.070
3783,-0.830,-0.045
3784,-0.815,-0.035
3785,-0.775,0.025
3786,-0.730,0.050
3787,-0.715,0.085
3788,-0.670,0.115
3789,-0.595,0.135
3790,-0.560,0.110
3791,-0.475,0.135
3792,-0.390,0.195
3793,-0.330,0.195
3794,-0.290,0.230
3795,-0.250,0.245
3796,-0.260,0.240
3797,-0.215,0.220
3798,-0.225,0.245
3799,-0.190,0.250
3800,-0.140,0.250
3801,-0.120,0.260
3802,-0.080,0.290
3803,-0.060,0.295
3804,-0.055,0.305
3805,-0.050,0.305
3806,-0.050,0.285
3807,-0.030,0.285
3808,-0.025,0.275
3809,0.015,0.315
3810,0.025,0.320
3811,0.065,0.335
3812,0.070,0.340
3813,0.045,0.350
3814,0.050,0.330
3815,0.060,0.345
3816,0.090,0.335
3817,0.115,0.350
3818,0.145,0.385
3819,0.165,0.405
3820,0.180,0.380
3821,0.195,0.415
3822,0.185,0.385
3823,0.200,0.405
3824,0.215,0.410
3825,0.235,0.430
3826,0.290,0.445
3827,0.330,0.465
3828,0.360,0.485
3829,0.360,0.470
3830,0.370,0.475
3831,0.370,0.465
3832,0.385,0.470
3833,0.405,0.485
3834,0.435,0.475
3835,0.445,0.490
3836,0.460,0.500
3837,0.435,0.510
3838,0.450,0.480
3839,0.415,0.495
3840,0.420,0.455
3841,0.440,0.465
3842,0.445,0.430
3843,0.435,0.470
3844,0.415,0.455
3845,0.410,0.435
3846,0.405,0.450
3847,0.355,0.440
3848,0.330,0.410
3849,0.325,0.410
3850,0.335,0.405
3851,0.310,0.415
3852,0.320,0.405
3853,0.285,0.410
3854,0.285,0.410
3855,0.270,0.385
3856,0.245,0.365
3857,0.235,0.345
3858,0.220,0.380
3859,0.235,0.350
3860,0.225,0.345
3861,0.210,0.345
3862,0.195,0.350
3863,0.165,0.315
3864,0.120,0.300
3865,0.080,0.280
3866,0.090,0.295
3867,0.080,0.305
3868,0.085,0.320
3869,0.080,0.305
3870,0.060,0.315
3871,0.065,0.295
3872,0.020,0.280
3873,0.015,0.270
3874,0.025,0.280
3875,0.025,0.300
3876,0.030,0.305
3877,0.040,0.305
3878,0.040,0.305
3879,0.055,0.285
3880,0.030,0.275
3881,-0.020,0.280
3882,0.000,0.275
3883,-0.005,0.295
3884,0.030,0.285
3885,0.045,0.310
3886,0.040,0.295
3887,0.030,0.305
3888,0.040,0.300
3889,0.000,0.270
3890,-0.005,0.265
3891,0.015,0.285
3892,0.015,0.275
3893,0.055,0.295
3894,0.065,0.290
3895,0.090,0.290
3896,0.065,0.300
3897,0.045,0.280
3898,0.045,0.295
3899,0.025,0.285
3900,0.015,0.305
3901,0.055,0.315
3902,0.080,0.325
3903,0.125,0.300
3904,0.110,0.290
3905,0.105,0.270
3906,0.085,0.220
3907,0.060,0.160
3908,0.070,0.120
3909,0.030,0.075
3910,-0.005,0.035
3911,-0.100,0.030
3912,-0.280,0.000
3913,-0.445,-0.030
3914,-0.580,-0.030
3915,-0.650,-0.060
3916,-0.705,-0.060
3917,-0.730,-0.050
3918,-0.710,-0.040
3919,-0.690,-0.015
3920,-0.710,-0.020
3921,-0.710,-0.030
3922,-0.710,-0.035
3923,-0.745,-0.015
3924,-0.710,0.015
3925,-0.685,0.035
3926,-0.665,0.070
3927,-0.640,0.095
3928,-0.590,0.105
3929,-0.555,0.115
3930,-0.485,0.135
3931,-0.445,0.165
3932,-0.370,0.155
3933,-0.315,0.180
3934,-0.250,0.215
3935,-0.215,0.235
3936,-0.165,0.250
3937,-0.120,0.245
3938,-0.115,0.250
3939,-0.135,0.260
3940,-0.080,0.245
3941,-0.070,0.250
3942,-0.050,0.255
3943,-0.005,0.250
3944,0.030,0.285
3945,0.020,0.300
3946,0.040,0.315
3947,0.015,0.290
3948,0.025,0.295
3949,0.055,0.310
3950,0.085,0.320
3951,0.110,0.325
3952,0.140,0.365
3953,0.145,0.360
3954,0.150,0.380
3955,0.155,0.350
3956,0.175,0.350
3957,0.180,0.385
3958,0.200,0.355
3959,0.230,0.385
3960,0.270,0.420
3961,0.290,0.435
3962,0.285,0.425
3963,0.290,0.430
3964,0.285,0.420
3965,0.310,0.420
3966,0.340,0.380
3967,0.375,0.430
3968,0.395,0.435
3969,0.405,0.470
3970,0.400,0.445
3971,0.415,0.490
3972,0.410,0.455
3973,0.430,0.440
3974,0.410,0.435
3975,0.430,0.430
3976,0.420,0.395
3977,0.440,0.425
3978,0.415,0.405
3979,0.380,0.410
3980,0.335,0.380
3981,0.305,0.375
3982,0.290,0.345
3983,0.275,0.340
3984,0.270,0.345
3985,0.265,0.355
3986,0.250,0.380
3987,0.215,0.360
3988,0.195,0.365
3989,0.165,0.325
3990,0.130,0.300
3991,0.140,0.300
3992,0.155,0.275
3993,0.150,0.285
3994,0.135,0.290
3995,0.125,0.270
3996,0.105,0.260
3997,0.065,0.260
3998,0.035,0.240
3999,-0.015,0.210
4000,-0.010,0.240
4001,-0.020,0.245
4002,-0.010,0.235
4003,-0.025,0.245
4004,-0.050,0.245
4005,-0.080,0.225
4006,-0.090,0.225
4007,-0.100,0.220
4008,-0.080,0.220
4009,-0.090,0.205
4010,-0.090,0.210
4011,-0.100,0.195
4012,-0.100,0.220
4013,-0.110,0.190
4014,-0.135,0.185
4015,-0.150,0.185
4016,-0.170,0.180
4017,-0.165,0.175
4018,-0.145,0.195
4019,-0.125,0.185
4020,-0.120,0.215
4021,-0.130,0.220
4022,-0.160,0.210
4023,-0.180,0.180
4024,-0.175,0.165
4025,-0.190,0.170
4026,-0.165,0.160
4027,-0.155,0.185
4028,-0.160,0.190
4029,-0.195,0.205
4030,-0.205,0.180
4031,-0.210,0.175
4032,-0.235,0.155
4033,-0.205,0.175
4034,-0.200,0.155
4035,-0.200,0.195
4036,-0.180,0.185
4037,-0.195,0.220
4038,-0.180,0.175
4039,-0.190,0.175
4040,-0.170,0.155
4041,-0.160,0.110
4042,-0.185,0.095
4043,-0.160,0.035
4044,-0.175,-0.005
4045,-0.235,-0.020
4046,-0.345,-0.080
4047,-0.480,-0.095
4048,-0.610,-0.105
4049,-0.705,-0.135
4050,-0.755,-0.155
4051,-0.785,-0.140
4052,-0.805,-0.135
4053,-0.850,-0.105
4054,-0.855,-0.110
4055,-0.870,-0.140
4056,-0.890,-0.125
4057,-0.875,-0.120
4058,-0.870,-0.135
4059,-0.825,-0.100
4060,-0.815,-0.065
4061,-0.775,-0.035
4062,-0.795,-0.025
4063,-0.770,0.000
4064,-0.775,0.000
4065,-0.725,0.035
4066,-0.665,0.060
4067,-0.615,0.090
4068,-0.520,0.070
4069,-0.495,0.115
4070,-0.415,0.135
4071,-0.375,0.160
4072,-0.390,0.145
4073,-0.340,0.145
4074,-0.300,0.160
4075,-0.275,0.165
4076,-0.225,0.170
4077,-0.180,0.180
4078,-0.170,0.195
4079,-0.145,0.200
4080,-0.140,0.205
4081,-0.155,0.200
4082,-0.135,0.205
4083,-0.125,0.215
4084,-0.095,0.210
4085,-0.075,0.235
4086,-0.050,0.235
4087,-0.040,0.260
4088,-0.055,0.250
4089,-0.065,0.235
4090,-0.060,0.240
4091,-0.020,0.250
4092,0.010,0.240
4093,0.050,0.265
4094,0.055,0.280
4095,0.060,0.295
4096,0.065,0.305
4097,0.045,0.300
4098,0.070,0.300
4099,0.085,0.290
4100,0.115,0.315
4101,0.140,0.340
4102,0.170,0.345
4103,0.155,0.365
4104,0.175,0.355
4105,0.180,0.340
4106,0.180,0.325
4107,0.175,0.330
4108,0.210,0.340
4109,0.250,0.330
4110,0.250,0.345
4111,0.250,0.345
4112,0.250,0.315
4113,0.235,0.310
4114,0.215,0.300
4115,0.205,0.290
4116,0.165,0.270
4117,0.135,0.255
4118,0.155,0.260
4119,0.150,0.265
4120,0.115,0.265
4121,0.065,0.250
4122,0.040,0.245
4123,0.000,0.215
4124,0.010,0.220
4125,0.000,0.195
4126,0.005,0.185
4127,0.015,0.215
4128,0.000,0.200
4129,-0.025,0.225
4130,-0.050,0.185
4131,-0.090,0.190
4132,-0.105,0.150
4133,-0.125,0.160
4134,-0.125,0.150
4135,-0.145,0.145
4136,-0.180,0.170
4137,-0.180,0.155
4138,-0.225,0.170
4139,-0.235,0.170
4140,-0.240,0.125
4141,-0.230,0.135
4142,-0.240,0.135
4143,-0.245,0.155
4144,-0.225,0.160
4145,-0.230,0.170
4146,-0.255,0.155
4147,-0.270,0.140
4148,-0.275,0.135
4149,-0.285,0.140
4150,-0.280,0.155
4151,-0.285,0.155
4152,-0.280,0.150
4153,-0.290,0.145
4154,-0.290,0.190
4155,-0.340,0.150
4156,-0.340,0.155
4157,-0.345,0.130
4158,-0.335,0.140
4159,-0.305,0.120
4160,-0.310,0.150
4161,-0.305,0.140
4162,-0.335,0.155
4163,-0.345,0.150
4164,-0.380,0.150
4165,-0.355,0.150
4166,-0.360,0.140
4167,-0.360,0.130
4168,-0.330,0.135
4169,-0.330,0.185
4170,-0.355,0.155
4171,-0.355,0.150
4172,-0.355,0.145
4173,-0.360,0.115
4174,-0.320,0.110
4175,-0.300,0.115
4176,-0.295,0.085
4177,-0.290,0.065
4178,-0.305,0.040
4179,-0.345,0.015
4180,-0.435,-0.040
4181,-0.500,-0.085
4182,-0.605,-0.130
4183,-0.710,-0.135
4184,-0.835,-0.150
4185,-0.840,-0.150
4186,-0.880,-0.125
4187,-0.895,-0.115
4188,-0.920,-0.130
4189,-0.955,-0.125
4190,-0.960,-0.145
4191,-0.970,-0.160
4192,-0.955,-0.155
4193,-0.915,-0.130
4194,-0.890,-0.115
4195,-0.880,-0.095
4196,-0.875,-0.055
4197,-0.890,-0.055
4198,-0.900,-0.025
4199,-0.865,-0.040
4200,-0.790,0.000
4201,-0.730,0.015
4202,-0.680,0.050
4203,-0.635,0.060
4204,-0.595,0.085
4205,-0.565,0.105
4206,-0.540,0.085
4207,-0.505,0.090
4208,-0.440,0.090
4209,-0.410,0.115
4210,-0.360,0.145
4211,-0.320,0.140
4212,-0.310,0.160
4213,-0.310,0.160
4214,-0.300,0.160
4215,-0.275,0.145
4216,-0.250,0.165
4217,-0.220,0.170
4218,-0.195,0.180
4219,-0.180,0.205
4220,-0.180,0.225
4221,-0.160,0.225
4222,-0.180,0.210
4223,-0.160,0.200
4224,-0.135,0.210
4225,-0.130,0.225
4226,-0.090,0.235
4227,-0.070,0.260
4228,-0.065,0.270
4229,-0.055,0.275
4230,-0.035,0.290
4231,-0.035,0.280
4232,-0.010,0.260
4233,0.000,0.290
4234,0.000,0.310
4235,0.025,0.320
4236,0.070,0.315
4237,0.085,0.345
4238,0.090,0.340
4239,0.075,0.340
4240,0.130,0.325
4241,0.150,0.325
4242,0.165,0.320
4243,0.175,0.350
4244,0.195,0.350
4245,0.175,0.355
4246,0.175,0.365
4247,0.155,0.325
4248,0.145,0.315
4249,0.145,0.280
4250,0.145,0.275
4251,0.145,0.280
4252,0.120,0.295
4253,0.105,0.275
4254,0.100,0.285
4255,0.085,0.250
4256,0.035,0.245
4257,0.025,0.210
4258,0.010,0.205
4259,0.010,0.190
4260,0.005,0.225
4261,0.010,0.215
4262,-0.015,0.210
4263,-0.035,0.205
4264,-0.060,0.170
4265,-0.075,0.155
4266,-0.075,0.125
4267,-0.095,0.125
4268,-0.095,0.130
4269,-0.115,0.120
4270,-0.125,0.135
4271,-0.160,0.130
4272,-0.200,0.130
4273,-0.235,0.105
4274,-0.245,0.075
4275,-0.255,0.070
4276,-0.235,0.085
4277,-0.225,0.095
4278,-0.245,0.090
4279,-0.265,0.105
4280,-0.285,0.090
4281,-0.295,0.075
4282,-0.295,0.085
4283,-0.315,0.075
4284,-0.270,0.075
4285,-0.275,0.070
4286,-0.270,0.085
4287,-0.280,0.085
4288,-0.290,0.085
4289,-0.305,0.075
4290,-0.305,0.065
4291,-0.315,0.055
4292,-0.290,0.060
4293,-0.275,0.065
4294,-0.280,0.070
4295,-0.295,0.080
4296,-0.290,0.070
4297,-0.320,0.065
4298,-0.335,0.045
4299,-0.330,0.050
4300,-0.325,0.050
4301,-0.330,0.045
4302,-0.300,0.075
4303,-0.285,0.065
4304,-0.330,0.105
4305,-0.335,0.055
4306,-0.340,0.065
4307,-0.340,0.055
4308,-0.320,0.040
4309,-0.315,0.065
4310,-0.280,0.070
4311,-0.280,0.060
4312,-0.290,0.075
4313,-0.300,0.020
4314,-0.360,-0.020
4315,-0.360,-0.070
4316,-0.385,-0.125
4317,-0.435,-0.140
4318,-0.480,-0.175
4319,-0.580,-0.165
4320,-0.695,-0.200
4321,-0.800,-0.185
4322,-0.860,-0.210
4323,-0.895,-0.230
4324,-0.925,-0.225
4325,-0.915,-0.220
4326,-0.875,-0.190
4327,-0.885,-0.185
4328,-0.890,-0.175
4329,-0.880,-0.175
4330,-0.885,-0.170
4331,-0.880,-0.155
4332,-0.880,-0.155
4333,-0.865,-0.135
4334,-0.855,-0.115
4335,-0.795,-0.040
4336,-0.750,-0.055
4337,-0.735,-0.030
4338,-0.670,0.000
4339,-0.665,-0.010
4340,-0.610,0.005
4341,-0.570,0.015
4342,-0.505,0.025
4343,-0.475,0.050
4344,-0.420,0.075
4345,-0.425,0.065
4346,-0.390,0.090
4347,-0.365,0.065
4348,-0.360,0.100
4349,-0.330,0.085
4350,-0.315,0.080
4351,-0.270,0.110
4352,-0.240,0.135
4353,-0.230,0.125
4354,-0.250,0.125
4355,-0.230,0.145
4356,-0.240,0.140
4357,-0.240,0.125
4358,-0.215,0.150
4359,-0.160,0.145
4360,-0.130,0.145
4361,-0.135,0.165
4362,-0.120,0.170
4363,-0.110,0.165
4364,-0.105,0.160
4365,-0.105,0.155
4366,-0.090,0.160
4367,-0.050,0.190
4368,-0.020,0.165
4369,0.005,0.205
4370,0.010,0.210
4371,0.010,0.215
4372,0.020,0.210
4373,0.020,0.220
4374,0.025,0.220
4375,0.065,0.230
4376,0.090,0.210
4377,0.130,0.250
4378,0.135,0.260
4379,0.155,0.245
4380,0.135,0.245
4381,0.120,0.230
4382,0.155,0.220
4383,0.150,0.200
4384,0.170,0.215
4385,0.175,0.220
4386,0.170,0.205
4387,0.135,0.215
4388,0.115,0.190
4389,0.055,0.170
4390,0.035,0.160
4391,0.035,0.130
4392,0.005,0.125
4393,0.010,0.125
4394,-0.005,0.125
4395,-0.045,0.100
4396,-0.055,0.095
4397,-0.120,0.075
4398,-0.135,0.045
4399,-0.155,0.035
4400,-0.180,0.055
4401,-0.175,0.035
4402,-0.185,0.030
4403,-0.220,0.045
4404,-0.255,0.030
4405,-0.290,0.005
4406,-0.320,-0.010
4407,-0.345,-0.040
4408,-0.380,-0.025
4409,-0.390,-0.030
4410,-0.385,-0.040
4411,-0.410,-0.025
4412,-0.415,-0.030
4413,-0.450,-0.030
4414,-0.460,-0.040
4415,-0.490,-0.055
4416,-0.490,-0.075
4417,-0.490,-0.075
4418,-0.455,-0.060
4419,-0.460,-0.035
4420,-0.495,-0.060
4421,-0.510,-0.060
4422,-0.535,-0.075
4423,-0.515,-0.070
4424,-0.545,-0.090
4425,-0.535,-0.090
4426,-0.530,-0.090
4427,-0.495,-0.060
4428,-0.515,-0.060
4429,-0.535,-0.055
4430,-0.545,-0.065
4431,-0.555,-0.090
4432,-0.545,-0.080
4433,-0.540,-0.085
4434,-0.535,-0.080
4435,-0.525,-0.055
4436,-0.515,-0.065
4437,-0.535,-0.050
4438,-0.530,-0.060
4439,-0.550,-0.060
4440,-0.545,-0.080
4441,-0.525,-0.055
4442,-0.515,-0.035
4443,-0.490,-0.015
4444,-0.490,-0.015
4445,-0.480,-0.015
4446,-0.475,-0.020
4447,-0.475,-0.050
4448,-0.460,-0.055
4449,-0.465,-0.050
4450,-0.460,-0.070
4451,-0.460,-0.120
4452,-0.455,-0.150
4453,-0.515,-0.175
4454,-0.575,-0.215
4455,-0.700,-0.235
4456,-0.795,-0.255
4457,-0.885,-0.280
4458,-0.960,-0.280
4459,-0.970,-0.275
4460,-0.955,-0.270
4461,-0.965,-0.240
4462,-0.970,-0.230
4463,-0.990,-0.220
4464,-1.015,-0.255
4465,-0.980,-0.260
4466,-0.975,-0.230
4467,-0.950,-0.230
4468,-0.935,-0.200
4469,-0.915,-0.170
4470,-0.920,-0.155
4471,-0.885,-0.145
4472,-0.870,-0.120
4473,-0.850,-0.100
4474,-0.795,-0.090
4475,-0.735,-0.090
4476,-0.655,-0.060
4477,-0.630,-0.010
4478,-0.560,-0.010
4479,-0.550,0.020
4480,-0.530,0.010
4481,-0.510,0.000
4482,-0.475,0.000
4483,-0.450,0.000
4484,-0.385,0.020
4485,-0.365,0.050
4486,-0.355,0.065
4487,-0.350,0.080
4488,-0.320,0.090
4489,-0.360,0.075
4490,-0.320,0.065
4491,-0.295,0.070
4492,-0.275,0.075
4493,-0.255,0.100
4494,-0.235,0.110
4495,-0.230,0.125
4496,-0.225,0.140
4497,-0.225,0.110
4498,-0.200,0.135
4499,-0.185,0.110
4500,-0.185,0.125
4501,-0.160,0.150
4502,-0.105,0.170
4503,-0.090,0.165
4504,-0.090,0.190
4505,-0.085,0.175
4506,-0.075,0.170
4507,-0.055,0.165
4508,-0.015,0.185
4509,0.015,0.185
4510,0.020,0.225
4511,0.055,0.215
4512,0.055,0.230
4513,0.045,0.230
4514,0.070,0.215
4515,0.070,0.225
4516,0.090,0.205
4517,0.110,0.230
4518,0.135,0.220
4519,0.135,0.235
4520,0.130,0.230
4521,0.135,0.225
4522,0.095,0.220
4523,0.060,0.180
4524,0.080,0.175
4525,0.055,0.160
4526,0.050,0.165
4527,0.050,0.170
4528,0.035,0.175
4529,0.000,0.195
4530,-0.030,0.160
4531,-0.065,0.145
4532,-0.085,0.145
4533,-0.105,0.140
4534,-0.085,0.140
4535,-0.090,0.125
4536,-0.120,0.135
4537,-0.140,0.115
4538,-0.145,0.115
4539,-0.190,0.085
4540,-0.185,0.065
4541,-0.220,0.080
4542,-0.245,0.060
4543,-0.250,0.080
4544,-0.280,0.090
4545,-0.290,0.075
4546,-0.320,0.080
4547,-0.315,0.055
4548,-0.340,0.055
4549,-0.315,0.045
4550,-0.355,0.035
4551,-0.315,0.040
4552,-0.320,0.045
4553,-0.310,0.050
4554,-0.315,0.065
4555,-0.365,0.040
4556,-0.370,0.050
4557,-0.360,0.035
4558,-0.360,0.020
4559,-0.360,0.035
4560,-0.335,0.050
4561,-0.360,0.065
4562,-0.355,0.095
4563,-0.410,0.075
4564,-0.395,0.030
4565,-0.400,0.025
4566,-0.400,0.045
4567,-0.390,0.045
4568,-0.355,0.035
4569,-0.355,0.060
4570,-0.355,0.050
4571,-0.385,0.055
4572,-0.405,0.040
4573,-0.425,0.020
4574,-0.420,0.020
4575,-0.420,0.025
4576,-0.375,0.025
4577,-0.385,0.045
4578,-0.365,0.055
4579,-0.375,0.065
4580,-0.370,0.065
4581,-0.365,0.040
4582,-0.360,-0.015
4583,-0.345,-0.005
4584,-0.330,-0.010
4585,-0.320,-0.045
4586,-0.360,-0.065
4587,-0.390,-0.115
4588,-0.480,-0.150
4589,-0.595,-0.205
4590,-0.690,-0.225
4591,-0.780,-0.235
4592,-0.845,-0.230
4593,-0.875,-0.245
4594,-0.910,-0.210
4595,-0.920,-0.225
4596,-0.930,-0.205
4597,-0.975,-0.205
4598,-0.960,-0.220
4599,-1.000,-0.250
4600,-0.970,-0.220
4601,-0.945,-0.215
4602,-0.890,-0.185
4603,-0.915,-0.155
4604,-0.915,-0.140
4605,-0.930,-0.110
4606,-0.920,-0.095
4607,-0.860,-0.075
4608,-0.815,-0.045
4609,-0.745,-0.010
4610,-0.690,-0.010
4611,-0.615,0.035
4612,-0.590,0.035
4613,-0.555,0.060
4614,-0.505,0.040
4615,-0.470,0.050
4616,-0.440,0.070
4617,-0.390,0.065
4618,-0.335,0.100
4619,-0.300,0.105
4620,-0.290,0.135
4621,-0.265,0.125
4622,-0.250,0.150
4623,-0.270,0.110
4624,-0.235,0.115
4625,-0.215,0.120
4626,-0.160,0.145
4627,-0.120,0.170
4628,-0.110,0.195
4629,-0.100,0.190
4630,-0.090,0.205
4631,-0.095,0.185
4632,-0.055,0.195
4633,-0.050,0.195
4634,0.000,0.220
4635,0.025,0.225
4636,0.040,0.240
4637,0.050,0.265
4638,0.055,0.245
4639,0.050,0.255
4640,0.090,0.245
4641,0.105,0.255
4642,0.130,0.285
4643,0.170,0.335
4644,0.200,0.345
4645,0.215,0.335
4646,0.245,0.320
4647,0.255,0.310
4648,0.270,0.330
4649,0.280,0.300
4650,0.280,0.305
4651,0.295,0.325
4652,0.300,0.340
4653,0.320,0.310
4654,0.335,0.320
4655,0.305,0.310
4656,0.290,0.290
4657,0.280,0.255
4658,0.270,0.255
4659,0.270,0.230
4660,0.295,0.215
4661,0.265,0.195
4662,0.205,0.175
4663,0.115,0.110
4664,0.030,0.095
4665,-0.055,0.030
4666,-0.120,-0.020
4667,-0.155,-0.085
4668,-0.235,-0.100
4669,-0.330,-0.130
4670,-0.505,-0.160
4671,-0.625,-0.205
4672,-0.770,-0.255
4673,-0.850,-0.265
4674,-0.915,-0.285
4675,-0.975,-0.275
4676,-0.995,-0.290
4677,-0.995,-0.280
4678,-1.010,-0.260
4679,-1.025,-0.265
4680,-1.065,-0.275
4681,-1.075,-0.295
4682,-1.090,-0.285
4683,-1.075,-0.245
4684,-1.025,-0.195
4685,-1.010,-0.175
4686,-0.980,-0.130
4687,-0.960,-0.110
4688,-0.900,-0.115
4689,-0.865,-0.115
4690,-0.830,-0.105
4691,-0.775,-0.075
4692,-0.720,-0.035
4693,-0.695,0.000
4694,-0.665,0.045
4695,-0.620,0.070
4696,-0.575,0.120
4697,-0.540,0.115
4698,-0.430,0.165
4699,-0.380,0.165
4700,-0.275,0.215
4701,-0.175,0.265
4702,-0.080,0.290
4703,0.005,0.315
4704,0.075,0.345
4705,0.120,0.335
4706,0.160,0.335
4707,0.180,0.355
4708,0.255,0.370
4709,0.330,0.405
4710,0.375,0.420
4711,0.410,0.460
4712,0.440,0.475
4713,0.470,0.460
4714,0.490,0.460
4715,0.545,0.490
4716,0.580,0.500
4717,0.630,0.520
4718,0.680,0.555
4719,0.715,0.575
4720,0.755,0.575
4721,0.770,0.575
4722,0.805,0.600
4723,0.805,0.590
4724,0.835,0.575
4725,0.885,0.605
4726,0.895,0.610
4727,0.935,0.600
4728,0.975,0.630
4729,0.970,0.605
4730,0.960,0.555
4731,0.940,0.545
4732,0.925,0.540
4733,0.920,0.535
4734,0.925,0.540
4735,0.925,0.535
4736,0.875,0.520
4737,0.875,0.510
4738,0.820,0.500
4739,0.790,0.460
4740,0.745,0.450
4741,0.705,0.435
4742,0.695,0.455
4743,0.680,0.430
4744,0.650,0.445
4745,0.620,0.430
4746,0.575,0.385
4747,0.535,0.370
4748,0.495,0.370
4749,0.460,0.350
4750,0.460,0.355
4751,0.435,0.370
4752,0.445,0.355
4753,0.420,0.345
4754,0.405,0.335
4755,0.390,0.325
4756,0.355,0.315
4757,0.345,0.300
4758,0.340,0.310
4759,0.355,0.315
4760,0.355,0.325
4761,0.385,0.330
4762,0.365,0.330
4763,0.345,0.340
4764,0.330,0.315
4765,0.335,0.330
4766,0.350,0.310
4767,0.345,0.350
4768,0.360,0.350
4769,0.375,0.350
4770,0.370,0.355
4771,0.375,0.350
4772,0.330,0.345
4773,0.315,0.330
4774,0.330,0.315
4775,0.330,0.315
4776,0.340,0.340
4777,0.370,0.360
4778,0.365,0.360
4779,0.355,0.365
4780,0.385,0.335
4781,0.335,0.335
4782,0.355,0.340
4783,0.365,0.335
4784,0.395,0.350
4785,0.420,0.345
4786,0.430,0.375
4787,0.405,0.375
4788,0.425,0.345
4789,0.410,0.325
4790,0.405,0.315
4791,0.415,0.320
4792,0.410,0.315
4793,0.415,0.350
4794,0.405,0.340
4795,0.405,0.325
4796,0.385,0.330
4797,0.380,0.300
4798,0.360,0.285
4799,0.315,0.310
4800,0.340,0.290
4801,0.350,0.300
4802,0.355,0.315
4803,0.355,0.285
4804,0.335,0.305
4805,0.290,0.285
4806,0.285,0.275
4807,0.285,0.245
4808,0.260,0.220
4809,0.240,0.235
4810,0.235,0.230
4811,0.235,0.245
4812,0.195,0.240
4813,0.170,0.220
4814,0.155,0.215
4815,0.115,0.220
4816,0.125,0.225
4817,0.120,0.215
4818,0.115,0.225
4819,0.125,0.230
4820,0.120,0.210
4821,0.110,0.230
4822,0.060,0.210
4823,0.060,0.185
4824,0.055,0.185
4825,0.055,0.205
4826,0.075,0.210
4827,0.075,0.205
4828,0.100,0.195
4829,0.075,0.220
4830,0.050,0.220
4831,0.025,0.175
4832,0.025,0.195
4833,0.055,0.195
4834,0.065,0.195
4835,0.070,0.200
4836,0.085,0.205
4837,0.070,0.225
4838,0.070,0.200
4839,0.045,0.210
4840,0.035,0.185
4841,0.040,0.190
4842,0.075,0.205
4843,0.070,0.215
4844,0.085,0.250
4845,0.060,0.230
4846,0.075,0.240
4847,0.095,0.210
4848,0.085,0.200
4849,0.095,0.180
4850,0.095,0.125
4851,0.110,0.100
4852,0.105,0.050
4853,0.035,0.035
4854,-0.080,-0.010
4855,-0.230,-0.040
4856,-0.400,-0.070
4857,-0.510,-0.100
4858,-0.635,-0.100
4859,-0.660,-0.090
4860,-0.685,-0.080
4861,-0.700,-0.040
4862,-0.745,-0.055
4863,-0.750,-0.060
4864,-0.745,-0.075
4865,-0.760,-0.085
4866,-0.750,-0.070
4867,-0.720,-0.060
4868,-0.695,-0.040
4869,-0.690,-0.010
4870,-0.700,0.015
4871,-0.685,0.030
4872,-0.650,0.040
4873,-0.630,0.060
4874,-0.560,0.075
4875,-0.490,0.100
4876,-0.420,0.110
4877,-0.345,0.135
4878,-0.275,0.145
4879,-0.245,0.165
4880,-0.230,0.145
4881,-0.225,0.145
4882,-0.195,0.160
4883,-0.160,0.175
4884,-0.115,0.160
4885,-0.070,0.185
4886,-0.065,0.195
4887,-0.060,0.220
4888,-0.055,0.205
4889,-0.060,0.210
4890,-0.050,0.190
4891,-0.035,0.190
4892,-0.010,0.185
4893,0.005,0.215
4894,0.030,0.215
4895,0.040,0.230
4896,0.040,0.230
4897,0.020,0.205
4898,0.035,0.225
4899,0.035,0.230
4900,0.075,0.245
4901,0.110,0.245
4902,0.115,0.245
4903,0.130,0.250
4904,0.120,0.270
4905,0.130,0.260
4906,0.105,0.250
4907,0.130,0.235
4908,0.150,0.270
4909,0.180,0.290
4910,0.200,0.280
4911,0.205,0.310
4912,0.195,0.315
4913,0.220,0.300
4914,0.210,0.315
4915,0.240,0.310
4916,0.265,0.300
4917,0.300,0.320
4918,0.330,0.310
4919,0.340,0.315
4920,0.335,0.315
4921,0.340,0.315
4922,0.305,0.290
4923,0.295,0.285
4924,0.290,0.260
4925,0.305,0.260
4926,0.305,0.265
4927,0.300,0.260
4928,0.260,0.260
4929,0.225,0.265
4930,0.190,0.245
4931,0.175,0.225
4932,0.145,0.205
4933,0.150,0.200
4934,0.145,0.205
4935,0.140,0.215
4936,0.100,0.210
4937,0.090,0.185
4938,0.065,0.180
4939,0.030,0.170
4940,0.020,0.145
4941,-0.010,0.155
4942,0.015,0.150
4943,0.010,0.160
4944,0.015,0.145
4945,-0.020,0.140
4946,-0.070,0.140
4947,-0.105,0.120
4948,-0.135,0.120
4949,-0.160,0.110
4950,-0.185,0.095
4951,-0.185,0.125
4952,-0.205,0.120
4953,-0.185,0.120
4954,-0.215,0.125
4955,-0.240,0.110
4956,-0.260,0.120
4957,-0.285,0.075
4958,-0.250,0.095
4959,-0.240,0.100
4960,-0.220,0.115
4961,-0.220,0.110
4962,-0.240,0.115
4963,-0.255,0.120
4964,-0.275,0.110
4965,-0.275,0.100
4966,-0.275,0.110
4967,-0.250,0.105
4968,-0.245,0.120
4969,-0.225,0.120
4970,-0.250,0.110
4971,-0.220,0.125
4972,-0.260,0.110
4973,-0.250,0.090
4974,-0.260,0.090
4975,-0.250,0.100
4976,-0.240,0.095
4977,-0.230,0.145
4978,-0.225,0.115
4979,-0.240,0.115
4980,-0.255,0.095
4981,-0.265,0.105
4982,-0.285,0.095
4983,-0.275,0.110
4984,-0.255,0.120
4985,-0.235,0.120
4986,-0.210,0.125
4987,-0.200,0.125
4988,-0.200,0.085
4989,-0.260,0.050
4990,-0.250,0.015
4991,-0.315,-0.050
4992,-0.310,-0.085
4993,-0.345,-0.120
4994,-0.410,-0.120
4995,-0.550,-0.165
4996,-0.675,-0.165
4997,-0.780,-0.220
4998,-0.875,-0.215
4999,-0.940,-0.230
5000,-0.940,-0.230
5001,-0.950,-0.230
5002,-0.960,-0.205
5003,-0.990,-0.200
5004,-0.990,-0.165
5005,-1.020,-0.205
5006,-1.030,-0.210
5007,-1.020,-0.235
5008,-1.015,-0.195
5009,-0.985,-0.160
5010,-0.955,-0.145
5011,-0.940,-0.095
5012,-0.925,-0.085
5013,-0.910,-0.070
5014,-0.865,-0.065
5015,-0.835,-0.060
5016,-0.770,-0.050
5017,-0.705,-0.015
5018,-0.650,-0.010
5019,-0.615,0.020
5020,-0.590,0.020
5021,-0.565,0.035
5022,-0.560,0.035
5023,-0.545,0.010
5024,-0.535,0.030
5025,-0.470,0.035
5026,-0.485,0.060
5027,-0.465,0.075
5028,-0.430,0.080
5029,-0.445,0.090
5030,-0.445,0.075
5031,-0.460,0.060
5032,-0.465,0.085
5033,-0.440,0.065
5034,-0.405,0.095
5035,-0.375,0.095
5036,-0.365,0.110
5037,-0.360,0.115
5038,-0.355,0.105
5039,-0.360,0.105
5040,-0.345,0.100
5041,-0.350,0.115
5042,-0.325,0.115
5043,-0.295,0.130
5044,-0.260,0.165
5045,-0.255,0.145
5046,-0.245,0.150
5047,-0.255,0.155
5048,-0.265,0.135
5049,-0.255,0.150
5050,-0.230,0.190
5051,-0.190,0.195
5052,-0.155,0.195
5053,-0.140,0.195
5054,-0.145,0.205
5055,-0.125,0.190
5056,-0.140,0.190
5057,-0.120,0.190
5058,-0.095,0.175
5059,-0.070,0.195
5060,-0.065,0.210
5061,-0.045,0.195
5062,-0.065,0.190
5063,-0.090,0.170
5064,-0.105,0.175
5065,-0.145,0.145
5066,-0.145,0.145
5067,-0.135,0.140
5068,-0.145,0.130
5069,-0.170,0.155
5070,-0.160,0.140
5071,-0.190,0.150
5072,-0.225,0.115
5073,-0.255,0.105
5074,-0.280,0.085
5075,-0.270,0.080
5076,-0.280,0.095
5077,-0.275,0.110
5078,-0.300,0.090
5079,-0.325,0.070
5080,-0.335,0.055
5081,-0.390,0.045
5082,-0.395,0.015
5083,-0.375,0.020
5084,-0.395,0.020
5085,-0.410,0.025
5086,-0.405,0.035
5087,-0.470,0.000
5088,-0.490,0.020
5089,-0.540,-0.020
5090,-0.535,-0.050
5091,-0.525,-0.025
5092,-0.520,-0.025
5093,-0.525,-0.005
5094,-0.525,0.000
5095,-0.515,-0.010
5096,-0.525,-0.025
5097,-0.550,-0.040
5098,-0.560,-0.050
5099,-0.585,-0.060
5100,-0.570,-0.055
5101,-0.545,-0.050
5102,-0.540,-0.065
5103,-0.535,-0.040
5104,-0.570,-0.040
5105,-0.580,-0.055
5106,-0.595,-0.050
5107,-0.590,-0.100
5108,-0.600,-0.070
5109,-0.565,-0.055
5110,-0.570,-0.045
5111,-0.545,-0.050
5112,-0.585,-0.035
5113,-0.580,-0.065
5114,-0.620,-0.075
5115,-0.620,-0.060
5116,-0.595,-0.045
5117,-0.590,-0.065
5118,-0.585,-0.045
5119,-0.555,-0.060
5120,-0.585,-0.010
5121,-0.575,-0.025
5122,-0.615,-0.030
5123,-0.625,-0.060
5124,-0.615,-0.065
5125,-0.590,-0.050
5126,-0.555,-0.055
5127,-0.540,-0.025
5128,-0.550,-0.070
5129,-0.585,-0.100
5130,-0.610,-0.170
5131,-0.645,-0.195
5132,-0.690,-0.255
5133,-0.750,-0.280
5134,-0.855,-0.285
5135,-0.960,-0.290
5136,-1.025,-0.275
5137,-1.100,-0.285
5138,-1.125,-0.315
5139,-1.145,-0.315
5140,-1.145,-0.325
5141,-1.165,-0.325
5142,-1.140,-0.295
5143,-1.140,-0.280
5144,-1.115,-0.275
5145,-1.105,-0.245
5146,-1.105,-0.265
5147,-1.130,-0.260
5148,-1.120,-0.235
5149,-1.110,-0.200
5150,-1.095,-0.170
5151,-1.010,-0.150
5152,-0.970,-0.115
5153,-0.920,-0.090
5154,-0.880,-0.075
5155,-0.840,-0.090
5156,-0.800,-0.070
5157,-0.765,-0.085
5158,-0.705,-0.055
5159,-0.680,-0.010
5160,-0.640,0.000
5161,-0.585,0.015
5162,-0.575,0.010
5163,-0.555,0.000
5164,-0.555,0.015
5165,-0.530,0.025
5166,-0.525,0.035
5167,-0.485,0.045
5168,-0.470,0.065
5169,-0.425,0.065
5170,-0.435,0.055
5171,-0.430,0.055
5172,-0.415,0.050
5173,-0.430,0.035
5174,-0.395,0.065
5175,-0.370,0.070
5176,-0.335,0.110
5177,-0.305,0.110
5178,-0.290,0.125
5179,-0.275,0.125
5180,-0.315,0.110
5181,-0.295,0.125
5182,-0.260,0.130
5183,-0.225,0.145
5184,-0.215,0.145
5185,-0.190,0.185
5186,-0.170,0.185
5187,-0.170,0.185
5188,-0.145,0.145
5189,-0.140,0.160
5190,-0.135,0.185
5191,-0.095,0.205
5192,-0.060,0.205
5193,-0.020,0.220
5194,-0.010,0.220
5195,-0.005,0.205
5196,-0.015,0.200
5197,-0.035,0.180
5198,-0.045,0.165
5199,-0.045,0.165
5200,-0.035,0.180
5201,-0.035,0.175
5202,-0.040,0.200
5203,-0.065,0.180
5204,-0.055,0.165
5205,-0.115,0.140
5206,-0.130,0.120
5207,-0.150,0.110
5208,-0.150,0.105
5209,-0.150,0.105
5210,-0.145,0.115
5211,-0.150,0.115
5212,-0.180,0.115
5213,-0.200,0.090
5214,-0.230,0.055
5215,-0.250,0.065
5216,-0.255,0.055
5217,-0.270,0.050
5218,-0.260,0.030
5219,-0.255,0.055
5220,-0.290,0.025
5221,-0.325,0.015
5222,-0.360,0.000
5223,-0.395,0.000
5224,-0.415,-0.020
5225,-0.410,0.005
5226,-0.385,0.000
5227,-0.405,0.030
5228,-0.395,0.045
5229,-0.390,0.005
5230,-0.405,0.000
5231,-0.415,-0.025
5232,-0.440,-0.010
5233,-0.430,-0.020
5234,-0.450,0.000
5235,-0.425,0.000
5236,-0.415,0.030
5237,-0.445,0.015
5238,-0.450,0.015
5239,-0.460,-0.015
5240,-0.455,0.000
5241,-0.450,-0.010
5242,-0.450,0.015
5243,-0.440,0.020
5244,-0.450,0.040
5245,-0.440,0.040
5246,-0.430,0.020
5247,-0.460,-0.005
5248,-0.465,0.010
5249,-0.460,0.000
5250,-0.445,0.015
5251,-0.435,0.035
5252,-0.405,0.040
5253,-0.395,0.045
5254,-0.430,0.035
5255,-0.440,0.040
5256,-0.460,0.020
5257,-0.435,0.030
5258,-0.420,0.020
5259,-0.410,0.040
5260,-0.385,0.065
5261,-0.370,0.055
5262,-0.370,0.070
5263,-0.385,0.015
5264,-0.420,-0.015
5265,-0.440,-0.090
5266,-0.470,-0.115
5267,-0.480,-0.125
5268,-0.500,-0.140
5269,-0.580,-0.160
5270,-0.690,-0.175
5271,-0.765,-0.195
5272,-0.870,-0.205
5273,-0.915,-0.255
5274,-0.925,-0.245
5275,-0.940,-0.255
5276,-0.950,-0.215
5277,-0.955,-0.200
5278,-0.960,-0.210
5279,-0.985,-0.220
5280,-0.975,-0.215
5281,-0.960,-0.195
5282,-0.955,-0.185
5283,-0.955,-0.175
5284,-0.920,-0.145
5285,-0.885,-0.100
5286,-0.880,-0.070
5287,-0.845,-0.045
5288,-0.810,-0.040
5289,-0.775,0.000
5290,-0.690,0.005
5291,-0.635,0.020
5292,-0.585,0.030
5293,-0.510,0.060
5294,-0.480,0.065
5295,-0.470,0.085
5296,-0.390,0.080
5297,-0.390,0.100
5298,-0.370,0.100
5299,-0.325,0.105
5300,-0.285,0.125
5301,-0.230,0.145
5302,-0.200,0.145
5303,-0.225,0.145
5304,-0.180,0.170
5305,-0.195,0.160
5306,-0.165,0.155
5307,-0.170,0.160
5308,-0.130,0.160
5309,-0.100,0.190
5310,-0.075,0.200
5311,-0.035,0.245
5312,-0.010,0.230
5313,-0.025,0.230
5314,-0.010,0.210
5315,0.005,0.210
5316,0.015,0.220
5317,0.045,0.260
5318,0.065,0.270
5319,0.115,0.290
5320,0.100,0.285
5321,0.115,0.275
5322,0.140,0.290
5323,0.180,0.270
5324,0.190,0.310
5325,0.220,0.315
5326,0.255,0.315
5327,0.295,0.340
5328,0.270,0.315
5329,0.280,0.325
5330,0.285,0.285
5331,0.300,0.300
5332,0.280,0.300
5333,0.295,0.295
5334,0.330,0.305
5335,0.340,0.315
5336,0.340,0.315
5337,0.325,0.285
5338,0.285,0.275
5339,0.255,0.280
5340,0.215,0.240
5341,0.215,0.255
5342,0.195,0.260
5343,0.195,0.255
5344,0.210,0.270
5345,0.155,0.245
5346,0.145,0.225
5347,0.115,0.205
5348,0.100,0.220
5349,0.095,0.200
5350,0.085,0.205
5351,0.100,0.230
5352,0.090,0.230
5353,0.055,0.195
5354,0.030,0.190
5355,0.000,0.160
5356,-0.015,0.160
5357,-0.040,0.165
5358,-0.045,0.155
5359,-0.045,0.150
5360,-0.055,0.165
5361,-0.050,0.155
5362,-0.070,0.150
5363,-0.105,0.140
5364,-0.110,0.135
5365,-0.130,0.140
5366,-0.120,0.120
5367,-0.100,0.160
5368,-0.090,0.155
5369,-0.075,0.145
5370,-0.100,0.160
5371,-0.095,0.135
5372,-0.130,0.125
5373,-0.140,0.140
5374,-0.140,0.120
5375,-0.110,0.145
5376,-0.080,0.145
5377,-0.075,0.140
5378,-0.100,0.150
5379,-0.090,0.135
5380,-0.145,0.125
5381,-0.160,0.135
5382,-0.140,0.105
5383,-0.120,0.140
5384,-0.115,0.135
5385,-0.105,0.155
5386,-0.120,0.155
5387,-0.105,0.165
5388,-0.110,0.135
5389,-0.145,0.135
5390,-0.150,0.130
5391,-0.125,0.115
5392,-0.095,0.155
5393,-0.100,0.170
5394,-0.080,0.185
5395,-0.090,0.155
5396,-0.075,0.150
5397,-0.075,0.100
5398,-0.060,0.085
5399,-0.085,0.075
5400,-0.080,0.035
5401,-0.090,0.020
5402,-0.100,0.000
5403,-0.160,-0.040
5404,-0.290,-0.070
5405,-0.415,-0.105
5406,-0.520,-0.105
5407,-0.610,-0.155
5408,-0.675,-0.150
5409,-0.705,-0.125
5410,-0.705,-0.120
5411,-0.720,-0.120
5412,-0.735,-0.110
5413,-0.780,-0.140
5414,-0.785,-0.150
5415,-0.800,-0.155
5416,-0.780,-0.130
5417,-0.755,-0.125
5418,-0.750,-0.080
5419,-0.735,-0.050
5420,-0.720,-0.035
5421,-0.705,-0.030
5422,-0.685,-0.020
5423,-0.620,0.000
5424,-0.565,0.030
5425,-0.485,0.060
5426,-0.380,0.085
5427,-0.315,0.120
5428,-0.270,0.125
5429,-0.230,0.130
5430,-0.195,0.125
5431,-0.170,0.160
5432,-0.135,0.140
5433,-0.070,0.185
5434,0.000,0.180
5435,0.045,0.210
5436,0.050,0.225
5437,0.060,0.230
5438,0.080,0.205
5439,0.070,0.210
5440,0.105,0.235
5441,0.130,0.225
5442,0.155,0.250
5443,0.190,0.250
5444,0.220,0.275
5445,0.230,0.280
5446,0.235,0.270
5447,0.240,0.260
5448,0.260,0.285
5449,0.275,0.285
5450,0.315,0.300
5451,0.345,0.325
5452,0.375,0.335
5453,0.390,0.335
5454,0.395,0.335
5455,0.390,0.335
5456,0.425,0.350
5457,0.440,0.340
5458,0.470,0.350
5459,0.515,0.375
5460,0.555,0.395
5461,0.555,0.400
5462,0.565,0.420
5463,0.550,0.405
5464,0.555,0.380
5465,0.575,0.365
5466,0.595,0.380
5467,0.610,0.370
5468,0.625,0.395
5469,0.630,0.375
5470,0.630,0.365
5471,0.595,0.350
5472,0.580,0.335
5473,0.570,0.325
5474,0.565,0.295
5475,0.530,0.300
5476,0.515,0.315
5477,0.470,0.300
5478,0.450,0.300
5479,0.410,0.310
5480,0.390,0.280
5481,0.395,0.255
5482,0.375,0.265
5483,0.365,0.260
5484,0.370,0.255
5485,0.375,0.250
5486,0.345,0.245
5487,0.325,0.255
5488,0.300,0.220
5489,0.285,0.200
5490,0.290,0.185
5491,0.260,0.180
5492,0.225,0.180
5493,0.200,0.190
5494,0.190,0.195
5495,0.155,0.175
5496,0.155,0.170
5497,0.110,0.160
5498,0.105,0.165
5499,0.120,0.140
5500,0.115,0.155
5501,0.125,0.155
5502,0.115,0.140
5503,0.115,0.145
5504,0.080,0.165
5505,0.060,0.145
5506,0.050,0.135
5507,0.065,0.120
5508,0.075,0.125
5509,0.085,0.145
5510,0.105,0.135
5511,0.095,0.135
5512,0.075,0.160
5513,0.050,0.135
5514,0.040,0.125
5515,0.025,0.115
5516,0.030,0.100
5517,0.050,0.110
5518,0.045,0.115
5519,0.065,0.120
5520,0.050,0.130
5521,0.040,0.140
5522,0.025,0.120
5523,0.015,0.095
5524,0.015,0.105
5525,0.025,0.110
5526,0.035,0.125
5527,0.055,0.140
5528,0.045,0.155
5529,0.030,0.135
5530,0.015,0.130
5531,0.010,0.110
5532,0.040,0.120
5533,0.050,0.100
5534,0.085,0.090
5535,0.095,0.080
5536,0.080,0.040
5537,0.055,0.000
5538,-0.025,-0.080
5539,-0.105,-0.115
5540,-0.225,-0.130
5541,-0.335,-0.160
5542,-0.480,-0.150
5543,-0.580,-0.160
5544,-0.635,-0.145
5545,-0.660,-0.150
5546,-0.685,-0.150
5547,-0.710,-0.155
5548,-0.735,-0.150
5549,-0.720,-0.160
5550,-0.730,-0.140
5551,-0.695,-0.120
5552,-0.670,-0.090
5553,-0.650,-0.085
5554,-0.640,-0.055
5555,-0.670,-0.060
5556,-0.640,-0.015
5557,-0.595,-0.015
5558,-0.515,0.010
5559,-0.450,0.040
5560,-0.360,0.080
5561,-0.285,0.070
5562,-0.235,0.095
5563,-0.200,0.085
5564,-0.160,0.105
5565,-0.115,0.115
5566,-0.070,0.100
5567,-0.010,0.140
5568,0.050,0.145
5569,0.075,0.170
5570,0.090,0.165
5571,0.120,0.165
5572,0.115,0.140
5573,0.140,0.155
5574,0.190,0.150
5575,0.215,0.180
5576,0.230,0.180
5577,0.275,0.220
5578,0.275,0.210
5579,0.275,0.210
5580,0.270,0.195
5581,0.310,0.195
5582,0.330,0.215
5583,0.370,0.220
5584,0.400,0.230
5585,0.425,0.215
5586,0.440,0.250
5587,0.430,0.240
5588,0.435,0.255
5589,0.450,0.255
5590,0.475,0.235
5591,0.495,0.240
5592,0.525,0.275
5593,0.560,0.260
5594,0.580,0.290
5595,0.575,0.295
5596,0.590,0.295
5597,0.590,0.295
5598,0.630,0.260
5599,0.665,0.275
5600,0.675,0.265
5601,0.705,0.280
5602,0.715,0.275
5603,0.695,0.275
5604,0.680,0.285
5605,0.680,0.245
5606,0.650,0.235
5607,0.590,0.230
5608,0.595,0.235
5609,0.595,0.230
5610,0.580,0.225
5611,0.560,0.210
5612,0.510,0.210
5613,0.480,0.165
5614,0.435,0.175
5615,0.410,0.165
5616,0.400,0.135
5617,0.375,0.160
5618,0.370,0.150
5619,0.340,0.135
5620,0.300,0.155
5621,0.280,0.135
5622,0.240,0.105
5623,0.225,0.085
5624,0.200,0.065
5625,0.155,0.075
5626,0.140,0.085
5627,0.110,0.080
5628,0.100,0.095
5629,0.045,0.100
5630,0.020,0.080
5631,-0.010,0.060
5632,-0.010,0.035
5633,-0.010,0.055
5634,-0.010,0.040
5635,-0.035,0.065
5636,-0.050,0.065
5637,-0.060,0.060
5638,-0.110,0.035
5639,-0.130,0.030
5640,-0.130,0.020
5641,-0.115,0.010
5642,-0.110,0.040
5643,-0.100,0.025
5644,-0.120,0.035
5645,-0.125,0.055
5646,-0.155,0.035
5647,-0.165,0.015
5648,-0.185,0.000
5649,-0.185,0.000
5650,-0.180,0.015
5651,-0.145,0.015
5652,-0.145,0.010
5653,-0.170,0.020
5654,-0.160,0.015
5655,-0.180,0.025
5656,-0.185,-0.025
5657,-0.185,0.000
5658,-0.160,-0.015
5659,-0.140,0.020
5660,-0.140,0.040
5661,-0.105,0.035
5662,-0.160,0.025
5663,-0.155,0.035
5664,-0.140,0.010
5665,-0.115,0.000
5666,-0.110,-0.020
5667,-0.075,0.000
5668,-0.070,-0.035
5669,-0.065,-0.055
5670,-0.090,-0.100
5671,-0.170,-0.150
5672,-0.260,-0.220
5673,-0.390,-0.220
5674,-0.510,-0.220
5675,-0.600,-0.210
5676,-0.680,-0.225
5677,-0.705,-0.215
5678,-0.745,-0.205
5679,-0.750,-0.225
5680,-0.765,-0.230
5681,-0.790,-0.250
5682,-0.770,-0.235
5683,-0.735,-0.205
5684,-0.710,-0.205
5685,-0.695,-0.190
5686,-0.670,-0.185
5687,-0.690,-0.130
5688,-0.685,-0.135
5689,-0.650,-0.120
5690,-0.600,-0.100
5691,-0.575,-0.080
5692,-0.475,-0.045
5693,-0.415,-0.045
5694,-0.325,0.000
5695,-0.290,0.000
5696,-0.275,0.005
5697,-0.215,-0.010
5698,-0.180,-0.015
5699,-0.140,0.000
5700,-0.080,0.005
5701,-0.030,0.045
5702,-0.020,0.055
5703,-0.010,0.065
5704,0.020,0.075
5705,0.020,0.060
5706,0.050,0.050
5707,0.075,0.060
5708,0.090,0.070
5709,0.145,0.075
5710,0.155,0.095
5711,0.170,0.095
5712,0.175,0.115
5713,0.195,0.110
5714,0.195,0.105
5715,0.210,0.100
5716,0.230,0.100
5717,0.250,0.115
5718,0.285,0.120
5719,0.300,0.155
5720,0.300,0.145
5721,0.315,0.145
5722,0.335,0.150
5723,0.355,0.140
5724,0.355,0.170
5725,0.385,0.175
5726,0.430,0.175
5727,0.415,0.185
5728,0.450,0.200
5729,0.440,0.210
5730,0.460,0.185
5731,0.460,0.195
5732,0.525,0.175
5733,0.525,0.180
5734,0.550,0.190
5735,0.560,0.200
5736,0.590,0.190
5737,0.570,0.190
5738,0.565,0.185
5739,0.550,0.155
5740,0.540,0.145
5741,0.520,0.130
5742,0.495,0.150
5743,0.510,0.155
5744,0.490,0.135
5745,0.450,0.140
5746,0.430,0.115
5747,0.385,0.105
5748,0.355,0.070
5749,0.335,0.070
5750,0.330,0.070
5751,0.335,0.085
5752,0.315,0.095
5753,0.295,0.075
5754,0.280,0.100
5755,0.250,0.070
5756,0.215,0.030
5757,0.210,0.020
5758,0.195,-0.005
5759,0.190,0.040
5760,0.170,0.045
5761,0.160,0.035
5762,0.125,0.025
5763,0.070,0.005
5764,0.040,-0.005
5765,0.040,-0.020
5766,0.010,-0.030
5767,0.015,-0.005
5768,0.005,-0.020
5769,0.020,0.000
5770,0.005,0.000
5771,-0.015,0.000
5772,-0.045,-0.025
5773,-0.035,-0.020
5774,-0.055,-0.040
5775,-0.045,-0.005
5776,-0.035,-0.005
5777,-0.055,0.005
5778,-0.045,-0.015
5779,-0.060,0.010
5780,-0.095,-0.020
5781,-0.105,-0.020
5782,-0.095,-0.050
5783,-0.085,-0.025
5784,-0.060,-0.025
5785,-0.070,0.000
5786,-0.060,0.010
5787,-0.100,-0.005
5788,-0.115,0.000
5789,-0.140,-0.030
5790,-0.130,-0.040
5791,-0.110,-0.035
5792,-0.105,-0.030
5793,-0.110,-0.010
5794,-0.105,-0.020
5795,-0.115,-0.015
5796,-0.130,0.000
5797,-0.140,0.000
5798,-0.145,-0.025
5799,-0.140,-0.040
5800,-0.125,-0.040
5801,-0.095,-0.035
5802,-0.095,-0.010
5803,-0.105,-0.040
5804,-0.095,-0.050
5805,-0.120,-0.075
5806,-0.145,-0.135
5807,-0.160,-0.160
5808,-0.210,-0.190
5809,-0.285,-0.210
5810,-0.425,-0.205
5811,-0.535,-0.235
5812,-0.640,-0.240
5813,-0.730,-0.275
5814,-0.800,-0.265
5815,-0.800,-0.295
5816,-0.800,-0.265
5817,-0.790,-0.250
5818,-0.795,-0.250
5819,-0.775,-0.230
5820,-0.785,-0.225
5821,-0.775,-0.225
5822,-0.780,-0.240
5823,-0.775,-0.225
5824,-0.740,-0.210
5825,-0.715,-0.175
5826,-0.665,-0.155
5827,-0.600,-0.115
5828,-0.560,-0.125
5829,-0.525,-0.100
5830,-0.475,-0.100
5831,-0.425,-0.070
5832,-0.360,-0.100
5833,-0.320,-0.080
5834,-0.265,-0.045
5835,-0.240,-0.040
5836,-0.200,-0.020
5837,-0.155,-0.015
5838,-0.160,-0.020
5839,-0.155,-0.020
5840,-0.120,-0.025
5841,-0.095,-0.035
5842,-0.065,-0.020
5843,-0.025,0.005
5844,-0.030,0.020
5845,-0.010,0.040
5846,-0.010,0.010
5847,-0.010,0.010
5848,0.015,0.015
5849,0.015,0.000
5850,0.065,0.035
5851,0.085,0.035
5852,0.130,0.055
5853,0.115,0.075
5854,0.135,0.065
5855,0.120,0.070
5856,0.145,0.045
5857,0.170,0.045
5858,0.185,0.065
5859,0.215,0.080
5860,0.245,0.100
5861,0.270,0.110
5862,0.275,0.105
5863,0.290,0.100
5864,0.290,0.105
5865,0.305,0.075
5866,0.330,0.085
5867,0.355,0.105
5868,0.395,0.115
5869,0.420,0.135
5870,0.425,0.145
5871,0.420,0.120
5872,0.395,0.075
5873,0.395,0.085
5874,0.380,0.080
5875,0.370,0.090
5876,0.375,0.105
5877,0.385,0.095
5878,0.365,0.125
5879,0.345,0.100
5880,0.300,0.065
5881,0.295,0.050
5882,0.280,0.030
5883,0.310,0.030
5884,0.290,0.045
5885,0.305,0.005
5886,0.275,0.000
5887,0.245,0.000
5888,0.175,-0.040
5889,0.100,-0.095
5890,0.045,-0.150
5891,-0.045,-0.180
5892,-0.110,-0.215
5893,-0.240,-0.235
5894,-0.415,-0.225
5895,-0.570,-0.255
5896,-0.700,-0.270
5897,-0.830,-0.295
5898,-0.885,-0.305
5899,-0.900,-0.320
5900,-0.915,-0.305
5901,-0.885,-0.310
5902,-0.945,-0.290
5903,-0.940,-0.280
5904,-0.960,-0.280
5905,-0.980,-0.310
5906,-0.960,-0.290
5907,-0.940,-0.290
5908,-0.920,-0.260
5909,-0.880,-0.245
5910,-0.845,-0.240
5911,-0.825,-0.250
5912,-0.820,-0.235
5913,-0.825,-0.275
5914,-0.860,-0.245
5915,-0.850,-0.245
5916,-0.830,-0.225
5917,-0.805,-0.205
5918,-0.760,-0.190
5919,-0.725,-0.155
5920,-0.700,-0.100
5921,-0.655,-0.140
5922,-0.600,-0.095
5923,-0.520,-0.080
5924,-0.420,-0.065
5925,-0.305,-0.040
5926,-0.180,-0.030
5927,-0.110,-0.005
5928,-0.055,0.000
5929,0.000,0.000
5930,0.000,-0.005
5931,0.030,0.010
5932,0.080,-0.005
5933,0.125,0.010
5934,0.155,0.045
5935,0.205,0.050
5936,0.230,0.050
5937,0.285,0.055
5938,0.280,0.065
5939,0.285,0.050
5940,0.300,0.045
5941,0.360,0.070
5942,0.395,0.095
5943,0.440,0.090
5944,0.490,0.100
5945,0.515,0.110
5946,0.510,0.100
5947,0.510,0.095
5948,0.520,0.080
5949,0.545,0.100
5950,0.555,0.080
5951,0.570,0.110
5952,0.580,0.105
5953,0.570,0.110
5954,0.585,0.095
5955,0.525,0.085
5956,0.525,0.085
5957,0.515,0.075
5958,0.535,0.080
5959,0.535,0.110
5960,0.535,0.115
5961,0.535,0.080
5962,0.495,0.090
5963,0.470,0.080
5964,0.410,0.055
5965,0.420,0.050
5966,0.440,0.055
5967,0.390,0.035
5968,0.400,0.045
5969,0.390,0.060
5970,0.350,0.055
5971,0.330,0.035
5972,0.285,0.015
5973,0.280,0.010
5974,0.260,0.020
5975,0.260,0.015
5976,0.245,0.020
5977,0.245,0.020
5978,0.240,0.025
5979,0.190,0.020
5980,0.160,0.000
5981,0.130,-0.005
5982,0.130,0.005
5983,0.110,-0.010
5984,0.115,0.010
5985,0.140,0.015
5986,0.125,0.020
5987,0.140,0.025
5988,0.095,-0.020
5989,0.070,0.000
5990,0.075,-0.020
5991,0.080,-0.010
5992,0.105,0.000
5993,0.115,0.000
5994,0.115,0.010
5995,0.110,0.000
5996,0.105,0.005
5997,0.080,0.000
5998,0.050,-0.005
5999,0.080,-0.005
6000,0.085,0.010
6001,0.100,0.015
6002,0.155,0.030
6003,0.155,0.040
6004,0.155,0.020
6005,0.150,0.000
6006,0.125,-0.005
6007,0.140,-0.005
6008,0.160,-0.005
6009,0.180,0.005
6010,0.170,0.015
6011,0.145,0.000
6012,0.150,0.015
6013,0.120,-0.020
6014,0.095,-0.015
6015,0.080,-0.035
6016,0.085,-0.035
6017,0.040,0.000
6018,0.060,-0.005
6019,0.075,-0.015
6020,0.035,-0.020
6021,0.010,-0.025
6022,-0.025,-0.050
6023,-0.040,-0.060
6024,-0.075,-0.090
6025,-0.080,-0.070
6026,-0.080,-0.085
6027,-0.090,-0.065
6028,-0.115,-0.090
6029,-0.150,-0.075
6030,-0.205,-0.100
6031,-0.255,-0.125
6032,-0.270,-0.135
6033,-0.285,-0.115
6034,-0.300,-0.115
6035,-0.295,-0.115
6036,-0.335,-0.155
6037,-0.340,-0.125
6038,-0.375,-0.155
6039,-0.415,-0.160
6040,-0.410,-0.150
6041,-0.440,-0.175
6042,-0.425,-0.160
6043,-0.425,-0.145
6044,-0.430,-0.160
6045,-0.440,-0.115
6046,-0.475,-0.155
6047,-0.490,-0.180
6048,-0.520,-0.170
6049,-0.500,-0.185
6050,-0.525,-0.190
6051,-0.520,-0.185
6052,-0.500,-0.170
6053,-0.500,-0.160
6054,-0.515,-0.145
6055,-0.545,-0.180
6056,-0.565,-0.190
6057,-0.555,-0.175
6058,-0.535,-0.175
6059,-0.520,-0.170
6060,-0.520,-0.160
6061,-0.530,-0.160
6062,-0.520,-0.170
6063,-0.545,-0.150
6064,-0.535,-0.155
6065,-0.565,-0.155
6066,-0.505,-0.160
6067,-0.485,-0.140
6068,-0.425,-0.150
6069,-0.450,-0.160
6070,-0.450,-0.160
6071,-0.480,-0.225
6072,-0.520,-0.240
6073,-0.555,-0.285
6074,-0.625,-0.310
6075,-0.705,-0.310
6076,-0.815,-0.325
6077,-0.930,-0.320
6078,-0.985,-0.295
6079,-1.055,-0.335
6080,-1.095,-0.345
6081,-1.120,-0.350
6082,-1.125,-0.330
6083,-1.150,-0.355
6084,-1.125,-0.320
6085,-1.100,-0.320
6086,-1.095,-0.315
6087,-1.095,-0.300
6088,-1.085,-0.315
6089,-1.120,-0.305
6090,-1.115,-0.315
6091,-1.085,-0.275
6092,-1.050,-0.220
6093,-0.990,-0.215
6094,-0.945,-0.215
6095,-0.900,-0.190
6096,-0.850,-0.185
6097,-0.820,-0.195
6098,-0.770,-0.190
6099,-0.720,-0.190
6100,-0.670,-0.140
6101,-0.605,-0.135
6102,-0.555,-0.130
6103,-0.555,-0.125
6104,-0.545,-0.145
6105,-0.530,-0.125
6106,-0.540,-0.145
6107,-0.500,-0.145
6108,-0.470,-0.130
6109,-0.450,-0.095
6110,-0.430,-0.085
6111,-0.425,-0.105
6112,-0.425,-0.090
6113,-0.440,-0.105
6114,-0.420,-0.105
6115,-0.400,-0.115
6116,-0.400,-0.105
6117,-0.370,-0.075
6118,-0.355,-0.055
6119,-0.335,-0.055
6120,-0.315,-0.040
6121,-0.335,-0.065
6122,-0.335,-0.075
6123,-0.315,-0.065
6124,-0.325,-0.065
6125,-0.290,-0.050
6126,-0.275,-0.045
6127,-0.260,-0.025
6128,-0.220,-0.030
6129,-0.235,-0.030
6130,-0.240,-0.020
6131,-0.225,-0.010
6132,-0.210,-0.010
6133,-0.185,-0.020
6134,-0.150,-0.010
6135,-0.105,0.020
6136,-0.115,0.020
6137,-0.100,0.015
6138,-0.105,0.005
6139,-0.095,0.000
6140,-0.070,-0.020
6141,-0.065,-0.015
6142,-0.055,0.040
6143,-0.015,0.020
6144,-0.025,0.030
6145,-0.040,0.000
6146,-0.050,-0.005
6147,-0.085,-0.015
6148,-0.110,-0.030
6149,-0.140,-0.050
6150,-0.140,-0.020
6151,-0.150,-0.030
6152,-0.140,-0.020
6153,-0.180,-0.020
6154,-0.200,-0.030
6155,-0.250,-0.060
6156,-0.270,-0.100
6157,-0.300,-0.060
6158,-0.310,-0.055
6159,-0.295,-0.070
6160,-0.305,-0.060
6161,-0.320,-0.060
6162,-0.330,-0.060
6163,-0.375,-0.085
6164,-0.430,-0.090
6165,-0.440,-0.130
6166,-0.440,-0.135
6167,-0.445,-0.130
6168,-0.475,-0.115
6169,-0.510,-0.115
6170,-0.545,-0.105
6171,-0.560,-0.130
6172,-0.585,-0.150
6173,-0.625,-0.155
6174,-0.610,-0.155
6175,-0.610,-0.145
6176,-0.605,-0.135
6177,-0.605,-0.110
6178,-0.615,-0.130
6179,-0.630,-0.125
6180,-0.640,-0.155
6181,-0.665,-0.155
6182,-0.670,-0.150
6183,-0.655,-0.155
6184,-0.655,-0.140
6185,-0.635,-0.125
6186,-0.630,-0.115
6187,-0.650,-0.110
6188,-0.675,-0.135
6189,-0.680,-0.135
6190,-0.710,-0.135
6191,-0.680,-0.130
6192,-0.670,-0.110
6193,-0.635,-0.100
6194,-0.635,-0.095
6195,-0.645,-0.110
6196,-0.645,-0.130
6197,-0.645,-0.130
6198,-0.665,-0.145
6199,-0.650,-0.125
6200,-0.625,-0.105
6201,-0.635,-0.105
6202,-0.610,-0.095
6203,-0.615,-0.105
6204,-0.625,-0.100
6205,-0.640,-0.110
6206,-0.630,-0.135
6207,-0.610,-0.145
6208,-0.590,-0.130
6209,-0.555,-0.120
6210,-0.550,-0.135
6211,-0.580,-0.185
6212,-0.580,-0.205
6213,-0.635,-0.265
6214,-0.710,-0.310
6215,-0.780,-0.320
6216,-0.885,-0.325
6217,-1.005,-0.335
6218,-1.085,-0.335
6219,-1.145,-0.350
6220,-1.185,-0.355
6221,-1.225,-0.370
6222,-1.260,-0.375
6223,-1.260,-0.360
6224,-1.270,-0.355
6225,-1.255,-0.340
6226,-1.230,-0.320
6227,-1.235,-0.315
6228,-1.235,-0.315
6229,-1.205,-0.285
6230,-1.220,-0.300
6231,-1.225,-0.290
6232,-1.220,-0.290
6233,-1.155,-0.250
6234,-1.110,-0.220
6235,-1.030,-0.205
6236,-1.005,-0.195
6237,-0.955,-0.155
6238,-0.940,-0.185
6239,-0.930,-0.175
6240,-0.875,-0.170
6241,-0.820,-0.140
6242,-0.765,-0.130
6243,-0.730,-0.115
6244,-0.700,-0.090
6245,-0.695,-0.095
6246,-0.675,-0.115
6247,-0.685,-0.115
6248,-0.660,-0.125
6249,-0.640,-0.120
6250,-0.640,-0.115
6251,-0.605,-0.075
6252,-0.560,-0.070
6253,-0.570,-0.080
6254,-0.580,-0.075
6255,-0.575,-0.080
6256,-0.595,-0.075
6257,-0.575,-0.070
6258,-0.570,-0.045
6259,-0.530,-0.060
6260,-0.500,-0.040
6261,-0.475,-0.040
6262,-0.470,-0.030
6263,-0.475,-0.025
6264,-0.465,-0.030
6265,-0.450,-0.030
6266,-0.445,-0.015
6267,-0.400,-0.005
6268,-0.360,0.010
6269,-0.350,0.005
6270,-0.335,0.025
6271,-0.320,0.010
6272,-0.320,0.010
6273,-0.320,0.020
6274,-0.315,0.020
6275,-0.290,0.020
6276,-0.220,0.020
6277,-0.195,0.055
6278,-0.190,0.035
6279,-0.195,0.030
6280,-0.195,0.000
6281,-0.200,0.005
6282,-0.195,0.000
6283,-0.190,0.000
6284,-0.185,-0.010
6285,-0.195,-0.010
6286,-0.170,-0.005
6287,-0.215,-0.015
6288,-0.245,-0.015
6289,-0.285,-0.030
6290,-0.290,-0.060
6291,-0.310,-0.055
6292,-0.295,-0.010
6293,-0.290,-0.025
6294,-0.260,-0.050
6295,-0.280,-0.045
6296,-0.330,-0.095
6297,-0.360,-0.150
6298,-0.380,-0.175
6299,-0.440,-0.215
6300,-0.510,-0.255
6301,-0.565,-0.270
6302,-0.640,-0.305
6303,-0.760,-0.335
6304,-0.890,-0.355
6305,-1.030,-0.390
6306,-1.135,-0.410
6307,-1.200,-0.425
6308,-1.210,-0.420
6309,-1.240,-0.410
6310,-1.230,-0.415
6311,-1.240,-0.390
6312,-1.265,-0.410
6313,-1.275,-0.405
6314,-1.275,-0.405
6315,-1.275,-0.415
6316,-1.290,-0.415
6317,-1.275,-0.390
6318,-1.235,-0.370
6319,-1.240,-0.360
6320,-1.230,-0.330
6321,-1.245,-0.370
6322,-1.235,-0.355
6323,-1.245,-0.365
6324,-1.230,-0.345
6325,-1.190,-0.325
6326,-1.170,-0.295
6327,-1.140,-0.280
6328,-1.130,-0.240
6329,-1.120,-0.215
6330,-1.100,-0.190
6331,-1.055,-0.160
6332,-0.990,-0.125
6333,-0.925,-0.105
6334,-0.800,-0.070
6335,-0.685,-0.050
6336,-0.585,-0.015
6337,-0.540,0.005
6338,-0.455,0.000
6339,-0.430,0.010
6340,-0.375,0.010
6341,-0.330,0.025
6342,-0.300,0.055
6343,-0.240,0.075
6344,-0.180,0.105
6345,-0.180,0.125
6346,-0.105,0.110
6347,-0.110,0.105
6348,-0.055,0.120
6349,-0.030,0.135
6350,0.030,0.140
6351,0.070,0.195
6352,0.125,0.195
6353,0.165,0.195
6354,0.180,0.205
6355,0.225,0.200
6356,0.205,0.175
6357,0.250,0.190
6358,0.280,0.225
6359,0.350,0.235
6360,0.375,0.225
6361,0.375,0.225
6362,0.405,0.220
6363,0.395,0.205
6364,0.385,0.195
6365,0.390,0.195
6366,0.390,0.200
6367,0.405,0.195
6368,0.400,0.210
6369,0.395,0.220
6370,0.365,0.195
6371,0.355,0.175
6372,0.330,0.160
6373,0.305,0.150
6374,0.310,0.135
6375,0.290,0.165
6376,0.315,0.165
6377,0.300,0.160
6378,0.285,0.140
6379,0.235,0.135
6380,0.170,0.110
6381,0.140,0.105
6382,0.130,0.070
6383,0.120,0.070
6384,0.130,0.075
6385,0.105,0.085
6386,0.110,0.080
6387,0.085,0.075
6388,0.040,0.075
6389,0.010,0.070
6390,0.015,0.040
6391,-0.005,0.055
6392,0.020,0.095
6393,0.035,0.090
6394,0.025,0.070
6395,0.020,0.065
6396,0.040,0.070
6397,0.000,0.040
6398,0.000,0.065
6399,-0.010,0.060
6400,0.020,0.065
6401,0.015,0.060
6402,0.040,0.075
6403,0.035,0.085
6404,0.025,0.075
6405,0.015,0.075
6406,0.010,0.090
6407,0.010,0.085
6408,0.045,0.095
6409,0.075,0.110
6410,0.115,0.125
6411,0.135,0.145
6412,0.130,0.125
6413,0.130,0.105
6414,0.115,0.095
6415,0.130,0.105
6416,0.130,0.105
6417,0.180,0.130
6418,0.195,0.100
6419,0.215,0.130
6420,0.175,0.130
6421,0.175,0.125
6422,0.145,0.095
6423,0.165,0.085
6424,0.145,0.105
6425,0.160,0.125
6426,0.185,0.095
6427,0.180,0.105
6428,0.155,0.125
6429,0.165,0.080
6430,0.135,0.095
6431,0.130,0.075
6432,0.125,0.075
6433,0.125,0.055
6434,0.155,0.095
6435,0.140,0.060
6436,0.135,0.085
6437,0.090,0.080
6438,0.070,0.055
6439,0.030,0.025
6440,0.020,0.035
6441,0.005,0.050
6442,0.020,0.050
6443,0.025,0.050
6444,0.005,0.055
6445,-0.020,0.040
6446,0.000,0.035
6447,-0.040,0.035
6448,-0.045,0.000
6449,-0.040,0.000
6450,-0.020,0.010
6451,-0.015,0.035
6452,-0.030,0.020
6453,-0.015,0.045
6454,-0.025,0.045
6455,-0.070,0.010
6456,-0.075,0.020
6457,-0.065,0.020
6458,-0.055,0.025
6459,-0.035,0.040
6460,-0.010,0.050
6461,-0.020,0.065
6462,-0.020,0.050
6463,-0.030,0.045
6464,-0.050,0.035
6465,-0.055,0.030
6466,-0.020,0.045
6467,-0.010,0.050
6468,0.025,0.060
6469,0.025,0.060
6470,0.020,0.070
6471,-0.010,0.050
6472,-0.020,0.065
6473,0.005,0.060
6474,0.020,0.065
6475,0.075,0.065
6476,0.110,0.085
6477,0.155,0.075
6478,0.170,0.070
6479,0.145,0.030
6480,0.120,0.005
6481,0.100,-0.060
6482,0.060,-0.075
6483,0.005,-0.110
6484,-0.075,-0.130
6485,-0.190,-0.145
6486,-0.325,-0.185
6487,-0.420,-0.160
6488,-0.540,-0.195
6489,-0.600,-0.205
6490,-0.635,-0.235
6491,-0.660,-0.215
6492,-0.650,-0.185
6493,-0.655,-0.190
6494,-0.650,-0.180
6495,-0.645,-0.180
6496,-0.640,-0.145
6497,-0.650,-0.175
6498,-0.640,-0.160
6499,-0.640,-0.130
6500,-0.605,-0.095
6501,-0.565,-0.065
6502,-0.525,-0.035
6503,-0.460,-0.015
6504,-0.400,0.000
6505,-0.345,0.030
6506,-0.280,0.025
6507,-0.210,0.060
6508,-0.110,0.055
6509,-0.055,0.085
6510,-0.005,0.085
6511,0.025,0.100
6512,0.045,0.115
6513,0.095,0.115
6514,0.105,0.135
6515,0.140,0.115
6516,0.175,0.150
6517,0.225,0.145
6518,0.250,0.160
6519,0.270,0.170
6520,0.270,0.200
6521,0.295,0.190
6522,0.295,0.190
6523,0.305,0.170
6524,0.340,0.170
6525,0.355,0.200
6526,0.415,0.200
6527,0.425,0.210
6528,0.425,0.210
6529,0.425,0.225
6530,0.415,0.205
6531,0.425,0.215
6532,0.435,0.200
6533,0.465,0.230
6534,0.515,0.245
6535,0.535,0.260
6536,0.555,0.260
6537,0.550,0.260
6538,0.565,0.275
6539,0.560,0.265
6540,0.585,0.250
6541,0.620,0.265
6542,0.665,0.290
6543,0.700,0.295
6544,0.695,0.315
6545,0.710,0.300
6546,0.715,0.315
6547,0.710,0.330
6548,0.725,0.285
6549,0.765,0.295
6550,0.775,0.300
6551,0.825,0.315
6552,0.825,0.325
6553,0.800,0.315
6554,0.775,0.315
6555,0.750,0.295
6556,0.735,0.270
6557,0.760,0.255
6558,0.760,0.255
6559,0.725,0.235
6560,0.730,0.250
6561,0.720,0.240
6562,0.680,0.250
6563,0.655,0.230
6564,0.630,0.215
6565,0.600,0.225
6566,0.615,0.230
6567,0.620,0.245
6568,0.620,0.230
6569,0.600,0.215
6570,0.590,0.225
6571,0.535,0.195
6572,0.510,0.175
6573,0.505,0.185
6574,0.485,0.150
6575,0.480,0.190
6576,0.470,0.155
6577,0.470,0.155
6578,0.420,0.175
6579,0.385,0.165
6580,0.370,0.170
6581,0.340,0.150
6582,0.365,0.145
6583,0.370,0.150
6584,0.360,0.165
6585,0.355,0.145
6586,0.355,0.170
6587,0.340,0.180
6588,0.320,0.155
6589,0.315,0.135
6590,0.305,0.115
6591,0.315,0.115
6592,0.330,0.135
6593,0.330,0.130
6594,0.335,0.155
6595,0.335,0.150
6596,0.330,0.135
6597,0.290,0.120
6598,0.295,0.095
6599,0.310,0.125
6600,0.345,0.125
6601,0.345,0.135
6602,0.350,0.140
6603,0.360,0.165
6604,0.330,0.165
6605,0.325,0.140
6606,0.330,0.125
6607,0.335,0.105
6608,0.345,0.125
6609,0.360,0.120
6610,0.365,0.140
6611,0.360,0.145
6612,0.345,0.145
6613,0.350,0.135
6614,0.365,0.120
6615,0.375,0.125
6616,0.395,0.105
6617,0.390,0.075
6618,0.350,0.025
6619,0.335,0.015
6620,0.275,-0.035
6621,0.185,-0.075
6622,0.055,-0.090
6623,-0.060,-0.125
6624,-0.185,-0.135
6625,-0.285,-0.135
6626,-0.345,-0.140
6627,-0.365,-0.135
6628,-0.405,-0.130
6629,-0.425,-0.130
6630,-0.480,-0.135
6631,-0.505,-0.160
6632,-0.495,-0.160
6633,-0.480,-0.160
6634,-0.455,-0.120
6635,-0.450,-0.115
6636,-0.465,-0.100
6637,-0.460,-0.060
6638,-0.455,-0.065
6639,-0.430,-0.060
6640,-0.385,-0.060
6641,-0.320,-0.055
6642,-0.240,-0.005
6643,-0.185,0.020
6644,-0.125,0.025
6645,-0.105,0.050
6646,-0.080,0.055
6647,-0.035,0.050
6648,-0.005,0.035
6649,0.025,0.055
6650,0.075,0.025
6651,0.110,0.080
6652,0.120,0.105
6653,0.140,0.105
6654,0.145,0.095
6655,0.135,0.095
6656,0.130,0.090
6657,0.170,0.065
6658,0.180,0.100
6659,0.230,0.105
6660,0.245,0.145
6661,0.250,0.155
6662,0.260,0.135
6663,0.235,0.160
6664,0.235,0.145
6665,0.245,0.145
6666,0.265,0.170
6667,0.295,0.155
6668,0.330,0.180
6669,0.340,0.205
6670,0.310,0.195
6671,0.355,0.185
6672,0.355,0.210
6673,0.355,0.180
6674,0.370,0.200
6675,0.420,0.210
6676,0.435,0.210
6677,0.470,0.220
6678,0.470,0.235
6679,0.465,0.250
6680,0.475,0.240
6681,0.475,0.225
6682,0.505,0.210
6683,0.510,0.225
6684,0.555,0.190
6685,0.560,0.240
6686,0.545,0.250
6687,0.525,0.230
6688,0.520,0.205
6689,0.495,0.180
6690,0.485,0.185
6691,0.490,0.180
6692,0.495,0.185
6693,0.480,0.180
6694,0.440,0.180
6695,0.425,0.200
6696,0.390,0.165
6697,0.345,0.120
6698,0.340,0.120
6699,0.295,0.130
6700,0.285,0.140
6701,0.295,0.140
6702,0.285,0.150
6703,0.250,0.135
6704,0.240,0.115
6705,0.235,0.085
6706,0.190,0.085
6707,0.195,0.095
