'sample interval','ECG','ECG'
'0.00277778 sec','mV','mV'
0,-0.078,-0.062
1,-0.081,-0.062
2,-0.088,-0.062
3,-0.115,-0.065
4,-0.159,-0.065
5,-0.206,-0.062
6,-0.206,-0.058
7,-0.169,-0.058
8,-0.122,-0.058
9,-0.098,-0.058
10,-0.098,-0.065
11,-0.105,-0.069
12,-0.095,-0.065
13,-0.071,-0.062
14,-0.054,-0.055
15,-0.061,-0.047
16,-0.081,-0.044
17,-0.098,-0.047
18,-0.108,-0.055
19,-0.111,-0.062
20,-0.095,-0.069
21,-0.074,-0.076
22,-0.057,-0.080
23,-0.068,-0.080
24,-0.088,-0.076
25,-0.118,-0.069
26,-0.132,-0.065
27,-0.122,-0.058
28,-0.091,-0.055
29,-0.074,-0.062
30,-0.078,-0.069
31,-0.088,-0.073
32,-0.071,-0.076
33,-0.057,-0.076
34,-0.081,-0.076
35,-0.115,-0.080
36,-0.122,-0.076
37,-0.122,-0.069
38,-0.122,-0.062
39,-0.122,-0.058
40,-0.135,-0.065
41,-0.149,-0.084
42,-0.155,-0.098
43,-0.145,-0.105
44,-0.135,-0.095
45,-0.125,-0.080
46,-0.101,-0.076
47,-0.071,-0.084
48,-0.057,-0.080
49,-0.061,-0.080
50,-0.071,-0.076
51,-0.084,-0.084
52,-0.088,-0.091
53,-0.084,-0.098
54,-0.068,-0.091
55,-0.051,-0.084
56,-0.061,-0.073
57,-0.091,-0.065
58,-0.108,-0.065
59,-0.101,-0.065
60,-0.084,-0.065
61,-0.095,-0.069
62,-0.139,-0.076
63,-0.166,-0.087
64,-0.152,-0.087
65,-0.125,-0.087
66,-0.105,-0.076
67,-0.105,-0.073
68,-0.098,-0.069
69,-0.095,-0.069
70,-0.098,-0.073
71,-0.108,-0.084
72,-0.115,-0.091
73,-0.128,-0.102
74,-0.132,-0.098
75,-0.115,-0.087
76,-0.088,-0.080
77,-0.081,-0.080
78,-0.084,-0.076
79,-0.088,-0.076
80,-0.101,-0.076
81,-0.122,-0.080
82,-0.142,-0.087
83,-0.159,-0.091
84,-0.142,-0.091
85,-0.118,-0.087
86,-0.095,-0.073
87,-0.088,-0.069
88,-0.084,-0.069
89,-0.105,-0.080
90,-0.125,-0.087
91,-0.118,-0.087
92,-0.084,-0.087
93,-0.068,-0.084
94,-0.064,-0.076
95,-0.068,-0.076
96,-0.074,-0.080
97,-0.078,-0.084
98,-0.098,-0.080
99,-0.118,-0.076
100,-0.122,-0.076
101,-0.122,-0.080
102,-0.128,-0.080
103,-0.139,-0.076
104,-0.152,-0.065
105,-0.149,-0.058
106,-0.128,-0.065
107,-0.108,-0.076
108,-0.088,-0.076
109,-0.088,-0.073
110,-0.098,-0.069
111,-0.115,-0.069
112,-0.091,-0.069
113,-0.071,-0.065
114,-0.057,-0.062
115,-0.057,-0.065
116,-0.064,-0.069
117,-0.095,-0.065
118,-0.122,-0.065
119,-0.128,-0.076
120,-0.111,-0.080
121,-0.095,-0.069
122,-0.091,-0.058
123,-0.108,-0.047
124,-0.122,-0.051
125,-0.118,-0.062
126,-0.111,-0.073
127,-0.111,-0.080
128,-0.111,-0.084
129,-0.108,-0.080
130,-0.084,-0.073
131,-0.074,-0.069
132,-0.084,-0.065
133,-0.105,-0.058
134,-0.122,-0.051
135,-0.149,-0.055
136,-0.176,-0.073
137,-0.162,-0.091
138,-0.125,-0.095
139,-0.108,-0.087
140,-0.122,-0.076
141,-0.125,-0.073
142,-0.125,-0.069
143,-0.118,-0.069
144,-0.101,-0.069
145,-0.081,-0.080
146,-0.071,-0.080
147,-0.068,-0.084
148,-0.071,-0.087
149,-0.088,-0.091
150,-0.098,-0.091
151,-0.108,-0.087
152,-0.108,-0.076
153,-0.105,-0.069
154,-0.084,-0.069
155,-0.064,-0.076
156,-0.061,-0.080
157,-0.081,-0.087
158,-0.101,-0.087
159,-0.111,-0.080
160,-0.111,-0.076
161,-0.115,-0.076
162,-0.125,-0.080
163,-0.122,-0.080
164,-0.101,-0.076
165,-0.088,-0.069
166,-0.081,-0.065
167,-0.088,-0.069
168,-0.081,-0.073
169,-0.091,-0.076
170,-0.108,-0.069
171,-0.125,-0.065
172,-0.142,-0.062
173,-0.142,-0.065
174,-0.128,-0.065
175,-0.108,-0.065
176,-0.105,-0.065
177,-0.125,-0.062
178,-0.132,-0.055
179,-0.132,-0.055
180,-0.111,-0.058
181,-0.081,-0.065
182,-0.057,-0.065
183,-0.071,-0.069
184,-0.115,-0.069
185,-0.132,-0.087
186,-0.118,-0.080
187,-0.108,-0.073
188,-0.108,-0.062
189,-0.115,-0.055
190,-0.091,-0.058
191,-0.064,-0.069
192,-0.061,-0.069
193,-0.088,-0.076
194,-0.111,-0.080
195,-0.122,-0.080
196,-0.125,-0.076
197,-0.132,-0.076
198,-0.125,-0.069
199,-0.108,-0.062
200,-0.088,-0.055
201,-0.071,-0.047
202,-0.061,-0.029
203,-0.071,-0.018
204,-0.081,-0.007
205,-0.068,-0.004
206,-0.047,0.004
207,-0.057,0.011
208,-0.078,0.015
209,-0.081,0.011
210,-0.061,0.011
211,-0.027,0.004
212,-0.014,0.000
213,-0.024,-0.004
214,-0.044,0.000
215,-0.071,-0.007
216,-0.068,-0.029
217,-0.014,-0.058
218,0.034,-0.076
219,0.041,-0.091
220,0.010,-0.098
221,-0.007,-0.102
222,0.000,-0.102
223,0.024,-0.102
224,0.034,-0.102
225,0.017,-0.109
226,-0.010,-0.131
227,-0.030,-0.145
228,-0.030,-0.153
229,-0.030,-0.153
230,-0.027,-0.142
231,-0.027,-0.131
232,-0.037,-0.124
233,-0.054,-0.124
234,-0.064,-0.120
235,-0.061,-0.113
236,-0.041,-0.098
237,-0.047,-0.087
238,-0.078,-0.091
239,-0.105,-0.102
240,-0.125,-0.109
241,-0.122,-0.116
242,-0.108,-0.109
243,-0.118,-0.098
244,-0.125,-0.091
245,-0.139,-0.091
246,-0.149,-0.095
247,-0.149,-0.098
248,-0.118,-0.102
249,-0.105,-0.098
250,-0.125,-0.087
251,-0.145,-0.069
252,-0.152,-0.047
253,-0.149,-0.029
254,-0.149,-0.004
255,-0.152,0.022
256,-0.152,0.047
257,-0.135,0.073
258,-0.081,0.076
259,0.010,0.051
260,0.142,-0.011
261,0.277,-0.102
262,0.409,-0.215
263,0.527,-0.345
264,0.655,-0.465
265,0.733,-0.560
266,0.709,-0.633
267,0.618,-0.691
268,0.527,-0.753
269,0.436,-0.829
270,0.331,-0.858
271,0.179,-0.822
272,-0.020,-0.745
273,-0.253,-0.640
274,-0.493,-0.531
275,-0.682,-0.469
276,-0.764,-0.418
277,-0.767,-0.305
278,-0.753,-0.138
279,-0.760,0.004
280,-0.794,0.131
281,-0.845,0.240
282,-0.865,0.338
283,-0.858,0.455
284,-0.865,0.589
285,-0.892,0.702
286,-0.912,0.767
287,-0.922,0.804
288,-0.912,0.836
289,-0.905,0.865
290,-0.922,0.887
291,-0.936,0.909
292,-0.936,0.913
293,-0.902,0.869
294,-0.861,0.800
295,-0.831,0.727
296,-0.794,0.640
297,-0.747,0.545
298,-0.682,0.422
299,-0.611,0.276
300,-0.534,0.167
301,-0.446,0.120
302,-0.365,0.105
303,-0.284,0.087
304,-0.216,0.065
305,-0.179,0.025
306,-0.166,-0.011
307,-0.166,-0.044
308,-0.169,-0.051
309,-0.182,-0.055
310,-0.172,-0.065
311,-0.125,-0.080
312,-0.098,-0.098
313,-0.142,-0.113
314,-0.172,-0.120
315,-0.118,-0.120
316,-0.014,-0.113
317,0.051,-0.120
318,0.057,-0.131
319,0.020,-0.145
320,-0.020,-0.153
321,-0.051,-0.145
322,-0.054,-0.124
323,-0.074,-0.120
324,-0.091,-0.124
325,-0.081,-0.135
326,-0.034,-0.145
327,0.007,-0.156
328,0.024,-0.164
329,0.007,-0.164
330,-0.027,-0.156
331,-0.054,-0.164
332,-0.051,-0.171
333,-0.030,-0.178
334,-0.003,-0.175
335,0.000,-0.182
336,0.030,-0.196
337,0.074,-0.215
338,0.084,-0.215
339,0.064,-0.207
340,0.030,-0.211
341,0.000,-0.233
342,0.017,-0.229
343,0.064,-0.225
344,0.108,-0.233
345,0.145,-0.251
346,0.182,-0.262
347,0.189,-0.265
348,0.176,-0.284
349,0.145,-0.295
350,0.128,-0.295
351,0.152,-0.309
352,0.206,-0.327
353,0.257,-0.349
354,0.294,-0.364
355,0.324,-0.371
356,0.348,-0.382
357,0.348,-0.400
358,0.355,-0.418
359,0.382,-0.440
360,0.419,-0.455
361,0.446,-0.469
362,0.456,-0.480
363,0.476,-0.491
364,0.520,-0.498
365,0.551,-0.505
366,0.571,-0.509
367,0.595,-0.502
368,0.611,-0.480
369,0.625,-0.465
370,0.639,-0.451
371,0.618,-0.447
372,0.568,-0.429
373,0.547,-0.396
374,0.537,-0.371
375,0.527,-0.349
376,0.527,-0.309
377,0.503,-0.276
378,0.422,-0.240
379,0.351,-0.204
380,0.345,-0.171
381,0.372,-0.131
382,0.372,-0.087
383,0.307,-0.069
384,0.247,-0.044
385,0.236,-0.018
386,0.257,0.000
387,0.260,0.015
388,0.236,0.025
389,0.189,0.025
390,0.152,0.025
391,0.108,0.025
392,0.057,0.036
393,0.020,0.036
394,0.000,0.033
395,-0.020,0.015
396,-0.030,0.011
397,-0.027,0.011
398,0.000,0.015
399,0.024,0.015
400,0.020,0.011
401,-0.020,0.007
402,-0.068,0.004
403,-0.078,-0.007
404,-0.047,-0.015
405,-0.020,-0.011
406,-0.027,0.000
407,-0.054,0.000
408,-0.061,0.000
409,-0.064,0.000
410,-0.078,0.000
411,-0.095,0.000
412,-0.125,0.011
413,-0.142,0.000
414,-0.115,-0.011
415,-0.068,-0.022
416,-0.051,-0.015
417,-0.057,-0.007
418,-0.064,0.000
419,-0.078,-0.004
420,-0.091,-0.004
421,-0.105,0.000
422,-0.108,0.007
423,-0.105,0.015
424,-0.078,0.015
425,-0.051,0.007
426,-0.041,0.000
427,-0.084,0.000
428,-0.128,0.000
429,-0.132,-0.004
430,-0.078,-0.004
431,-0.020,-0.004
432,0.003,-0.004
433,-0.027,0.000
434,-0.098,0.011
435,-0.139,0.015
436,-0.115,0.015
437,-0.081,0.004
438,-0.081,0.004
439,-0.091,0.011
440,-0.081,0.011
441,-0.064,0.011
442,-0.047,0.011
443,-0.057,0.000
444,-0.084,0.000
445,-0.101,0.000
446,-0.081,0.000
447,-0.054,0.004
448,-0.061,0.007
449,-0.084,0.011
450,-0.108,0.022
451,-0.098,0.022
452,-0.071,0.022
453,-0.057,0.015
454,-0.051,0.015
455,-0.044,0.007
456,-0.034,0.004
457,-0.054,0.004
458,-0.101,0.000
459,-0.139,0.000
460,-0.132,0.011
461,-0.105,0.015
462,-0.061,0.015
463,-0.041,0.015
464,-0.041,0.025
465,-0.054,0.029
466,-0.061,0.022
467,-0.084,0.000
468,-0.105,0.000
469,-0.115,0.000
470,-0.115,-0.007
471,-0.118,-0.015
472,-0.108,-0.007
473,-0.095,0.000
474,-0.078,0.000
475,-0.064,0.004
476,-0.054,0.011
477,-0.054,0.007
478,-0.054,0.011
479,-0.078,0.011
480,-0.098,0.011
481,-0.105,0.000
482,-0.095,-0.007
483,-0.078,-0.011
484,-0.081,-0.015
485,-0.095,-0.025
486,-0.091,-0.018
487,-0.095,-0.007
488,-0.095,0.000
489,-0.098,0.004
490,-0.095,0.007
491,-0.101,0.011
492,-0.108,0.015
493,-0.122,0.004
494,-0.125,-0.004
495,-0.111,-0.015
496,-0.095,-0.018
497,-0.101,-0.011
498,-0.101,-0.011
499,-0.101,-0.011
500,-0.095,-0.004
501,-0.115,0.004
502,-0.125,0.015
503,-0.122,0.004
504,-0.118,0.000
505,-0.101,-0.015
506,-0.068,-0.022
507,-0.041,-0.022
508,-0.047,-0.015
509,-0.061,-0.015
510,-0.071,-0.011
511,-0.095,0.000
512,-0.111,0.004
513,-0.108,0.004
514,-0.088,0.004
515,-0.084,0.000
516,-0.098,0.000
517,-0.105,-0.004
518,-0.088,-0.011
519,-0.064,-0.004
520,-0.061,0.000
521,-0.088,-0.004
522,-0.118,-0.004
523,-0.108,0.000
524,-0.081,0.004
525,-0.064,0.000
526,-0.074,0.000
527,-0.088,-0.007
528,-0.071,0.000
529,-0.051,0.004
530,-0.051,0.004
531,-0.071,0.000
532,-0.101,0.004
533,-0.128,0.007
534,-0.128,0.011
535,-0.108,0.004
536,-0.081,-0.004
537,-0.054,-0.011
538,-0.044,-0.004
539,-0.068,0.000
540,-0.101,0.004
541,-0.118,0.004
542,-0.118,0.007
543,-0.108,0.015
544,-0.101,0.015
545,-0.111,0.007
546,-0.111,0.004
547,-0.095,0.000
548,-0.081,0.000
549,-0.091,0.000
550,-0.095,0.007
551,-0.078,0.007
552,-0.081,0.004
553,-0.108,-0.004
554,-0.101,-0.004
555,-0.061,0.004
556,-0.027,0.015
557,-0.054,0.000
558,-0.095,-0.007
559,-0.108,0.000
560,-0.101,0.011
561,-0.122,0.022
562,-0.145,0.025
563,-0.132,0.004
564,-0.091,-0.004
565,-0.054,-0.011
566,-0.054,-0.004
567,-0.074,0.000
568,-0.074,0.004
569,-0.084,0.000
570,-0.108,0.000
571,-0.122,0.004
572,-0.111,0.011
573,-0.101,0.011
574,-0.088,0.015
575,-0.061,0.011
576,-0.027,0.015
577,-0.030,0.011
578,-0.068,0.004
579,-0.108,-0.004
580,-0.135,-0.004
581,-0.132,-0.007
582,-0.095,-0.015
583,-0.064,-0.015
584,-0.078,-0.004
585,-0.108,0.011
586,-0.145,0.011
587,-0.166,0.000
588,-0.145,-0.011
589,-0.108,-0.015
590,-0.084,-0.015
591,-0.095,-0.015
592,-0.098,-0.015
593,-0.084,-0.007
594,-0.068,0.000
595,-0.044,-0.004
596,-0.037,-0.007
597,-0.057,-0.011
598,-0.095,-0.007
599,-0.142,-0.015
600,-0.155,-0.011
601,-0.115,-0.007
602,-0.061,-0.004
603,-0.037,0.000
604,-0.037,0.007
605,-0.061,0.018
606,-0.071,0.040
607,-0.054,0.055
608,-0.027,0.065
609,-0.027,0.076
610,-0.047,0.091
611,-0.081,0.095
612,-0.088,0.091
613,-0.051,0.076
614,0.007,0.058
615,0.041,0.047
616,0.030,0.047
617,-0.003,0.047
618,-0.041,0.040
619,-0.074,0.022
620,-0.078,0.000
621,-0.054,-0.011
622,-0.014,-0.018
623,0.007,-0.040
624,0.007,-0.047
625,0.003,-0.055
626,0.030,-0.062
627,0.057,-0.065
628,0.054,-0.076
629,0.003,-0.095
630,-0.037,-0.113
631,-0.054,-0.116
632,-0.057,-0.113
633,-0.061,-0.109
634,-0.047,-0.095
635,-0.030,-0.080
636,-0.020,-0.065
637,-0.034,-0.055
638,-0.057,-0.044
639,-0.095,-0.040
640,-0.139,-0.036
641,-0.172,-0.029
642,-0.179,-0.033
643,-0.162,-0.044
644,-0.128,-0.047
645,-0.105,-0.051
646,-0.084,-0.055
647,-0.074,-0.051
648,-0.054,-0.044
649,-0.074,-0.036
650,-0.125,-0.033
651,-0.179,-0.033
652,-0.172,-0.036
653,-0.111,-0.040
654,-0.054,-0.022
655,-0.047,0.000
656,-0.081,0.022
657,-0.125,0.051
658,-0.139,0.084
659,-0.101,0.109
660,-0.034,0.142
661,0.000,0.156
662,0.017,0.142
663,0.068,0.098
664,0.162,0.007
665,0.274,-0.116
666,0.405,-0.244
667,0.554,-0.364
668,0.713,-0.469
669,0.770,-0.556
670,0.709,-0.615
671,0.598,-0.687
672,0.486,-0.771
673,0.361,-0.811
674,0.199,-0.789
675,-0.007,-0.727
676,-0.226,-0.640
677,-0.449,-0.516
678,-0.642,-0.418
679,-0.760,-0.364
680,-0.821,-0.269
681,-0.878,-0.098
682,-0.865,0.084
683,-0.818,0.247
684,-0.791,0.400
685,-0.828,0.516
686,-0.902,0.633
687,-0.956,0.775
688,-0.980,0.909
689,-0.986,0.985
690,-0.997,1.025
691,-1.003,1.051
692,-1.007,1.080
693,-1.003,1.102
694,-0.997,1.116
695,-0.966,1.087
696,-0.939,1.018
697,-0.899,0.938
698,-0.828,0.836
699,-0.753,0.724
700,-0.703,0.600
701,-0.659,0.447
702,-0.588,0.302
703,-0.500,0.218
704,-0.426,0.200
705,-0.341,0.193
706,-0.264,0.164
707,-0.223,0.109
708,-0.189,0.051
709,-0.172,0.015
710,-0.149,0.004
711,-0.125,0.000
712,-0.098,-0.004
713,-0.095,-0.022
714,-0.098,-0.036
715,-0.118,-0.055
716,-0.108,-0.058
717,-0.088,-0.055
718,-0.061,-0.055
719,-0.041,-0.065
720,-0.020,-0.069
721,0.003,-0.080
722,0.020,-0.076
723,0.000,-0.076
724,-0.054,-0.080
725,-0.108,-0.091
726,-0.101,-0.102
727,-0.044,-0.109
728,0.024,-0.113
729,0.041,-0.120
730,0.020,-0.120
731,-0.003,-0.120
732,0.003,-0.120
733,0.014,-0.120
734,0.017,-0.124
735,0.007,-0.127
736,0.020,-0.135
737,0.034,-0.138
738,0.047,-0.131
739,0.054,-0.142
740,0.071,-0.153
741,0.071,-0.160
742,0.064,-0.156
743,0.078,-0.164
744,0.105,-0.178
745,0.128,-0.189
746,0.155,-0.193
747,0.166,-0.196
748,0.162,-0.200
749,0.152,-0.218
750,0.152,-0.229
751,0.162,-0.233
752,0.182,-0.244
753,0.193,-0.265
754,0.193,-0.276
755,0.186,-0.295
756,0.206,-0.305
757,0.267,-0.324
758,0.345,-0.338
759,0.392,-0.356
760,0.416,-0.367
761,0.409,-0.385
762,0.422,-0.400
763,0.459,-0.425
764,0.480,-0.444
765,0.473,-0.444
766,0.503,-0.440
767,0.571,-0.462
768,0.639,-0.473
769,0.659,-0.473
770,0.652,-0.473
771,0.632,-0.473
772,0.632,-0.465
773,0.659,-0.458
774,0.696,-0.440
775,0.699,-0.425
776,0.655,-0.404
777,0.584,-0.382
778,0.527,-0.349
779,0.507,-0.316
780,0.493,-0.287
781,0.480,-0.251
782,0.473,-0.207
783,0.446,-0.167
784,0.409,-0.138
785,0.375,-0.109
786,0.338,-0.076
787,0.301,-0.047
788,0.284,-0.025
789,0.274,0.000
790,0.274,0.011
791,0.260,0.015
792,0.223,0.022
793,0.169,0.029
794,0.101,0.036
795,0.037,0.036
796,0.007,0.040
797,0.030,0.033
798,0.078,0.025
799,0.081,0.018
800,0.041,0.022
801,0.000,0.022
802,-0.010,0.015
803,-0.010,0.007
804,-0.010,0.011
805,-0.017,0.011
806,-0.034,0.004
807,-0.051,0.000
808,-0.068,0.000
809,-0.081,-0.004
810,-0.088,-0.011
811,-0.088,-0.011
812,-0.078,-0.004
813,-0.071,0.000
814,-0.074,0.000
815,-0.071,0.000
816,-0.054,0.000
817,-0.037,0.000
818,-0.020,0.000
819,-0.020,0.000
820,-0.034,0.000
821,-0.057,-0.004
822,-0.071,-0.004
823,-0.054,-0.011
824,-0.024,-0.011
825,-0.017,-0.011
826,-0.037,-0.004
827,-0.037,-0.011
828,-0.041,-0.011
829,-0.071,-0.007
830,-0.095,-0.004
831,-0.105,-0.004
832,-0.098,-0.004
833,-0.098,-0.004
834,-0.105,0.000
835,-0.098,0.000
836,-0.061,0.000
837,-0.027,0.004
838,-0.007,0.007
839,-0.027,0.000
840,-0.054,0.000
841,-0.071,-0.004
842,-0.081,0.000
843,-0.084,0.007
844,-0.091,0.011
845,-0.101,0.011
846,-0.101,0.015
847,-0.088,0.015
848,-0.068,0.007
849,-0.061,0.004
850,-0.051,0.004
851,-0.041,0.007
852,-0.034,0.007
853,-0.034,0.000
854,-0.051,-0.004
855,-0.071,-0.004
856,-0.078,0.000
857,-0.084,0.004
858,-0.095,0.011
859,-0.088,0.015
860,-0.061,0.011
861,-0.047,0.011
862,-0.068,0.015
863,-0.088,0.018
864,-0.081,0.011
865,-0.074,0.004
866,-0.078,0.000
867,-0.064,0.000
868,-0.041,0.000
869,-0.030,0.000
870,-0.044,0.000
871,-0.091,0.000
872,-0.139,0.004
873,-0.125,0.011
874,-0.061,0.022
875,-0.003,0.022
876,-0.003,0.015
877,-0.041,0.011
878,-0.071,0.004
879,-0.081,0.004
880,-0.074,0.004
881,-0.064,0.000
882,-0.044,-0.004
883,-0.030,-0.011
884,-0.030,-0.018
885,-0.057,-0.015
886,-0.088,-0.004
887,-0.108,-0.004
888,-0.098,-0.004
889,-0.071,-0.004
890,-0.061,-0.011
891,-0.064,-0.015
892,-0.078,-0.011
893,-0.101,-0.011
894,-0.108,-0.007
895,-0.098,-0.011
896,-0.101,-0.011
897,-0.098,-0.015
898,-0.088,-0.015
899,-0.074,-0.015
900,-0.047,-0.022
901,-0.020,-0.022
902,-0.017,-0.015
903,-0.047,-0.015
904,-0.081,-0.015
905,-0.105,-0.022
906,-0.091,-0.015
907,-0.074,-0.011
908,-0.061,-0.007
909,-0.068,-0.004
910,-0.054,-0.004
911,-0.024,-0.007
912,-0.007,-0.011
913,-0.010,-0.015
914,-0.003,-0.018
915,0.000,-0.015
916,-0.014,-0.004
917,-0.054,0.000
918,-0.088,0.000
919,-0.081,-0.007
920,-0.064,-0.011
921,-0.064,-0.007
922,-0.084,0.000
923,-0.101,-0.004
924,-0.111,-0.011
925,-0.125,-0.018
926,-0.135,-0.015
927,-0.139,-0.004
928,-0.128,0.007
929,-0.111,0.015
930,-0.098,0.011
931,-0.098,0.000
932,-0.098,-0.015
933,-0.091,-0.022
934,-0.081,-0.022
935,-0.071,-0.025
936,-0.074,-0.036
937,-0.078,-0.044
938,-0.071,-0.044
939,-0.064,-0.040
940,-0.047,-0.036
941,-0.010,-0.044
942,0.014,-0.036
943,-0.010,-0.033
944,-0.061,-0.025
945,-0.111,-0.015
946,-0.135,-0.004
947,-0.135,-0.004
948,-0.108,-0.007
949,-0.084,-0.015
950,-0.068,-0.022
951,-0.071,-0.018
952,-0.095,-0.011
953,-0.135,-0.011
954,-0.155,-0.004
955,-0.132,0.000
956,-0.081,-0.004
957,-0.057,-0.007
958,-0.057,-0.004
959,-0.068,-0.004
960,-0.074,-0.011
961,-0.064,-0.025
962,-0.047,-0.033
963,-0.061,-0.036
964,-0.074,-0.036
965,-0.071,-0.036
966,-0.047,-0.040
967,-0.044,-0.044
968,-0.084,-0.040
969,-0.122,-0.025
970,-0.125,-0.015
971,-0.105,-0.022
972,-0.074,-0.029
973,-0.054,-0.029
974,-0.037,-0.022
975,-0.051,-0.015
976,-0.081,-0.011
977,-0.105,-0.011
978,-0.108,-0.015
979,-0.095,-0.022
980,-0.078,-0.018
981,-0.084,-0.011
982,-0.095,0.000
983,-0.088,-0.007
984,-0.074,-0.011
985,-0.071,-0.015
986,-0.078,-0.018
987,-0.095,-0.015
988,-0.108,-0.004
989,-0.095,-0.007
990,-0.081,-0.011
991,-0.064,-0.015
992,-0.030,-0.015
993,-0.010,-0.015
994,-0.044,-0.011
995,-0.098,-0.022
996,-0.125,-0.025
997,-0.115,-0.025
998,-0.095,-0.022
999,-0.115,-0.018
1000,-0.145,-0.011
1001,-0.128,-0.011
1002,-0.064,0.000
1003,-0.007,0.004
1004,0.010,0.011
1005,-0.017,0.015
1006,-0.044,0.029
1007,-0.054,0.033
1008,-0.051,0.033
1009,-0.051,0.029
1010,-0.047,0.022
1011,-0.041,0.025
1012,-0.037,0.033
1013,-0.037,0.029
1014,-0.030,0.022
1015,-0.037,0.007
1016,-0.024,-0.004
1017,-0.007,-0.022
1018,-0.017,-0.047
1019,-0.034,-0.073
1020,-0.017,-0.087
1021,0.017,-0.084
1022,0.034,-0.076
1023,0.030,-0.080
1024,0.020,-0.098
1025,0.020,-0.120
1026,0.024,-0.127
1027,0.034,-0.131
1028,0.027,-0.135
1029,-0.007,-0.138
1030,-0.057,-0.131
1031,-0.088,-0.120
1032,-0.081,-0.109
1033,-0.068,-0.095
1034,-0.057,-0.087
1035,-0.054,-0.080
1036,-0.054,-0.069
1037,-0.064,-0.065
1038,-0.071,-0.065
1039,-0.081,-0.065
1040,-0.098,-0.069
1041,-0.132,-0.069
1042,-0.162,-0.065
1043,-0.149,-0.073
1044,-0.105,-0.076
1045,-0.095,-0.076
1046,-0.132,-0.073
1047,-0.155,-0.069
1048,-0.155,-0.055
1049,-0.149,-0.051
1050,-0.172,-0.055
1051,-0.193,-0.055
1052,-0.169,-0.029
1053,-0.132,0.000
1054,-0.111,0.025
1055,-0.122,0.055
1056,-0.142,0.080
1057,-0.145,0.116
1058,-0.118,0.145
1059,-0.051,0.153
1060,0.051,0.116
1061,0.159,0.025
1062,0.257,-0.091
1063,0.355,-0.244
1064,0.493,-0.393
1065,0.639,-0.513
1066,0.686,-0.593
1067,0.611,-0.673
1068,0.493,-0.756
1069,0.382,-0.862
1070,0.287,-0.927
1071,0.162,-0.920
1072,-0.020,-0.851
1073,-0.250,-0.756
1074,-0.493,-0.636
1075,-0.723,-0.527
1076,-0.858,-0.455
1077,-0.899,-0.353
1078,-0.912,-0.178
1079,-0.922,0.000
1080,-0.916,0.145
1081,-0.885,0.284
1082,-0.858,0.404
1083,-0.872,0.513
1084,-0.956,0.651
1085,-1.037,0.782
1086,-1.051,0.873
1087,-1.007,0.916
1088,-0.956,0.953
1089,-0.943,0.993
1090,-0.949,1.015
1091,-0.936,1.022
1092,-0.916,1.015
1093,-0.889,0.971
1094,-0.872,0.905
1095,-0.861,0.829
1096,-0.848,0.731
1097,-0.807,0.622
1098,-0.720,0.484
1099,-0.601,0.331
1100,-0.497,0.222
1101,-0.419,0.175
1102,-0.348,0.149
1103,-0.287,0.116
1104,-0.226,0.084
1105,-0.179,0.055
1106,-0.152,0.022
1107,-0.152,-0.004
1108,-0.186,-0.022
1109,-0.223,-0.033
1110,-0.206,-0.047
1111,-0.159,-0.069
1112,-0.118,-0.080
1113,-0.115,-0.087
1114,-0.135,-0.087
1115,-0.145,-0.087
1116,-0.125,-0.084
1117,-0.088,-0.091
1118,-0.068,-0.105
1119,-0.061,-0.116
1120,-0.051,-0.124
1121,-0.027,-0.127
1122,0.000,-0.131
1123,0.010,-0.131
1124,0.000,-0.135
1125,0.000,-0.138
1126,-0.010,-0.145
1127,-0.034,-0.153
1128,-0.057,-0.153
1129,-0.054,-0.153
1130,-0.030,-0.156
1131,0.000,-0.164
1132,0.020,-0.167
1133,0.024,-0.167
1134,0.010,-0.175
1135,-0.014,-0.175
1136,-0.041,-0.182
1137,-0.044,-0.185
1138,-0.010,-0.196
1139,0.017,-0.207
1140,0.010,-0.215
1141,0.000,-0.222
1142,0.020,-0.225
1143,0.034,-0.233
1144,0.014,-0.244
1145,-0.034,-0.262
1146,-0.020,-0.265
1147,0.081,-0.276
1148,0.193,-0.295
1149,0.247,-0.305
1150,0.236,-0.313
1151,0.176,-0.327
1152,0.139,-0.331
1153,0.149,-0.349
1154,0.199,-0.371
1155,0.257,-0.385
1156,0.314,-0.400
1157,0.348,-0.425
1158,0.358,-0.447
1159,0.378,-0.458
1160,0.416,-0.469
1161,0.429,-0.491
1162,0.436,-0.505
1163,0.456,-0.516
1164,0.483,-0.524
1165,0.507,-0.527
1166,0.520,-0.538
1167,0.534,-0.545
1168,0.541,-0.545
1169,0.534,-0.549
1170,0.534,-0.545
1171,0.534,-0.527
1172,0.537,-0.516
1173,0.537,-0.498
1174,0.527,-0.465
1175,0.490,-0.429
1176,0.453,-0.400
1177,0.419,-0.371
1178,0.355,-0.331
1179,0.294,-0.295
1180,0.294,-0.251
1181,0.348,-0.222
1182,0.378,-0.196
1183,0.351,-0.164
1184,0.311,-0.124
1185,0.257,-0.091
1186,0.230,-0.076
1187,0.230,-0.069
1188,0.233,-0.055
1189,0.203,-0.040
1190,0.135,-0.025
1191,0.047,-0.015
1192,-0.017,-0.011
1193,-0.051,-0.022
1194,-0.047,-0.025
1195,-0.024,-0.022
1196,0.000,-0.015
1197,0.000,-0.015
1198,-0.010,-0.015
1199,-0.044,-0.025
1200,-0.074,-0.033
1201,-0.081,-0.033
1202,-0.078,-0.029
1203,-0.071,-0.025
1204,-0.074,-0.025
1205,-0.081,-0.036
1206,-0.078,-0.036
1207,-0.084,-0.033
1208,-0.115,-0.033
1209,-0.142,-0.044
1210,-0.115,-0.044
1211,-0.051,-0.051
1212,-0.010,-0.058
1213,-0.030,-0.062
1214,-0.081,-0.065
1215,-0.115,-0.062
1216,-0.125,-0.051
1217,-0.135,-0.051
1218,-0.132,-0.055
1219,-0.111,-0.058
1220,-0.074,-0.062
1221,-0.044,-0.055
1222,-0.044,-0.047
1223,-0.074,-0.044
1224,-0.111,-0.044
1225,-0.132,-0.036
1226,-0.139,-0.036
1227,-0.145,-0.040
1228,-0.145,-0.040
1229,-0.152,-0.044
1230,-0.155,-0.047
1231,-0.179,-0.051
1232,-0.186,-0.055
1233,-0.169,-0.055
1234,-0.135,-0.055
1235,-0.105,-0.047
1236,-0.105,-0.047
1237,-0.122,-0.047
1238,-0.142,-0.047
1239,-0.132,-0.040
1240,-0.118,-0.033
1241,-0.139,-0.036
1242,-0.142,-0.036
1243,-0.105,-0.044
1244,-0.068,-0.044
1245,-0.074,-0.040
1246,-0.098,-0.033
1247,-0.118,-0.033
1248,-0.122,-0.033
1249,-0.098,-0.044
1250,-0.081,-0.051
1251,-0.084,-0.051
1252,-0.105,-0.047
1253,-0.122,-0.047
1254,-0.101,-0.044
1255,-0.071,-0.036
1256,-0.057,-0.033
1257,-0.064,-0.033
1258,-0.081,-0.029
1259,-0.108,-0.029
1260,-0.139,-0.044
1261,-0.149,-0.058
1262,-0.135,-0.073
1263,-0.108,-0.076
1264,-0.098,-0.069
1265,-0.128,-0.062
1266,-0.159,-0.058
1267,-0.142,-0.055
1268,-0.111,-0.058
1269,-0.135,-0.058
1270,-0.172,-0.047
1271,-0.169,-0.044
1272,-0.122,-0.040
1273,-0.071,-0.036
1274,-0.061,-0.040
1275,-0.091,-0.044
1276,-0.128,-0.044
1277,-0.122,-0.055
1278,-0.084,-0.065
1279,-0.081,-0.069
1280,-0.115,-0.069
1281,-0.139,-0.065
1282,-0.118,-0.055
1283,-0.091,-0.051
1284,-0.068,-0.040
1285,-0.061,-0.047
1286,-0.057,-0.051
1287,-0.064,-0.047
1288,-0.071,-0.044
1289,-0.084,-0.055
1290,-0.098,-0.073
1291,-0.108,-0.080
1292,-0.111,-0.076
1293,-0.122,-0.069
1294,-0.125,-0.058
1295,-0.118,-0.065
1296,-0.101,-0.062
1297,-0.098,-0.058
1298,-0.122,-0.058
1299,-0.149,-0.065
1300,-0.166,-0.065
1301,-0.176,-0.065
1302,-0.216,-0.069
1303,-0.216,-0.069
1304,-0.166,-0.069
1305,-0.101,-0.065
1306,-0.084,-0.065
1307,-0.115,-0.062
1308,-0.142,-0.058
1309,-0.139,-0.058
1310,-0.128,-0.058
1311,-0.132,-0.047
1312,-0.128,-0.044
1313,-0.108,-0.055
1314,-0.101,-0.065
1315,-0.091,-0.069
1316,-0.078,-0.073
1317,-0.071,-0.076
1318,-0.084,-0.076
1319,-0.118,-0.073
1320,-0.155,-0.065
1321,-0.182,-0.058
1322,-0.179,-0.058
1323,-0.159,-0.058
1324,-0.142,-0.055
1325,-0.139,-0.065
1326,-0.132,-0.076
1327,-0.122,-0.084
1328,-0.101,-0.087
1329,-0.081,-0.084
1330,-0.088,-0.073
1331,-0.098,-0.065
1332,-0.108,-0.069
1333,-0.111,-0.065
1334,-0.095,-0.069
1335,-0.081,-0.069
1336,-0.095,-0.069
1337,-0.125,-0.076
1338,-0.152,-0.084
1339,-0.169,-0.087
1340,-0.159,-0.087
1341,-0.135,-0.076
1342,-0.135,-0.069
1343,-0.162,-0.069
1344,-0.199,-0.073
1345,-0.196,-0.069
1346,-0.142,-0.062
1347,-0.101,-0.055
1348,-0.101,-0.055
1349,-0.135,-0.065
1350,-0.145,-0.076
1351,-0.125,-0.080
1352,-0.108,-0.080
1353,-0.122,-0.076
1354,-0.135,-0.065
1355,-0.135,-0.065
1356,-0.122,-0.065
1357,-0.118,-0.065
1358,-0.118,-0.069
1359,-0.135,-0.076
1360,-0.149,-0.076
1361,-0.142,-0.076
1362,-0.135,-0.076
1363,-0.135,-0.080
1364,-0.139,-0.076
1365,-0.149,-0.073
1366,-0.139,-0.065
1367,-0.125,-0.065
1368,-0.122,-0.069
1369,-0.108,-0.080
1370,-0.108,-0.091
1371,-0.118,-0.095
1372,-0.125,-0.084
1373,-0.132,-0.080
1374,-0.142,-0.080
1375,-0.142,-0.084
1376,-0.152,-0.087
1377,-0.159,-0.084
1378,-0.155,-0.076
1379,-0.155,-0.069
1380,-0.159,-0.065
1381,-0.162,-0.065
1382,-0.166,-0.065
1383,-0.172,-0.058
1384,-0.199,-0.055
1385,-0.250,-0.051
1386,-0.247,-0.047
1387,-0.139,-0.029
1388,-0.030,-0.025
1389,0.003,-0.018
1390,-0.034,-0.018
1391,-0.095,-0.029
1392,-0.145,-0.036
1393,-0.166,-0.033
1394,-0.145,-0.025
1395,-0.091,-0.025
1396,-0.047,-0.025
1397,-0.034,-0.025
1398,-0.037,-0.040
1399,-0.037,-0.055
1400,-0.051,-0.076
1401,-0.068,-0.098
1402,-0.061,-0.109
1403,-0.044,-0.109
1404,-0.044,-0.116
1405,-0.044,-0.135
1406,-0.037,-0.160
1407,-0.047,-0.175
1408,-0.061,-0.175
1409,-0.064,-0.167
1410,-0.071,-0.164
1411,-0.084,-0.164
1412,-0.098,-0.167
1413,-0.111,-0.167
1414,-0.105,-0.156
1415,-0.101,-0.142
1416,-0.122,-0.135
1417,-0.172,-0.135
1418,-0.189,-0.131
1419,-0.145,-0.124
1420,-0.095,-0.113
1421,-0.108,-0.105
1422,-0.169,-0.105
1423,-0.199,-0.113
1424,-0.182,-0.120
1425,-0.159,-0.116
1426,-0.162,-0.109
1427,-0.159,-0.109
1428,-0.149,-0.109
1429,-0.155,-0.109
1430,-0.166,-0.109
1431,-0.169,-0.102
1432,-0.162,-0.095
1433,-0.169,-0.084
1434,-0.199,-0.073
1435,-0.236,-0.062
1436,-0.243,-0.036
1437,-0.236,0.000
1438,-0.223,0.033
1439,-0.193,0.058
1440,-0.132,0.080
1441,-0.054,0.076
1442,0.034,0.025
1443,0.135,-0.051
1444,0.267,-0.153
1445,0.402,-0.280
1446,0.537,-0.411
1447,0.635,-0.513
1448,0.649,-0.604
1449,0.541,-0.680
1450,0.365,-0.749
1451,0.213,-0.829
1452,0.135,-0.876
1453,0.054,-0.851
1454,-0.098,-0.778
1455,-0.324,-0.684
1456,-0.547,-0.571
1457,-0.733,-0.484
1458,-0.834,-0.429
1459,-0.872,-0.342
1460,-0.912,-0.207
1461,-0.936,-0.080
1462,-0.912,0.036
1463,-0.865,0.160
1464,-0.838,0.255
1465,-0.831,0.345
1466,-0.865,0.458
1467,-0.899,0.575
1468,-0.909,0.658
1469,-0.909,0.698
1470,-0.922,0.720
1471,-0.916,0.742
1472,-0.912,0.760
1473,-0.919,0.775
1474,-0.939,0.796
1475,-0.936,0.796
1476,-0.916,0.764
1477,-0.889,0.709
1478,-0.855,0.647
1479,-0.821,0.564
1480,-0.770,0.480
1481,-0.716,0.382
1482,-0.662,0.247
1483,-0.598,0.142
1484,-0.507,0.087
1485,-0.422,0.062
1486,-0.341,0.047
1487,-0.267,0.036
1488,-0.226,0.015
1489,-0.203,-0.022
1490,-0.176,-0.065
1491,-0.169,-0.087
1492,-0.189,-0.091
1493,-0.206,-0.095
1494,-0.189,-0.102
1495,-0.152,-0.113
1496,-0.118,-0.120
1497,-0.091,-0.127
1498,-0.068,-0.142
1499,-0.051,-0.164
1500,-0.054,-0.175
1501,-0.061,-0.167
1502,-0.081,-0.153
1503,-0.132,-0.135
1504,-0.206,-0.135
1505,-0.223,-0.160
1506,-0.159,-0.185
1507,-0.088,-0.185
1508,-0.047,-0.167
1509,-0.054,-0.171
1510,-0.078,-0.182
1511,-0.095,-0.193
1512,-0.078,-0.193
1513,-0.054,-0.189
1514,-0.051,-0.189
1515,-0.057,-0.196
1516,-0.044,-0.211
1517,-0.020,-0.222
1518,-0.007,-0.229
1519,-0.007,-0.236
1520,-0.003,-0.236
1521,0.000,-0.229
1522,0.000,-0.229
1523,0.007,-0.244
1524,0.003,-0.251
1525,0.003,-0.255
1526,0.024,-0.273
1527,0.061,-0.287
1528,0.091,-0.291
1529,0.105,-0.309
1530,0.125,-0.331
1531,0.149,-0.349
1532,0.182,-0.364
1533,0.206,-0.360
1534,0.209,-0.364
1535,0.199,-0.393
1536,0.196,-0.418
1537,0.209,-0.436
1538,0.236,-0.444
1539,0.280,-0.451
1540,0.351,-0.465
1541,0.402,-0.495
1542,0.392,-0.524
1543,0.361,-0.535
1544,0.372,-0.527
1545,0.422,-0.531
1546,0.463,-0.538
1547,0.470,-0.556
1548,0.473,-0.556
1549,0.480,-0.567
1550,0.493,-0.571
1551,0.507,-0.560
1552,0.514,-0.535
1553,0.517,-0.520
1554,0.514,-0.509
1555,0.500,-0.480
1556,0.493,-0.444
1557,0.476,-0.404
1558,0.443,-0.375
1559,0.402,-0.360
1560,0.378,-0.331
1561,0.378,-0.305
1562,0.395,-0.262
1563,0.392,-0.207
1564,0.338,-0.167
1565,0.247,-0.153
1566,0.179,-0.131
1567,0.166,-0.098
1568,0.142,-0.076
1569,0.091,-0.069
1570,0.081,-0.058
1571,0.105,-0.047
1572,0.095,-0.044
1573,0.064,-0.040
1574,0.030,-0.044
1575,0.000,-0.055
1576,-0.020,-0.058
1577,-0.037,-0.055
1578,-0.027,-0.055
1579,-0.014,-0.044
1580,-0.007,-0.036
1581,-0.027,-0.065
1582,-0.037,-0.084
1583,-0.014,-0.076
1584,0.017,-0.065
1585,0.020,-0.073
1586,0.000,-0.080
1587,-0.041,-0.080
1588,-0.071,-0.095
1589,-0.081,-0.113
1590,-0.088,-0.105
1591,-0.081,-0.087
1592,-0.068,-0.084
1593,-0.064,-0.087
1594,-0.074,-0.080
1595,-0.095,-0.076
1596,-0.108,-0.095
1597,-0.135,-0.113
1598,-0.155,-0.105
1599,-0.149,-0.087
1600,-0.101,-0.076
1601,-0.064,-0.084
1602,-0.054,-0.098
1603,-0.071,-0.098
1604,-0.084,-0.102
1605,-0.105,-0.109
1606,-0.135,-0.098
1607,-0.139,-0.105
1608,-0.108,-0.120
1609,-0.091,-0.120
1610,-0.095,-0.113
1611,-0.098,-0.098
1612,-0.081,-0.080
1613,-0.068,-0.076
1614,-0.095,-0.076
1615,-0.155,-0.076
1616,-0.196,-0.095
1617,-0.176,-0.102
1618,-0.122,-0.091
1619,-0.078,-0.073
1620,-0.061,-0.076
1621,-0.051,-0.087
1622,-0.037,-0.095
1623,-0.027,-0.098
1624,-0.041,-0.091
1625,-0.071,-0.087
1626,-0.108,-0.095
1627,-0.115,-0.098
1628,-0.101,-0.095
1629,-0.088,-0.091
1630,-0.081,-0.095
1631,-0.074,-0.087
1632,-0.064,-0.073
1633,-0.044,-0.080
1634,-0.027,-0.091
1635,-0.030,-0.087
1636,-0.061,-0.076
1637,-0.074,-0.080
1638,-0.078,-0.102
1639,-0.118,-0.113
1640,-0.139,-0.109
1641,-0.105,-0.113
1642,-0.034,-0.109
1643,0.037,-0.102
1644,0.068,-0.113
1645,0.014,-0.127
1646,-0.057,-0.113
1647,-0.068,-0.080
1648,-0.030,-0.073
1649,0.000,-0.098
1650,-0.003,-0.120
1651,-0.024,-0.124
1652,-0.034,-0.120
1653,-0.027,-0.113
1654,-0.024,-0.102
1655,-0.047,-0.091
1656,-0.084,-0.087
1657,-0.108,-0.102
1658,-0.115,-0.113
1659,-0.098,-0.113
1660,-0.071,-0.102
1661,-0.054,-0.095
1662,-0.037,-0.095
1663,-0.034,-0.087
1664,-0.054,-0.091
1665,-0.081,-0.120
1666,-0.091,-0.145
1667,-0.088,-0.142
1668,-0.084,-0.109
1669,-0.095,-0.087
1670,-0.108,-0.091
1671,-0.118,-0.109
1672,-0.118,-0.113
1673,-0.095,-0.102
1674,-0.061,-0.113
1675,-0.051,-0.131
1676,-0.051,-0.135
1677,-0.088,-0.113
1678,-0.132,-0.080
1679,-0.111,-0.069
1680,-0.051,-0.087
1681,0.000,-0.113
1682,0.014,-0.135
1683,0.000,-0.135
1684,-0.027,-0.113
1685,-0.051,-0.091
1686,-0.041,-0.098
1687,-0.007,-0.109
1688,0.003,-0.109
1689,-0.030,-0.116
1690,-0.071,-0.116
1691,-0.101,-0.095
1692,-0.125,-0.080
1693,-0.125,-0.080
1694,-0.115,-0.102
1695,-0.091,-0.116
1696,-0.068,-0.102
1697,-0.068,-0.084
1698,-0.081,-0.076
1699,-0.068,-0.076
1700,-0.037,-0.102
1701,-0.030,-0.120
1702,-0.027,-0.109
1703,-0.030,-0.098
1704,-0.054,-0.120
1705,-0.088,-0.153
1706,-0.091,-0.156
1707,-0.081,-0.124
1708,-0.088,-0.091
1709,-0.108,-0.069
1710,-0.115,-0.069
1711,-0.095,-0.065
1712,-0.061,-0.076
1713,-0.051,-0.098
1714,-0.044,-0.109
1715,-0.010,-0.102
1716,0.010,-0.102
1717,0.010,-0.113
1718,-0.003,-0.116
1719,-0.020,-0.091
1720,-0.044,-0.069
1721,-0.061,-0.076
1722,-0.078,-0.102
1723,-0.064,-0.113
1724,-0.027,-0.102
1725,-0.017,-0.087
1726,-0.027,-0.087
1727,-0.047,-0.102
1728,-0.105,-0.120
1729,-0.179,-0.127
1730,-0.186,-0.131
1731,-0.135,-0.120
1732,-0.057,-0.098
1733,-0.020,-0.087
1734,-0.027,-0.098
1735,-0.044,-0.098
1736,-0.044,-0.098
1737,-0.084,-0.098
1738,-0.166,-0.113
1739,-0.199,-0.127
1740,-0.166,-0.127
1741,-0.101,-0.102
1742,-0.037,-0.073
1743,0.014,-0.065
1744,0.024,-0.076
1745,-0.007,-0.102
1746,-0.041,-0.124
1747,-0.047,-0.135
1748,-0.041,-0.124
1749,-0.054,-0.095
1750,-0.091,-0.076
1751,-0.108,-0.069
1752,-0.091,-0.080
1753,-0.078,-0.084
1754,-0.074,-0.091
1755,-0.064,-0.109
1756,-0.037,-0.131
1757,-0.010,-0.131
1758,-0.007,-0.102
1759,-0.030,-0.084
1760,-0.054,-0.076
1761,-0.084,-0.080
1762,-0.098,-0.095
1763,-0.074,-0.105
1764,-0.037,-0.120
1765,-0.007,-0.120
1766,0.017,-0.120
1767,-0.014,-0.105
1768,-0.074,-0.087
1769,-0.084,-0.069
1770,-0.047,-0.069
1771,-0.027,-0.069
1772,-0.020,-0.084
1773,-0.024,-0.095
1774,-0.027,-0.076
1775,-0.041,-0.033
1776,-0.061,-0.022
1777,-0.061,-0.040
1778,-0.027,-0.047
1779,0.003,-0.033
1780,0.007,-0.025
1781,-0.007,-0.040
1782,-0.024,-0.044
1783,-0.041,-0.055
1784,-0.044,-0.073
1785,-0.014,-0.076
1786,0.020,-0.084
1787,0.024,-0.102
1788,-0.003,-0.131
1789,-0.027,-0.153
1790,-0.014,-0.153
1791,0.014,-0.142
1792,0.037,-0.138
1793,0.027,-0.156
1794,-0.010,-0.185
1795,-0.034,-0.200
1796,-0.030,-0.189
1797,-0.034,-0.193
1798,-0.054,-0.207
1799,-0.051,-0.207
1800,-0.024,-0.185
1801,0.020,-0.171
1802,0.041,-0.167
1803,0.020,-0.160
1804,0.003,-0.153
1805,-0.017,-0.142
1806,-0.051,-0.127
1807,-0.081,-0.116
1808,-0.098,-0.120
1809,-0.095,-0.124
1810,-0.091,-0.131
1811,-0.095,-0.124
1812,-0.091,-0.131
1813,-0.105,-0.135
1814,-0.101,-0.142
1815,-0.071,-0.149
1816,-0.051,-0.153
1817,-0.047,-0.145
1818,-0.044,-0.138
1819,-0.037,-0.116
1820,-0.034,-0.102
1821,-0.027,-0.080
1822,-0.027,-0.058
1823,-0.037,-0.036
1824,-0.081,-0.018
1825,-0.139,0.000
1826,-0.139,0.015
1827,-0.095,0.051
1828,-0.047,0.076
1829,0.003,0.058
1830,0.105,-0.011
1831,0.247,-0.124
1832,0.436,-0.258
1833,0.635,-0.393
1834,0.791,-0.505
1835,0.845,-0.589
1836,0.780,-0.658
1837,0.672,-0.720
1838,0.581,-0.793
1839,0.510,-0.855
1840,0.402,-0.880
1841,0.223,-0.844
1842,0.010,-0.767
1843,-0.213,-0.665
1844,-0.436,-0.560
1845,-0.611,-0.484
1846,-0.689,-0.407
1847,-0.743,-0.269
1848,-0.814,-0.095
1849,-0.868,0.040
1850,-0.882,0.167
1851,-0.855,0.302
1852,-0.838,0.436
1853,-0.865,0.560
1854,-0.926,0.684
1855,-0.932,0.789
1856,-0.885,0.851
1857,-0.861,0.895
1858,-0.889,0.931
1859,-0.936,0.960
1860,-0.966,0.975
1861,-0.953,0.975
1862,-0.919,0.938
1863,-0.889,0.880
1864,-0.855,0.800
1865,-0.807,0.705
1866,-0.740,0.593
1867,-0.652,0.462
1868,-0.568,0.309
1869,-0.497,0.193
1870,-0.422,0.135
1871,-0.361,0.098
1872,-0.318,0.069
1873,-0.270,0.051
1874,-0.216,0.011
1875,-0.159,-0.036
1876,-0.105,-0.076
1877,-0.095,-0.091
1878,-0.111,-0.102
1879,-0.125,-0.109
1880,-0.118,-0.116
1881,-0.081,-0.120
1882,-0.024,-0.124
1883,0.020,-0.135
1884,0.044,-0.138
1885,0.044,-0.145
1886,0.030,-0.156
1887,0.007,-0.164
1888,0.000,-0.167
1889,-0.007,-0.178
1890,-0.014,-0.185
1891,-0.017,-0.178
1892,-0.014,-0.167
1893,0.007,-0.156
1894,0.054,-0.164
1895,0.078,-0.182
1896,0.057,-0.189
1897,0.024,-0.189
1898,0.010,-0.185
1899,0.017,-0.196
1900,0.034,-0.204
1901,0.044,-0.211
1902,0.054,-0.222
1903,0.064,-0.229
1904,0.064,-0.233
1905,0.064,-0.229
1906,0.071,-0.222
1907,0.074,-0.218
1908,0.068,-0.229
1909,0.074,-0.233
1910,0.084,-0.240
1911,0.084,-0.255
1912,0.054,-0.265
1913,0.027,-0.273
1914,0.054,-0.287
1915,0.122,-0.298
1916,0.186,-0.305
1917,0.213,-0.316
1918,0.226,-0.324
1919,0.233,-0.327
1920,0.250,-0.338
1921,0.280,-0.353
1922,0.304,-0.375
1923,0.297,-0.382
1924,0.267,-0.393
1925,0.253,-0.418
1926,0.307,-0.436
1927,0.395,-0.451
1928,0.473,-0.469
1929,0.510,-0.484
1930,0.510,-0.491
1931,0.493,-0.502
1932,0.486,-0.516
1933,0.514,-0.524
1934,0.568,-0.531
1935,0.615,-0.538
1936,0.669,-0.542
1937,0.662,-0.545
1938,0.595,-0.538
1939,0.568,-0.524
1940,0.601,-0.513
1941,0.635,-0.495
1942,0.635,-0.462
1943,0.595,-0.444
1944,0.564,-0.418
1945,0.561,-0.375
1946,0.551,-0.338
1947,0.524,-0.309
1948,0.493,-0.276
1949,0.466,-0.240
1950,0.419,-0.207
1951,0.378,-0.175
1952,0.348,-0.142
1953,0.314,-0.105
1954,0.284,-0.076
1955,0.247,-0.058
1956,0.226,-0.047
1957,0.223,-0.036
1958,0.196,-0.022
1959,0.152,-0.011
1960,0.105,-0.011
1961,0.078,-0.015
1962,0.057,-0.022
1963,0.041,-0.025
1964,0.034,-0.025
1965,0.037,-0.025
1966,0.037,-0.022
1967,0.027,-0.018
1968,0.030,-0.025
1969,0.034,-0.033
1970,0.014,-0.044
1971,0.007,-0.047
1972,0.030,-0.055
1973,0.047,-0.055
1974,0.030,-0.055
1975,-0.010,-0.051
1976,-0.034,-0.055
1977,-0.054,-0.055
1978,-0.084,-0.051
1979,-0.098,-0.047
1980,-0.095,-0.055
1981,-0.074,-0.058
1982,-0.034,-0.058
1983,-0.010,-0.058
1984,-0.020,-0.058
1985,-0.044,-0.058
1986,-0.081,-0.062
1987,-0.101,-0.065
1988,-0.081,-0.073
1989,-0.047,-0.069
1990,-0.034,-0.062
1991,-0.041,-0.055
1992,-0.051,-0.055
1993,-0.061,-0.051
1994,-0.068,-0.055
1995,-0.057,-0.047
1996,-0.024,-0.047
1997,-0.003,-0.044
1998,-0.010,-0.047
1999,-0.034,-0.055
2000,-0.047,-0.065
2001,-0.068,-0.062
2002,-0.098,-0.058
2003,-0.115,-0.058
2004,-0.095,-0.058
2005,-0.054,-0.058
2006,-0.034,-0.055
2007,-0.027,-0.047
2008,-0.024,-0.044
2009,-0.024,-0.047
2010,-0.027,-0.051
2011,-0.047,-0.047
2012,-0.081,-0.036
2013,-0.115,-0.033
2014,-0.145,-0.033
2015,-0.162,-0.029
2016,-0.155,-0.036
2017,-0.101,-0.044
2018,-0.041,-0.047
2019,-0.010,-0.047
2020,0.000,-0.044
2021,0.003,-0.036
2022,-0.010,-0.036
2023,-0.041,-0.044
2024,-0.064,-0.047
2025,-0.091,-0.036
2026,-0.118,-0.029
2027,-0.125,-0.025
2028,-0.105,-0.033
2029,-0.068,-0.033
2030,-0.037,-0.040
2031,-0.027,-0.040
2032,-0.030,-0.036
2033,-0.074,-0.044
2034,-0.125,-0.058
2035,-0.128,-0.065
2036,-0.081,-0.065
2037,-0.051,-0.062
2038,-0.054,-0.058
2039,-0.074,-0.055
2040,-0.081,-0.055
2041,-0.068,-0.047
2042,-0.057,-0.051
2043,-0.064,-0.047
2044,-0.057,-0.040
2045,-0.037,-0.033
2046,-0.034,-0.036
2047,-0.047,-0.040
2048,-0.068,-0.044
2049,-0.091,-0.051
2050,-0.108,-0.055
2051,-0.098,-0.058
2052,-0.064,-0.058
2053,-0.037,-0.058
2054,-0.044,-0.058
2055,-0.057,-0.047
2056,-0.071,-0.044
2057,-0.091,-0.044
2058,-0.111,-0.047
2059,-0.101,-0.047
2060,-0.071,-0.044
2061,-0.047,-0.036
2062,-0.074,-0.029
2063,-0.142,-0.029
2064,-0.182,-0.033
2065,-0.155,-0.036
2066,-0.122,-0.040
2067,-0.111,-0.044
2068,-0.095,-0.044
2069,-0.057,-0.047
2070,-0.034,-0.055
2071,-0.034,-0.055
2072,-0.047,-0.051
2073,-0.061,-0.051
2074,-0.074,-0.051
2075,-0.064,-0.047
2076,-0.047,-0.047
2077,-0.034,-0.044
2078,-0.027,-0.044
2079,-0.020,-0.047
2080,-0.020,-0.044
2081,-0.044,-0.036
2082,-0.071,-0.047
2083,-0.071,-0.055
2084,-0.047,-0.055
2085,-0.037,-0.055
2086,-0.061,-0.055
2087,-0.088,-0.044
2088,-0.095,-0.036
2089,-0.091,-0.036
2090,-0.081,-0.044
2091,-0.068,-0.040
2092,-0.064,-0.036
2093,-0.064,-0.033
2094,-0.061,-0.036
2095,-0.064,-0.036
2096,-0.078,-0.036
2097,-0.091,-0.029
2098,-0.071,-0.022
2099,-0.051,-0.018
2100,-0.071,-0.029
2101,-0.101,-0.033
2102,-0.108,-0.033
2103,-0.115,-0.044
2104,-0.128,-0.047
2105,-0.122,-0.051
2106,-0.108,-0.055
2107,-0.084,-0.055
2108,-0.064,-0.058
2109,-0.068,-0.047
2110,-0.078,-0.036
2111,-0.098,-0.029
2112,-0.125,-0.036
2113,-0.122,-0.036
2114,-0.105,-0.036
2115,-0.101,-0.033
2116,-0.101,-0.025
2117,-0.101,-0.022
2118,-0.108,-0.025
2119,-0.108,-0.022
2120,-0.101,-0.029
2121,-0.098,-0.040
2122,-0.101,-0.044
2123,-0.105,-0.040
2124,-0.115,-0.044
2125,-0.118,-0.047
2126,-0.101,-0.055
2127,-0.084,-0.051
2128,-0.074,-0.044
2129,-0.057,-0.033
2130,-0.037,-0.036
2131,-0.027,-0.044
2132,-0.047,-0.047
2133,-0.101,-0.047
2134,-0.139,-0.044
2135,-0.128,-0.029
2136,-0.098,-0.025
2137,-0.091,-0.025
2138,-0.078,-0.029
2139,-0.051,-0.029
2140,-0.037,-0.025
2141,-0.044,-0.025
2142,-0.051,-0.029
2143,-0.051,-0.033
2144,-0.061,-0.033
2145,-0.084,-0.033
2146,-0.101,-0.033
2147,-0.108,-0.033
2148,-0.108,-0.033
2149,-0.105,-0.033
2150,-0.108,-0.033
2151,-0.125,-0.033
2152,-0.128,-0.036
2153,-0.118,-0.036
2154,-0.101,-0.047
2155,-0.088,-0.051
2156,-0.078,-0.051
2157,-0.061,-0.047
2158,-0.041,-0.044
2159,-0.047,-0.044
2160,-0.084,-0.047
2161,-0.101,-0.047
2162,-0.108,-0.044
2163,-0.108,-0.040
2164,-0.101,-0.025
2165,-0.118,-0.022
2166,-0.139,-0.029
2167,-0.125,-0.033
2168,-0.078,-0.029
2169,-0.034,-0.015
2170,-0.020,0.004
2171,-0.027,0.015
2172,-0.037,0.011
2173,-0.041,0.018
2174,-0.037,0.025
2175,-0.047,0.033
2176,-0.057,0.033
2177,-0.044,0.025
2178,-0.030,0.015
2179,-0.027,0.004
2180,-0.003,-0.004
2181,0.020,-0.004
2182,0.020,-0.004
2183,0.020,-0.007
2184,0.017,-0.025
2185,0.000,-0.047
2186,-0.034,-0.065
2187,-0.030,-0.062
2188,-0.007,-0.055
2189,0.000,-0.055
2190,-0.014,-0.073
2191,-0.027,-0.095
2192,-0.041,-0.116
2193,-0.057,-0.127
2194,-0.064,-0.131
2195,-0.047,-0.124
2196,-0.030,-0.124
2197,-0.037,-0.116
2198,-0.054,-0.120
2199,-0.044,-0.116
2200,-0.017,-0.105
2201,0.003,-0.095
2202,0.003,-0.091
2203,-0.014,-0.084
2204,-0.054,-0.080
2205,-0.098,-0.073
2206,-0.149,-0.055
2207,-0.213,-0.040
2208,-0.236,-0.051
2209,-0.196,-0.065
2210,-0.135,-0.069
2211,-0.098,-0.073
2212,-0.081,-0.073
2213,-0.091,-0.069
2214,-0.111,-0.076
2215,-0.118,-0.069
2216,-0.108,-0.062
2217,-0.098,-0.058
2218,-0.108,-0.051
2219,-0.135,-0.033
2220,-0.155,-0.015
2221,-0.155,0.007
2222,-0.132,0.040
2223,-0.111,0.076
2224,-0.091,0.113
2225,-0.054,0.138
2226,-0.017,0.124
2227,0.047,0.076
2228,0.145,-0.004
2229,0.267,-0.116
2230,0.419,-0.244
2231,0.591,-0.371
2232,0.743,-0.484
2233,0.760,-0.582
2234,0.642,-0.658
2235,0.541,-0.702
2236,0.493,-0.764
2237,0.416,-0.815
2238,0.253,-0.829
2239,0.030,-0.785
2240,-0.189,-0.727
2241,-0.385,-0.625
2242,-0.591,-0.513
2243,-0.760,-0.436
2244,-0.831,-0.356
2245,-0.821,-0.189
2246,-0.807,0.004
2247,-0.824,0.167
2248,-0.872,0.320
2249,-0.905,0.447
2250,-0.912,0.553
2251,-0.892,0.687
2252,-0.895,0.818
2253,-0.932,0.916
2254,-0.966,0.975
2255,-0.959,1.004
2256,-0.939,1.022
2257,-0.926,1.036
2258,-0.946,1.047
2259,-0.983,1.040
2260,-1.007,0.996
2261,-0.980,0.935
2262,-0.929,0.840
2263,-0.848,0.724
2264,-0.753,0.596
2265,-0.662,0.451
2266,-0.588,0.305
2267,-0.507,0.211
2268,-0.432,0.164
2269,-0.361,0.145
2270,-0.284,0.120
2271,-0.223,0.113
2272,-0.182,0.098
2273,-0.132,0.055
2274,-0.095,0.004
2275,-0.088,-0.015
2276,-0.081,-0.033
2277,-0.074,-0.044
2278,-0.064,-0.047
2279,-0.051,-0.055
2280,-0.078,-0.069
2281,-0.122,-0.087
2282,-0.145,-0.105
2283,-0.118,-0.113
2284,-0.071,-0.116
2285,-0.030,-0.116
2286,-0.037,-0.127
2287,-0.054,-0.135
2288,-0.081,-0.145
2289,-0.115,-0.138
2290,-0.145,-0.124
2291,-0.145,-0.120
2292,-0.098,-0.127
2293,-0.037,-0.124
2294,0.000,-0.138
2295,0.003,-0.149
2296,-0.010,-0.153
2297,-0.020,-0.145
2298,-0.037,-0.145
2299,-0.047,-0.153
2300,-0.020,-0.167
2301,0.007,-0.175
2302,0.017,-0.175
2303,0.014,-0.156
2304,-0.014,-0.153
2305,-0.074,-0.175
2306,-0.074,-0.211
2307,0.030,-0.222
2308,0.155,-0.211
2309,0.226,-0.207
2310,0.213,-0.222
2311,0.145,-0.229
2312,0.084,-0.229
2313,0.057,-0.233
2314,0.084,-0.244
2315,0.149,-0.255
2316,0.216,-0.276
2317,0.253,-0.298
2318,0.247,-0.338
2319,0.220,-0.353
2320,0.213,-0.353
2321,0.226,-0.353
2322,0.236,-0.367
2323,0.267,-0.385
2324,0.324,-0.404
2325,0.372,-0.407
2326,0.412,-0.407
2327,0.436,-0.418
2328,0.453,-0.440
2329,0.473,-0.458
2330,0.503,-0.476
2331,0.527,-0.491
2332,0.544,-0.509
2333,0.554,-0.516
2334,0.557,-0.520
2335,0.557,-0.498
2336,0.551,-0.491
2337,0.534,-0.498
2338,0.520,-0.502
2339,0.503,-0.498
2340,0.486,-0.491
2341,0.517,-0.458
2342,0.581,-0.422
2343,0.618,-0.382
2344,0.588,-0.342
2345,0.510,-0.305
2346,0.449,-0.273
2347,0.432,-0.233
2348,0.422,-0.196
2349,0.399,-0.156
2350,0.365,-0.109
2351,0.314,-0.065
2352,0.260,-0.047
2353,0.287,-0.044
2354,0.348,-0.055
2355,0.334,-0.058
2356,0.257,-0.044
2357,0.169,-0.011
2358,0.088,0.000
2359,0.047,0.004
2360,0.034,0.000
2361,0.034,-0.011
2362,0.027,-0.011
2363,0.027,-0.011
2364,0.034,-0.015
2365,0.030,-0.018
2366,0.024,-0.033
2367,0.024,-0.033
2368,0.034,-0.033
2369,0.020,-0.029
2370,-0.030,-0.033
2371,-0.081,-0.025
2372,-0.108,-0.025
2373,-0.115,-0.033
2374,-0.115,-0.033
2375,-0.108,-0.022
2376,-0.098,-0.022
2377,-0.068,-0.022
2378,-0.037,-0.036
2379,-0.041,-0.051
2380,-0.061,-0.058
2381,-0.074,-0.058
2382,-0.081,-0.069
2383,-0.071,-0.069
2384,-0.044,-0.065
2385,-0.034,-0.055
2386,-0.047,-0.036
2387,-0.054,-0.025
2388,-0.051,-0.036
2389,-0.074,-0.051
2390,-0.135,-0.058
2391,-0.162,-0.055
2392,-0.128,-0.055
2393,-0.081,-0.051
2394,-0.051,-0.047
2395,-0.047,-0.044
2396,-0.068,-0.055
2397,-0.098,-0.080
2398,-0.111,-0.098
2399,-0.098,-0.098
2400,-0.081,-0.091
2401,-0.064,-0.065
2402,-0.034,-0.047
2403,-0.010,-0.033
2404,-0.007,-0.033
2405,-0.030,-0.033
2406,-0.061,-0.040
2407,-0.081,-0.051
2408,-0.098,-0.069
2409,-0.105,-0.065
2410,-0.098,-0.055
2411,-0.095,-0.055
2412,-0.095,-0.058
2413,-0.088,-0.055
2414,-0.071,-0.051
2415,-0.081,-0.047
2416,-0.098,-0.044
2417,-0.074,-0.036
2418,-0.051,-0.044
2419,-0.047,-0.047
2420,-0.071,-0.055
2421,-0.108,-0.047
2422,-0.128,-0.044
2423,-0.132,-0.044
2424,-0.132,-0.047
2425,-0.132,-0.047
2426,-0.118,-0.055
2427,-0.101,-0.058
2428,-0.095,-0.058
2429,-0.105,-0.047
2430,-0.128,-0.047
2431,-0.142,-0.055
2432,-0.122,-0.058
2433,-0.081,-0.058
2434,-0.071,-0.051
2435,-0.081,-0.044
2436,-0.091,-0.047
2437,-0.095,-0.047
2438,-0.078,-0.055
2439,-0.064,-0.055
2440,-0.051,-0.055
2441,-0.054,-0.051
2442,-0.081,-0.058
2443,-0.095,-0.062
2444,-0.095,-0.069
2445,-0.091,-0.069
2446,-0.091,-0.062
2447,-0.078,-0.055
2448,-0.071,-0.051
2449,-0.068,-0.047
2450,-0.068,-0.051
2451,-0.064,-0.051
2452,-0.068,-0.055
2453,-0.074,-0.055
2454,-0.084,-0.065
2455,-0.088,-0.073
2456,-0.091,-0.080
2457,-0.091,-0.080
2458,-0.091,-0.069
2459,-0.091,-0.058
2460,-0.088,-0.058
2461,-0.088,-0.058
2462,-0.084,-0.058
2463,-0.084,-0.062
2464,-0.091,-0.065
2465,-0.095,-0.065
2466,-0.095,-0.076
2467,-0.091,-0.080
2468,-0.088,-0.080
2469,-0.084,-0.076
2470,-0.081,-0.069
2471,-0.084,-0.065
2472,-0.088,-0.065
2473,-0.091,-0.065
2474,-0.105,-0.073
2475,-0.122,-0.069
2476,-0.118,-0.062
2477,-0.091,-0.055
2478,-0.074,-0.062
2479,-0.074,-0.065
2480,-0.071,-0.065
2481,-0.068,-0.058
2482,-0.064,-0.047
2483,-0.057,-0.044
2484,-0.057,-0.055
2485,-0.057,-0.065
2486,-0.064,-0.076
2487,-0.088,-0.076
2488,-0.111,-0.069
2489,-0.128,-0.058
2490,-0.118,-0.055
2491,-0.081,-0.040
2492,-0.061,-0.022
2493,-0.095,0.000
2494,-0.125,0.011
2495,-0.115,0.015
2496,-0.088,0.000
2497,-0.057,-0.011
2498,-0.037,-0.025
2499,-0.027,-0.033
2500,-0.024,-0.040
2501,-0.020,-0.047
2502,-0.017,-0.058
2503,-0.010,-0.069
2504,-0.017,-0.084
2505,-0.047,-0.098
2506,-0.078,-0.113
2507,-0.084,-0.124
2508,-0.054,-0.138
2509,-0.020,-0.145
2510,0.000,-0.153
2511,-0.010,-0.145
2512,-0.010,-0.135
2513,0.000,-0.135
2514,0.000,-0.145
2515,0.000,-0.156
2516,-0.007,-0.167
2517,-0.014,-0.164
2518,-0.017,-0.145
2519,-0.017,-0.131
2520,-0.017,-0.135
2521,-0.017,-0.142
2522,-0.017,-0.138
2523,-0.030,-0.113
2524,-0.061,-0.087
2525,-0.108,-0.076
2526,-0.135,-0.080
2527,-0.142,-0.087
2528,-0.152,-0.095
2529,-0.193,-0.098
2530,-0.209,-0.091
2531,-0.176,-0.084
2532,-0.125,-0.087
2533,-0.108,-0.084
2534,-0.118,-0.084
2535,-0.135,-0.080
2536,-0.142,-0.069
2537,-0.139,-0.065
2538,-0.122,-0.069
2539,-0.101,-0.065
2540,-0.098,-0.040
2541,-0.115,-0.022
2542,-0.135,-0.015
2543,-0.172,0.000
2544,-0.186,0.033
2545,-0.139,0.076
2546,-0.051,0.113
2547,0.037,0.124
2548,0.105,0.087
2549,0.169,-0.004
2550,0.253,-0.124
2551,0.365,-0.255
2552,0.497,-0.396
2553,0.625,-0.513
2554,0.659,-0.604
2555,0.568,-0.673
2556,0.422,-0.745
2557,0.284,-0.847
2558,0.145,-0.924
2559,0.007,-0.913
2560,-0.132,-0.840
2561,-0.348,-0.745
2562,-0.608,-0.640
2563,-0.818,-0.538
2564,-0.919,-0.480
2565,-0.943,-0.385
2566,-0.932,-0.218
2567,-0.902,-0.036
2568,-0.882,0.098
2569,-0.892,0.215
2570,-0.909,0.309
2571,-0.909,0.425
2572,-0.902,0.560
2573,-0.909,0.691
2574,-0.905,0.775
2575,-0.872,0.807
2576,-0.851,0.833
2577,-0.865,0.869
2578,-0.916,0.898
2579,-0.970,0.916
2580,-1.010,0.920
2581,-1.017,0.895
2582,-0.986,0.840
2583,-0.912,0.767
2584,-0.804,0.680
2585,-0.686,0.596
2586,-0.618,0.487
2587,-0.581,0.342
2588,-0.537,0.211
2589,-0.490,0.135
2590,-0.456,0.098
2591,-0.402,0.076
2592,-0.297,0.051
2593,-0.209,0.025
2594,-0.193,-0.015
2595,-0.193,-0.062
2596,-0.166,-0.080
2597,-0.125,-0.084
2598,-0.098,-0.095
2599,-0.091,-0.109
2600,-0.098,-0.113
2601,-0.095,-0.116
2602,-0.088,-0.124
2603,-0.098,-0.127
2604,-0.101,-0.135
2605,-0.101,-0.142
2606,-0.108,-0.153
2607,-0.108,-0.156
2608,-0.101,-0.160
2609,-0.095,-0.167
2610,-0.088,-0.171
2611,-0.074,-0.167
2612,-0.051,-0.175
2613,-0.054,-0.182
2614,-0.061,-0.185
2615,-0.054,-0.178
2616,-0.041,-0.185
2617,-0.030,-0.193
2618,-0.003,-0.218
2619,0.014,-0.225
2620,0.030,-0.218
2621,0.047,-0.215
2622,0.064,-0.236
2623,0.064,-0.251
2624,0.047,-0.244
2625,0.000,-0.240
2626,-0.061,-0.244
2627,-0.061,-0.247
2628,-0.003,-0.255
2629,0.037,-0.265
2630,0.054,-0.276
2631,0.057,-0.276
2632,0.034,-0.284
2633,0.017,-0.287
2634,0.030,-0.305
2635,0.068,-0.320
2636,0.115,-0.335
2637,0.155,-0.349
2638,0.169,-0.364
2639,0.172,-0.378
2640,0.193,-0.396
2641,0.233,-0.415
2642,0.250,-0.440
2643,0.240,-0.462
2644,0.226,-0.465
2645,0.240,-0.465
2646,0.267,-0.487
2647,0.291,-0.505
2648,0.318,-0.527
2649,0.328,-0.545
2650,0.351,-0.560
2651,0.405,-0.571
2652,0.493,-0.575
2653,0.554,-0.578
2654,0.578,-0.589
2655,0.591,-0.582
2656,0.628,-0.582
2657,0.669,-0.571
2658,0.689,-0.560
2659,0.655,-0.545
2660,0.584,-0.524
2661,0.500,-0.484
2662,0.453,-0.458
2663,0.449,-0.429
2664,0.473,-0.400
2665,0.500,-0.371
2666,0.490,-0.353
2667,0.463,-0.320
2668,0.429,-0.276
2669,0.365,-0.229
2670,0.264,-0.189
2671,0.182,-0.167
2672,0.152,-0.153
2673,0.142,-0.120
2674,0.139,-0.095
2675,0.118,-0.076
2676,0.091,-0.065
2677,0.071,-0.058
2678,0.074,-0.055
2679,0.068,-0.051
2680,0.047,-0.044
2681,0.003,-0.033
2682,-0.027,-0.044
2683,-0.020,-0.047
2684,-0.027,-0.058
2685,-0.061,-0.055
2686,-0.111,-0.051
2687,-0.159,-0.047
2688,-0.172,-0.051
2689,-0.152,-0.058
2690,-0.118,-0.073
2691,-0.091,-0.069
2692,-0.074,-0.062
2693,-0.081,-0.047
2694,-0.101,-0.051
2695,-0.125,-0.058
2696,-0.132,-0.069
2697,-0.128,-0.069
2698,-0.128,-0.065
2699,-0.108,-0.069
2700,-0.071,-0.080
2701,-0.057,-0.091
2702,-0.071,-0.091
2703,-0.101,-0.076
2704,-0.145,-0.047
2705,-0.213,-0.033
2706,-0.264,-0.044
2707,-0.270,-0.076
2708,-0.243,-0.102
2709,-0.199,-0.098
2710,-0.162,-0.080
2711,-0.142,-0.069
2712,-0.132,-0.069
2713,-0.135,-0.069
2714,-0.125,-0.073
2715,-0.091,-0.069
2716,-0.061,-0.069
2717,-0.071,-0.069
2718,-0.142,-0.069
2719,-0.223,-0.069
2720,-0.267,-0.069
2721,-0.267,-0.058
2722,-0.233,-0.047
2723,-0.216,-0.051
2724,-0.223,-0.058
2725,-0.230,-0.058
2726,-0.240,-0.058
2727,-0.280,-0.065
2728,-0.304,-0.062
2729,-0.277,-0.055
2730,-0.196,-0.065
2731,-0.128,-0.080
2732,-0.108,-0.087
2733,-0.115,-0.080
2734,-0.122,-0.069
2735,-0.128,-0.062
2736,-0.135,-0.065
2737,-0.159,-0.076
2738,-0.182,-0.087
2739,-0.189,-0.080
2740,-0.152,-0.069
2741,-0.108,-0.062
2742,-0.071,-0.069
2743,-0.020,-0.087
2744,0.010,-0.098
2745,-0.034,-0.095
2746,-0.125,-0.076
2747,-0.189,-0.051
2748,-0.206,-0.051
2749,-0.203,-0.058
2750,-0.213,-0.080
2751,-0.216,-0.091
2752,-0.213,-0.091
2753,-0.209,-0.080
2754,-0.199,-0.076
2755,-0.172,-0.080
2756,-0.152,-0.080
2757,-0.159,-0.069
2758,-0.172,-0.065
2759,-0.182,-0.058
2760,-0.176,-0.069
2761,-0.179,-0.091
2762,-0.189,-0.109
2763,-0.176,-0.102
2764,-0.159,-0.087
2765,-0.172,-0.073
2766,-0.182,-0.076
2767,-0.172,-0.087
2768,-0.149,-0.091
2769,-0.139,-0.080
2770,-0.152,-0.073
2771,-0.169,-0.058
2772,-0.179,-0.065
2773,-0.189,-0.076
2774,-0.189,-0.087
2775,-0.179,-0.080
2776,-0.176,-0.073
2777,-0.189,-0.069
2778,-0.193,-0.065
2779,-0.172,-0.065
2780,-0.179,-0.076
2781,-0.209,-0.080
2782,-0.220,-0.087
2783,-0.199,-0.091
2784,-0.169,-0.087
2785,-0.152,-0.080
2786,-0.152,-0.084
2787,-0.155,-0.080
2788,-0.152,-0.069
2789,-0.155,-0.058
2790,-0.166,-0.065
2791,-0.179,-0.069
2792,-0.193,-0.076
2793,-0.189,-0.076
2794,-0.189,-0.076
2795,-0.189,-0.069
2796,-0.172,-0.069
2797,-0.149,-0.073
2798,-0.132,-0.080
2799,-0.135,-0.076
2800,-0.155,-0.065
2801,-0.176,-0.055
2802,-0.193,-0.058
2803,-0.209,-0.076
2804,-0.243,-0.091
2805,-0.243,-0.084
2806,-0.186,-0.069
2807,-0.108,-0.058
2808,-0.095,-0.065
2809,-0.142,-0.065
2810,-0.199,-0.065
2811,-0.226,-0.055
2812,-0.206,-0.044
2813,-0.159,-0.044
2814,-0.128,-0.055
2815,-0.132,-0.065
2816,-0.169,-0.076
2817,-0.223,-0.069
2818,-0.257,-0.065
2819,-0.270,-0.065
2820,-0.257,-0.069
2821,-0.230,-0.069
2822,-0.199,-0.069
2823,-0.176,-0.058
2824,-0.179,-0.047
2825,-0.189,-0.047
2826,-0.193,-0.044
2827,-0.179,-0.047
2828,-0.166,-0.065
2829,-0.155,-0.073
2830,-0.145,-0.073
2831,-0.142,-0.065
2832,-0.149,-0.065
2833,-0.155,-0.069
2834,-0.149,-0.076
2835,-0.142,-0.069
2836,-0.152,-0.058
2837,-0.176,-0.047
2838,-0.209,-0.047
2839,-0.233,-0.055
2840,-0.236,-0.058
2841,-0.236,-0.051
2842,-0.203,-0.044
2843,-0.159,-0.044
2844,-0.128,-0.055
2845,-0.135,-0.065
2846,-0.162,-0.069
2847,-0.182,-0.065
2848,-0.179,-0.058
2849,-0.169,-0.055
2850,-0.186,-0.058
2851,-0.226,-0.065
2852,-0.233,-0.062
2853,-0.196,-0.044
2854,-0.166,-0.036
2855,-0.172,-0.036
2856,-0.213,-0.044
2857,-0.247,-0.051
2858,-0.250,-0.058
2859,-0.240,-0.065
2860,-0.216,-0.065
2861,-0.189,-0.055
2862,-0.169,-0.047
2863,-0.169,-0.044
2864,-0.189,-0.055
2865,-0.206,-0.055
2866,-0.206,-0.044
2867,-0.189,-0.029
2868,-0.169,-0.033
2869,-0.159,-0.047
2870,-0.166,-0.055
2871,-0.176,-0.051
2872,-0.169,-0.051
2873,-0.169,-0.047
2874,-0.176,-0.051
2875,-0.179,-0.055
2876,-0.169,-0.058
2877,-0.162,-0.055
2878,-0.172,-0.051
2879,-0.189,-0.047
2880,-0.199,-0.047
2881,-0.193,-0.047
2882,-0.182,-0.047
2883,-0.172,-0.047
2884,-0.172,-0.040
2885,-0.179,-0.036
2886,-0.193,-0.036
2887,-0.189,-0.036
2888,-0.162,-0.044
2889,-0.132,-0.044
2890,-0.128,-0.044
2891,-0.145,-0.051
2892,-0.169,-0.058
2893,-0.169,-0.062
2894,-0.152,-0.058
2895,-0.155,-0.047
2896,-0.179,-0.036
2897,-0.216,-0.025
2898,-0.243,-0.029
2899,-0.236,-0.036
2900,-0.209,-0.047
2901,-0.193,-0.040
2902,-0.189,-0.022
2903,-0.203,-0.015
2904,-0.203,-0.033
2905,-0.193,-0.058
2906,-0.179,-0.076
2907,-0.162,-0.069
2908,-0.142,-0.055
2909,-0.125,-0.036
2910,-0.135,-0.036
2911,-0.172,-0.040
2912,-0.213,-0.047
2913,-0.233,-0.047
2914,-0.209,-0.040
2915,-0.152,-0.033
2916,-0.115,-0.036
2917,-0.132,-0.040
2918,-0.162,-0.040
2919,-0.172,-0.033
2920,-0.186,-0.018
2921,-0.216,0.000
2922,-0.236,0.007
2923,-0.240,0.015
2924,-0.243,0.007
2925,-0.230,0.004
2926,-0.186,0.022
2927,-0.125,0.047
2928,-0.088,0.058
2929,-0.091,0.055
2930,-0.115,0.036
2931,-0.108,0.029
2932,-0.091,0.022
2933,-0.068,0.018
2934,-0.044,0.011
2935,-0.057,0.000
2936,-0.101,-0.004
2937,-0.132,-0.007
2938,-0.122,-0.018
2939,-0.081,-0.025
2940,-0.044,-0.036
2941,-0.027,-0.051
2942,-0.024,-0.062
2943,-0.034,-0.065
2944,-0.030,-0.073
2945,-0.014,-0.084
2946,0.000,-0.105
2947,-0.014,-0.120
2948,-0.051,-0.124
2949,-0.101,-0.127
2950,-0.135,-0.124
2951,-0.145,-0.113
2952,-0.155,-0.098
2953,-0.155,-0.087
2954,-0.149,-0.084
2955,-0.139,-0.076
2956,-0.135,-0.069
2957,-0.149,-0.058
2958,-0.169,-0.065
2959,-0.196,-0.065
2960,-0.220,-0.069
2961,-0.253,-0.073
2962,-0.270,-0.087
2963,-0.236,-0.087
2964,-0.172,-0.076
2965,-0.135,-0.073
2966,-0.135,-0.073
2967,-0.145,-0.069
2968,-0.159,-0.065
2969,-0.176,-0.055
2970,-0.182,-0.047
2971,-0.186,-0.044
2972,-0.193,-0.036
2973,-0.213,-0.007
2974,-0.213,0.015
2975,-0.189,0.044
2976,-0.182,0.055
2977,-0.182,0.076
2978,-0.166,0.098
2979,-0.125,0.098
2980,-0.020,0.051
2981,0.101,-0.025
2982,0.233,-0.135
2983,0.358,-0.265
2984,0.500,-0.400
2985,0.639,-0.502
2986,0.686,-0.575
2987,0.615,-0.629
2988,0.514,-0.687
2989,0.422,-0.767
2990,0.331,-0.829
2991,0.199,-0.815
2992,0.014,-0.749
2993,-0.213,-0.662
2994,-0.439,-0.556
2995,-0.662,-0.484
2996,-0.811,-0.447
2997,-0.868,-0.364
2998,-0.878,-0.207
2999,-0.858,-0.044
3000,-0.838,0.084
3001,-0.848,0.204
3002,-0.895,0.305
3003,-0.946,0.418
3004,-0.966,0.545
3005,-0.973,0.665
3006,-0.986,0.749
3007,-0.990,0.789
3008,-0.993,0.815
3009,-1.020,0.851
3010,-1.054,0.876
3011,-1.034,0.898
3012,-0.966,0.905
3013,-0.905,0.887
3014,-0.892,0.836
3015,-0.892,0.778
3016,-0.875,0.709
3017,-0.811,0.618
3018,-0.716,0.495
3019,-0.611,0.342
3020,-0.517,0.218
3021,-0.453,0.153
3022,-0.426,0.124
3023,-0.405,0.109
3024,-0.392,0.091
3025,-0.368,0.065
3026,-0.321,0.022
3027,-0.270,-0.015
3028,-0.230,-0.033
3029,-0.196,-0.036
3030,-0.169,-0.044
3031,-0.149,-0.058
3032,-0.139,-0.073
3033,-0.142,-0.076
3034,-0.149,-0.073
3035,-0.159,-0.069
3036,-0.145,-0.084
3037,-0.132,-0.098
3038,-0.145,-0.124
3039,-0.155,-0.135
3040,-0.135,-0.131
3041,-0.088,-0.113
3042,-0.051,-0.113
3043,-0.030,-0.124
3044,-0.034,-0.135
3045,-0.051,-0.135
3046,-0.084,-0.131
3047,-0.128,-0.124
3048,-0.145,-0.127
3049,-0.152,-0.138
3050,-0.142,-0.145
3051,-0.098,-0.153
3052,-0.047,-0.153
3053,-0.024,-0.149
3054,0.000,-0.153
3055,0.000,-0.156
3056,-0.024,-0.167
3057,-0.047,-0.178
3058,-0.057,-0.185
3059,-0.047,-0.178
3060,-0.017,-0.178
3061,0.017,-0.189
3062,0.037,-0.211
3063,0.030,-0.218
3064,0.020,-0.211
3065,0.030,-0.211
3066,0.047,-0.233
3067,0.068,-0.247
3068,0.088,-0.262
3069,0.108,-0.276
3070,0.128,-0.287
3071,0.155,-0.284
3072,0.182,-0.298
3073,0.203,-0.324
3074,0.233,-0.342
3075,0.257,-0.353
3076,0.270,-0.364
3077,0.284,-0.371
3078,0.301,-0.385
3079,0.307,-0.400
3080,0.328,-0.418
3081,0.358,-0.425
3082,0.399,-0.433
3083,0.436,-0.440
3084,0.466,-0.458
3085,0.486,-0.469
3086,0.507,-0.476
3087,0.517,-0.480
3088,0.537,-0.473
3089,0.534,-0.458
3090,0.524,-0.447
3091,0.520,-0.440
3092,0.520,-0.433
3093,0.517,-0.411
3094,0.507,-0.375
3095,0.483,-0.327
3096,0.459,-0.298
3097,0.436,-0.284
3098,0.419,-0.251
3099,0.405,-0.200
3100,0.372,-0.160
3101,0.311,-0.131
3102,0.267,-0.109
3103,0.240,-0.084
3104,0.226,-0.062
3105,0.213,-0.033
3106,0.186,-0.004
3107,0.145,0.015
3108,0.098,0.022
3109,0.061,0.018
3110,0.054,0.015
3111,0.071,0.022
3112,0.081,0.029
3113,0.088,0.033
3114,0.084,0.029
3115,0.071,0.025
3116,0.034,0.011
3117,-0.007,0.011
3118,-0.030,0.015
3119,-0.047,0.018
3120,-0.071,0.011
3121,-0.098,0.000
3122,-0.108,-0.011
3123,-0.101,-0.007
3124,-0.091,0.000
3125,-0.098,0.000
3126,-0.101,-0.004
3127,-0.088,-0.011
3128,-0.078,-0.015
3129,-0.078,-0.018
3130,-0.088,-0.015
3131,-0.118,-0.007
3132,-0.149,-0.007
3133,-0.196,-0.011
3134,-0.216,-0.022
3135,-0.186,-0.022
3136,-0.139,-0.015
3137,-0.115,-0.015
3138,-0.105,-0.022
3139,-0.091,-0.022
3140,-0.064,-0.022
3141,-0.047,-0.015
3142,-0.054,-0.011
3143,-0.074,-0.004
3144,-0.101,0.000
3145,-0.115,-0.004
3146,-0.115,-0.011
3147,-0.118,-0.015
3148,-0.115,-0.022
3149,-0.122,-0.022
3150,-0.111,-0.029
3151,-0.091,-0.033
3152,-0.091,-0.036
3153,-0.105,-0.033
3154,-0.101,-0.025
3155,-0.088,-0.015
3156,-0.068,-0.011
3157,-0.081,-0.015
3158,-0.115,-0.022
3159,-0.135,-0.022
3160,-0.128,-0.015
3161,-0.122,-0.011
3162,-0.108,-0.011
3163,-0.095,-0.011
3164,-0.088,-0.018
3165,-0.088,-0.018
3166,-0.095,-0.015
3167,-0.091,-0.004
3168,-0.078,-0.004
3169,-0.074,-0.007
3170,-0.095,-0.015
3171,-0.115,-0.015
3172,-0.125,-0.011
3173,-0.128,0.000
3174,-0.122,0.000
3175,-0.108,-0.004
3176,-0.105,-0.015
3177,-0.115,-0.015
3178,-0.098,-0.011
3179,-0.064,0.000
3180,-0.041,-0.004
3181,-0.034,-0.011
3182,-0.037,-0.018
3183,-0.051,-0.022
3184,-0.074,-0.022
3185,-0.098,-0.018
3186,-0.111,-0.022
3187,-0.125,-0.036
3188,-0.145,-0.047
3189,-0.145,-0.044
3190,-0.135,-0.033
3191,-0.125,-0.022
3192,-0.122,-0.022
3193,-0.122,-0.029
3194,-0.128,-0.033
3195,-0.132,-0.033
3196,-0.108,-0.022
3197,-0.061,-0.015
3198,-0.037,-0.011
3199,-0.068,-0.015
3200,-0.118,-0.022
3201,-0.125,-0.022
3202,-0.084,-0.022
3203,-0.037,-0.015
3204,-0.010,-0.011
3205,-0.017,-0.011
3206,-0.044,-0.022
3207,-0.074,-0.025
3208,-0.084,-0.033
3209,-0.088,-0.036
3210,-0.111,-0.044
3211,-0.145,-0.047
3212,-0.166,-0.055
3213,-0.162,-0.044
3214,-0.139,-0.029
3215,-0.118,-0.022
3216,-0.108,-0.025
3217,-0.108,-0.029
3218,-0.115,-0.033
3219,-0.101,-0.033
3220,-0.095,-0.025
3221,-0.118,-0.022
3222,-0.135,-0.022
3223,-0.125,-0.025
3224,-0.088,-0.033
3225,-0.047,-0.033
3226,-0.037,-0.025
3227,-0.071,-0.022
3228,-0.105,-0.033
3229,-0.122,-0.044
3230,-0.118,-0.047
3231,-0.115,-0.044
3232,-0.105,-0.033
3233,-0.091,-0.025
3234,-0.084,-0.033
3235,-0.081,-0.036
3236,-0.081,-0.044
3237,-0.101,-0.040
3238,-0.122,-0.033
3239,-0.128,-0.029
3240,-0.088,-0.033
3241,-0.041,-0.033
3242,-0.020,-0.033
3243,-0.027,-0.029
3244,-0.054,-0.022
3245,-0.078,-0.015
3246,-0.081,-0.022
3247,-0.081,-0.025
3248,-0.095,-0.036
3249,-0.118,-0.040
3250,-0.142,-0.033
3251,-0.155,-0.025
3252,-0.155,-0.025
3253,-0.152,-0.033
3254,-0.142,-0.047
3255,-0.139,-0.055
3256,-0.122,-0.047
3257,-0.118,-0.036
3258,-0.125,-0.036
3259,-0.115,-0.036
3260,-0.098,-0.044
3261,-0.091,-0.044
3262,-0.095,-0.036
3263,-0.101,-0.029
3264,-0.108,-0.033
3265,-0.122,-0.036
3266,-0.149,-0.036
3267,-0.149,-0.033
3268,-0.122,-0.025
3269,-0.095,-0.015
3270,-0.095,-0.022
3271,-0.108,-0.036
3272,-0.122,-0.058
3273,-0.128,-0.058
3274,-0.122,-0.055
3275,-0.115,-0.047
3276,-0.098,-0.044
3277,-0.081,-0.040
3278,-0.068,-0.040
3279,-0.057,-0.044
3280,-0.064,-0.040
3281,-0.081,-0.033
3282,-0.095,-0.033
3283,-0.105,-0.040
3284,-0.108,-0.047
3285,-0.095,-0.044
3286,-0.095,-0.033
3287,-0.095,-0.022
3288,-0.095,-0.025
3289,-0.098,-0.033
3290,-0.108,-0.036
3291,-0.122,-0.036
3292,-0.122,-0.036
3293,-0.118,-0.040
3294,-0.111,-0.044
3295,-0.108,-0.051
3296,-0.098,-0.055
3297,-0.088,-0.047
3298,-0.081,-0.040
3299,-0.088,-0.033
3300,-0.091,-0.036
3301,-0.098,-0.044
3302,-0.095,-0.051
3303,-0.071,-0.047
3304,-0.061,-0.040
3305,-0.068,-0.033
3306,-0.078,-0.036
3307,-0.095,-0.044
3308,-0.108,-0.047
3309,-0.118,-0.047
3310,-0.132,-0.044
3311,-0.149,-0.040
3312,-0.166,-0.040
3313,-0.139,-0.040
3314,-0.101,-0.044
3315,-0.068,-0.025
3316,-0.044,-0.004
3317,-0.051,0.015
3318,-0.071,0.022
3319,-0.078,0.029
3320,-0.054,0.025
3321,-0.027,0.025
3322,-0.030,0.040
3323,-0.044,0.055
3324,-0.061,0.055
3325,-0.078,0.033
3326,-0.088,0.015
3327,-0.091,0.015
3328,-0.074,0.022
3329,-0.034,0.015
3330,0.000,-0.011
3331,0.024,-0.044
3332,0.027,-0.076
3333,0.003,-0.091
3334,-0.014,-0.091
3335,-0.017,-0.076
3336,-0.010,-0.073
3337,-0.007,-0.080
3338,-0.010,-0.102
3339,-0.014,-0.124
3340,-0.003,-0.135
3341,0.000,-0.138
3342,0.000,-0.135
3343,0.000,-0.124
3344,-0.017,-0.116
3345,-0.044,-0.102
3346,-0.071,-0.087
3347,-0.095,-0.076
3348,-0.108,-0.073
3349,-0.091,-0.080
3350,-0.047,-0.091
3351,-0.027,-0.091
3352,-0.037,-0.076
3353,-0.068,-0.065
3354,-0.105,-0.069
3355,-0.135,-0.076
3356,-0.145,-0.084
3357,-0.149,-0.080
3358,-0.142,-0.076
3359,-0.128,-0.073
3360,-0.118,-0.069
3361,-0.125,-0.076
3362,-0.128,-0.076
3363,-0.122,-0.065
3364,-0.118,-0.044
3365,-0.128,-0.015
3366,-0.132,0.000
3367,-0.122,0.011
3368,-0.101,0.015
3369,-0.088,0.033
3370,-0.068,0.073
3371,-0.037,0.113
3372,-0.024,0.113
3373,0.007,0.069
3374,0.118,-0.022
3375,0.277,-0.124
3376,0.419,-0.240
3377,0.524,-0.360
3378,0.635,-0.473
3379,0.703,-0.571
3380,0.682,-0.644
3381,0.605,-0.691
3382,0.510,-0.764
3383,0.402,-0.822
3384,0.250,-0.833
3385,0.044,-0.789
3386,-0.179,-0.713
3387,-0.389,-0.615
3388,-0.581,-0.495
3389,-0.747,-0.404
3390,-0.828,-0.331
3391,-0.845,-0.200
3392,-0.834,-0.025
3393,-0.841,0.131
3394,-0.868,0.284
3395,-0.902,0.415
3396,-0.939,0.516
3397,-0.973,0.636
3398,-0.986,0.771
3399,-0.966,0.873
3400,-0.939,0.927
3401,-0.946,0.967
3402,-0.976,0.996
3403,-0.990,1.011
3404,-0.990,1.011
3405,-0.980,1.004
3406,-0.980,0.975
3407,-0.973,0.916
3408,-0.936,0.829
3409,-0.865,0.713
3410,-0.757,0.593
3411,-0.652,0.455
3412,-0.571,0.298
3413,-0.493,0.204
3414,-0.419,0.164
3415,-0.341,0.135
3416,-0.277,0.105
3417,-0.243,0.073
3418,-0.223,0.033
3419,-0.182,0.000
3420,-0.135,-0.015
3421,-0.108,-0.033
3422,-0.111,-0.044
3423,-0.118,-0.058
3424,-0.105,-0.058
3425,-0.071,-0.058
3426,-0.037,-0.073
3427,-0.044,-0.091
3428,-0.095,-0.102
3429,-0.128,-0.105
3430,-0.101,-0.109
3431,-0.071,-0.113
3432,-0.051,-0.124
3433,-0.047,-0.131
3434,-0.044,-0.138
3435,-0.027,-0.142
3436,-0.007,-0.142
3437,-0.003,-0.138
3438,0.000,-0.142
3439,0.007,-0.142
3440,0.010,-0.153
3441,0.017,-0.167
3442,0.030,-0.171
3443,0.034,-0.171
3444,0.020,-0.167
3445,-0.014,-0.167
3446,-0.044,-0.185
3447,-0.024,-0.193
3448,0.030,-0.193
3449,0.078,-0.178
3450,0.068,-0.164
3451,0.017,-0.167
3452,-0.020,-0.189
3453,-0.020,-0.196
3454,0.010,-0.182
3455,0.041,-0.175
3456,0.057,-0.193
3457,0.064,-0.222
3458,0.078,-0.233
3459,0.101,-0.244
3460,0.118,-0.262
3461,0.118,-0.265
3462,0.105,-0.273
3463,0.078,-0.295
3464,0.122,-0.320
3465,0.220,-0.338
3466,0.324,-0.342
3467,0.365,-0.342
3468,0.358,-0.360
3469,0.368,-0.382
3470,0.426,-0.404
3471,0.459,-0.422
3472,0.466,-0.429
3473,0.449,-0.436
3474,0.449,-0.451
3475,0.490,-0.469
3476,0.530,-0.480
3477,0.551,-0.487
3478,0.561,-0.495
3479,0.581,-0.498
3480,0.608,-0.505
3481,0.605,-0.505
3482,0.591,-0.502
3483,0.598,-0.491
3484,0.615,-0.476
3485,0.598,-0.451
3486,0.561,-0.425
3487,0.534,-0.400
3488,0.527,-0.378
3489,0.517,-0.353
3490,0.507,-0.313
3491,0.483,-0.265
3492,0.449,-0.240
3493,0.422,-0.211
3494,0.402,-0.178
3495,0.365,-0.138
3496,0.328,-0.113
3497,0.297,-0.087
3498,0.280,-0.062
3499,0.260,-0.044
3500,0.247,-0.029
3501,0.233,-0.022
3502,0.196,0.000
3503,0.132,0.018
3504,0.074,0.018
3505,0.041,0.007
3506,0.037,0.000
3507,0.051,0.000
3508,0.057,0.007
3509,0.041,0.015
3510,0.024,0.011
3511,0.027,0.000
3512,0.024,-0.007
3513,-0.003,-0.004
3514,-0.037,0.000
3515,-0.054,0.000
3516,-0.068,0.004
3517,-0.084,0.000
3518,-0.088,-0.011
3519,-0.098,-0.018
3520,-0.091,-0.022
3521,-0.061,-0.015
3522,-0.024,-0.015
3523,0.010,-0.018
3524,0.041,-0.025
3525,0.034,-0.025
3526,-0.003,-0.025
3527,-0.047,-0.018
3528,-0.081,-0.022
3529,-0.105,-0.029
3530,-0.101,-0.036
3531,-0.064,-0.036
3532,-0.044,-0.033
3533,-0.078,-0.025
3534,-0.115,-0.025
3535,-0.115,-0.040
3536,-0.095,-0.047
3537,-0.078,-0.044
3538,-0.064,-0.033
3539,-0.051,-0.022
3540,-0.047,-0.018
3541,-0.044,-0.015
3542,-0.027,-0.015
3543,-0.024,-0.015
3544,-0.030,-0.015
3545,-0.047,-0.011
3546,-0.078,-0.011
3547,-0.101,-0.022
3548,-0.105,-0.033
3549,-0.091,-0.033
3550,-0.064,-0.029
3551,-0.054,-0.022
3552,-0.068,-0.018
3553,-0.084,-0.025
3554,-0.095,-0.029
3555,-0.091,-0.025
3556,-0.071,-0.015
3557,-0.057,-0.004
3558,-0.037,-0.004
3559,-0.014,-0.015
3560,-0.014,-0.022
3561,-0.034,-0.022
3562,-0.057,-0.015
3563,-0.091,-0.004
3564,-0.128,-0.007
3565,-0.169,-0.022
3566,-0.179,-0.033
3567,-0.159,-0.033
3568,-0.132,-0.022
3569,-0.128,-0.011
3570,-0.142,-0.007
3571,-0.122,-0.015
3572,-0.051,-0.025
3573,0.014,-0.025
3574,0.020,-0.022
3575,-0.014,-0.015
3576,-0.054,-0.011
3577,-0.074,-0.015
3578,-0.084,-0.022
3579,-0.088,-0.015
3580,-0.081,-0.004
3581,-0.074,0.000
3582,-0.071,0.000
3583,-0.068,-0.015
3584,-0.068,-0.025
3585,-0.068,-0.025
3586,-0.068,-0.015
3587,-0.081,-0.011
3588,-0.091,-0.015
3589,-0.098,-0.025
3590,-0.108,-0.033
3591,-0.105,-0.033
3592,-0.081,-0.025
3593,-0.061,-0.015
3594,-0.041,-0.022
3595,-0.020,-0.033
3596,-0.017,-0.044
3597,-0.027,-0.040
3598,-0.041,-0.029
3599,-0.057,-0.015
3600,-0.061,-0.015
3601,-0.061,-0.022
3602,-0.064,-0.025
3603,-0.071,-0.025
3604,-0.074,-0.015
3605,-0.071,-0.011
3606,-0.068,-0.015
3607,-0.068,-0.018
3608,-0.078,-0.025
3609,-0.101,-0.033
3610,-0.125,-0.033
3611,-0.142,-0.029
3612,-0.142,-0.033
3613,-0.128,-0.036
3614,-0.108,-0.044
3615,-0.084,-0.036
3616,-0.074,-0.029
3617,-0.078,-0.018
3618,-0.088,-0.015
3619,-0.098,-0.015
3620,-0.111,-0.025
3621,-0.125,-0.033
3622,-0.108,-0.033
3623,-0.081,-0.022
3624,-0.074,-0.018
3625,-0.088,-0.022
3626,-0.108,-0.025
3627,-0.115,-0.022
3628,-0.088,-0.015
3629,-0.054,-0.015
3630,-0.041,-0.018
3631,-0.071,-0.025
3632,-0.122,-0.040
3633,-0.149,-0.044
3634,-0.128,-0.040
3635,-0.084,-0.029
3636,-0.068,-0.029
3637,-0.091,-0.036
3638,-0.128,-0.044
3639,-0.135,-0.033
3640,-0.108,-0.025
3641,-0.078,-0.015
3642,-0.068,-0.018
3643,-0.071,-0.033
3644,-0.091,-0.044
3645,-0.115,-0.044
3646,-0.101,-0.036
3647,-0.064,-0.025
3648,-0.037,-0.022
3649,-0.027,-0.022
3650,-0.034,-0.025
3651,-0.051,-0.022
3652,-0.064,-0.015
3653,-0.084,-0.007
3654,-0.101,-0.015
3655,-0.098,-0.022
3656,-0.081,-0.033
3657,-0.081,-0.036
3658,-0.105,-0.033
3659,-0.118,-0.022
3660,-0.115,-0.018
3661,-0.088,-0.025
3662,-0.064,-0.040
3663,-0.057,-0.044
3664,-0.071,-0.033
3665,-0.091,-0.022
3666,-0.101,-0.033
3667,-0.105,-0.044
3668,-0.101,-0.040
3669,-0.101,-0.029
3670,-0.101,-0.025
3671,-0.122,-0.025
3672,-0.135,-0.025
3673,-0.125,-0.025
3674,-0.091,-0.033
3675,-0.084,-0.036
3676,-0.101,-0.033
3677,-0.135,-0.015
3678,-0.155,-0.004
3679,-0.155,-0.004
3680,-0.142,-0.015
3681,-0.139,-0.018
3682,-0.128,-0.022
3683,-0.101,-0.022
3684,-0.061,-0.029
3685,-0.041,-0.036
3686,-0.037,-0.044
3687,-0.057,-0.044
3688,-0.081,-0.040
3689,-0.088,-0.033
3690,-0.081,-0.033
3691,-0.068,-0.033
3692,-0.044,-0.040
3693,-0.034,-0.036
3694,-0.017,-0.025
3695,-0.014,-0.015
3696,-0.051,-0.015
3697,-0.108,-0.022
3698,-0.142,-0.025
3699,-0.132,-0.033
3700,-0.091,-0.029
3701,-0.091,-0.018
3702,-0.115,-0.018
3703,-0.135,-0.015
3704,-0.145,-0.015
3705,-0.149,-0.015
3706,-0.135,-0.015
3707,-0.118,-0.011
3708,-0.115,-0.011
3709,-0.125,-0.015
3710,-0.128,-0.015
3711,-0.122,-0.011
3712,-0.118,-0.015
3713,-0.139,-0.022
3714,-0.166,-0.033
3715,-0.176,-0.044
3716,-0.186,-0.040
3717,-0.193,-0.029
3718,-0.155,-0.015
3719,-0.098,0.000
3720,-0.084,-0.004
3721,-0.125,-0.018
3722,-0.155,-0.033
3723,-0.132,-0.029
3724,-0.081,-0.018
3725,-0.064,-0.011
3726,-0.081,-0.011
3727,-0.108,-0.015
3728,-0.115,-0.018
3729,-0.091,-0.015
3730,-0.078,0.000
3731,-0.088,0.015
3732,-0.118,0.033
3733,-0.132,0.033
3734,-0.091,0.025
3735,-0.044,0.036
3736,-0.024,0.051
3737,-0.027,0.055
3738,-0.037,0.051
3739,-0.041,0.040
3740,-0.047,0.025
3741,-0.051,0.015
3742,-0.054,0.011
3743,-0.064,0.015
3744,-0.078,0.011
3745,-0.095,0.000
3746,-0.084,-0.015
3747,-0.068,-0.040
3748,-0.051,-0.055
3749,-0.030,-0.058
3750,-0.017,-0.058
3751,-0.027,-0.069
3752,-0.051,-0.076
3753,-0.074,-0.080
3754,-0.071,-0.084
3755,-0.054,-0.095
3756,-0.054,-0.109
3757,-0.074,-0.120
3758,-0.101,-0.124
3759,-0.098,-0.120
3760,-0.051,-0.102
3761,-0.010,-0.080
3762,0.000,-0.065
3763,-0.017,-0.058
3764,-0.044,-0.058
3765,-0.081,-0.055
3766,-0.125,-0.047
3767,-0.162,-0.040
3768,-0.189,-0.036
3769,-0.206,-0.044
3770,-0.203,-0.058
3771,-0.172,-0.062
3772,-0.145,-0.047
3773,-0.135,-0.040
3774,-0.135,-0.036
3775,-0.128,-0.044
3776,-0.128,-0.055
3777,-0.166,-0.058
3778,-0.193,-0.036
3779,-0.182,-0.022
3780,-0.162,-0.011
3781,-0.159,0.000
3782,-0.166,0.011
3783,-0.169,0.033
3784,-0.149,0.069
3785,-0.115,0.113
3786,-0.088,0.149
3787,-0.071,0.167
3788,-0.051,0.149
3789,0.017,0.095
3790,0.145,0.004
3791,0.284,-0.116
3792,0.405,-0.251
3793,0.520,-0.382
3794,0.622,-0.502
3795,0.649,-0.600
3796,0.581,-0.669
3797,0.453,-0.731
3798,0.321,-0.818
3799,0.209,-0.884
3800,0.078,-0.869
3801,-0.128,-0.789
3802,-0.389,-0.680
3803,-0.625,-0.549
3804,-0.804,-0.462
3805,-0.902,-0.400
3806,-0.946,-0.298
3807,-0.983,-0.131
3808,-1.000,0.033
3809,-1.000,0.185
3810,-0.997,0.316
3811,-0.980,0.411
3812,-0.946,0.513
3813,-0.926,0.647
3814,-0.912,0.767
3815,-0.905,0.851
3816,-0.912,0.887
3817,-0.922,0.916
3818,-0.946,0.938
3819,-0.976,0.953
3820,-0.990,0.971
3821,-0.997,0.971
3822,-0.976,0.931
3823,-0.936,0.869
3824,-0.889,0.789
3825,-0.824,0.702
3826,-0.726,0.607
3827,-0.632,0.484
3828,-0.568,0.335
3829,-0.497,0.218
3830,-0.395,0.167
3831,-0.307,0.153
3832,-0.264,0.138
3833,-0.260,0.113
3834,-0.270,0.080
3835,-0.270,0.033
3836,-0.267,-0.015
3837,-0.264,-0.029
3838,-0.233,-0.015
3839,-0.179,-0.011
3840,-0.142,-0.029
3841,-0.142,-0.051
3842,-0.145,-0.065
3843,-0.145,-0.069
3844,-0.159,-0.062
3845,-0.162,-0.055
3846,-0.139,-0.058
3847,-0.101,-0.080
3848,-0.081,-0.102
3849,-0.081,-0.109
3850,-0.095,-0.109
3851,-0.108,-0.109
3852,-0.115,-0.109
3853,-0.081,-0.105
3854,-0.024,-0.109
3855,-0.003,-0.120
3856,-0.020,-0.127
3857,-0.047,-0.124
3858,-0.074,-0.131
3859,-0.084,-0.135
3860,-0.071,-0.142
3861,-0.061,-0.145
3862,-0.047,-0.153
3863,-0.034,-0.153
3864,-0.017,-0.160
3865,0.007,-0.171
3866,0.014,-0.182
3867,0.000,-0.189
3868,-0.017,-0.189
3869,-0.024,-0.182
3870,-0.020,-0.182
3871,0.000,-0.200
3872,0.020,-0.222
3873,0.034,-0.233
3874,0.057,-0.222
3875,0.084,-0.225
3876,0.098,-0.236
3877,0.084,-0.255
3878,0.064,-0.269
3879,0.064,-0.284
3880,0.105,-0.295
3881,0.166,-0.305
3882,0.223,-0.316
3883,0.257,-0.342
3884,0.257,-0.371
3885,0.226,-0.393
3886,0.223,-0.396
3887,0.270,-0.411
3888,0.328,-0.418
3889,0.365,-0.425
3890,0.389,-0.447
3891,0.412,-0.469
3892,0.436,-0.480
3893,0.439,-0.476
3894,0.432,-0.480
3895,0.439,-0.498
3896,0.473,-0.516
3897,0.483,-0.513
3898,0.483,-0.502
3899,0.493,-0.487
3900,0.503,-0.469
3901,0.503,-0.458
3902,0.514,-0.451
3903,0.524,-0.429
3904,0.530,-0.393
3905,0.500,-0.360
3906,0.446,-0.324
3907,0.412,-0.287
3908,0.402,-0.262
3909,0.378,-0.236
3910,0.361,-0.185
3911,0.321,-0.138
3912,0.267,-0.113
3913,0.220,-0.102
3914,0.189,-0.087
3915,0.162,-0.069
3916,0.132,-0.044
3917,0.118,-0.018
3918,0.142,-0.004
3919,0.182,0.000
3920,0.169,-0.004
3921,0.101,0.000
3922,0.024,0.015
3923,-0.030,0.022
3924,-0.051,0.022
3925,-0.057,0.011
3926,-0.047,0.000
3927,-0.034,-0.007
3928,-0.024,-0.004
3929,-0.027,0.000
3930,-0.037,0.000
3931,-0.054,-0.011
3932,-0.078,-0.022
3933,-0.098,-0.025
3934,-0.101,-0.018
3935,-0.108,-0.011
3936,-0.132,-0.011
3937,-0.122,-0.015
3938,-0.098,-0.025
3939,-0.081,-0.025
3940,-0.098,-0.022
3941,-0.142,-0.018
3942,-0.169,-0.022
3943,-0.176,-0.025
3944,-0.159,-0.033
3945,-0.139,-0.036
3946,-0.132,-0.036
3947,-0.128,-0.036
3948,-0.111,-0.040
3949,-0.108,-0.047
3950,-0.108,-0.051
3951,-0.122,-0.047
3952,-0.145,-0.033
3953,-0.162,-0.022
3954,-0.155,-0.025
3955,-0.142,-0.036
3956,-0.152,-0.044
3957,-0.176,-0.036
3958,-0.179,-0.022
3959,-0.169,-0.011
3960,-0.142,-0.015
3961,-0.115,-0.033
3962,-0.091,-0.044
3963,-0.095,-0.047
3964,-0.108,-0.036
3965,-0.111,-0.025
3966,-0.115,-0.022
3967,-0.125,-0.025
3968,-0.139,-0.036
3969,-0.139,-0.047
3970,-0.132,-0.044
3971,-0.122,-0.036
3972,-0.101,-0.033
3973,-0.084,-0.036
3974,-0.098,-0.044
3975,-0.115,-0.036
3976,-0.111,-0.033
3977,-0.108,-0.022
3978,-0.118,-0.022
3979,-0.135,-0.033
3980,-0.142,-0.036
3981,-0.128,-0.033
3982,-0.095,-0.025
3983,-0.074,-0.015
3984,-0.074,-0.011
3985,-0.091,-0.022
3986,-0.105,-0.044
3987,-0.118,-0.055
3988,-0.132,-0.047
3989,-0.142,-0.036
3990,-0.149,-0.033
3991,-0.145,-0.036
3992,-0.125,-0.047
3993,-0.098,-0.051
3994,-0.074,-0.047
3995,-0.068,-0.033
3996,-0.081,-0.025
3997,-0.111,-0.033
3998,-0.149,-0.036
3999,-0.172,-0.036
4000,-0.182,-0.036
4001,-0.196,-0.044
4002,-0.196,-0.047
4003,-0.186,-0.044
4004,-0.166,-0.040
4005,-0.139,-0.036
4006,-0.115,-0.036
4007,-0.108,-0.033
4008,-0.108,-0.044
4009,-0.101,-0.055
4010,-0.105,-0.065
4011,-0.135,-0.062
4012,-0.166,-0.055
4013,-0.166,-0.044
4014,-0.152,-0.036
4015,-0.145,-0.036
4016,-0.132,-0.044
4017,-0.101,-0.047
4018,-0.071,-0.047
4019,-0.041,-0.044
4020,-0.041,-0.044
4021,-0.101,-0.051
4022,-0.176,-0.062
4023,-0.199,-0.065
4024,-0.169,-0.058
4025,-0.132,-0.044
4026,-0.122,-0.036
4027,-0.142,-0.036
4028,-0.159,-0.055
4029,-0.162,-0.062
4030,-0.145,-0.058
4031,-0.118,-0.044
4032,-0.091,-0.040
4033,-0.088,-0.047
4034,-0.115,-0.055
4035,-0.142,-0.051
4036,-0.145,-0.044
4037,-0.125,-0.040
4038,-0.108,-0.044
4039,-0.101,-0.055
4040,-0.105,-0.069
4041,-0.122,-0.069
4042,-0.132,-0.055
4043,-0.135,-0.040
4044,-0.139,-0.040
4045,-0.145,-0.051
4046,-0.155,-0.051
4047,-0.176,-0.040
4048,-0.179,-0.036
4049,-0.166,-0.044
4050,-0.162,-0.055
4051,-0.155,-0.069
4052,-0.159,-0.076
4053,-0.159,-0.069
4054,-0.155,-0.062
4055,-0.145,-0.055
4056,-0.132,-0.051
4057,-0.111,-0.058
4058,-0.105,-0.062
4059,-0.132,-0.055
4060,-0.145,-0.044
4061,-0.135,-0.033
4062,-0.115,-0.025
4063,-0.125,-0.036
4064,-0.145,-0.058
4065,-0.159,-0.069
4066,-0.149,-0.065
4067,-0.125,-0.062
4068,-0.118,-0.058
4069,-0.132,-0.058
4070,-0.135,-0.062
4071,-0.132,-0.062
4072,-0.115,-0.055
4073,-0.108,-0.044
4074,-0.128,-0.036
4075,-0.159,-0.044
4076,-0.182,-0.055
4077,-0.179,-0.065
4078,-0.159,-0.069
4079,-0.142,-0.065
4080,-0.149,-0.062
4081,-0.162,-0.062
4082,-0.166,-0.065
4083,-0.179,-0.069
4084,-0.189,-0.065
4085,-0.209,-0.055
4086,-0.186,-0.051
4087,-0.118,-0.055
4088,-0.071,-0.044
4089,-0.061,-0.022
4090,-0.068,0.004
4091,-0.101,0.025
4092,-0.152,0.033
4093,-0.182,0.018
4094,-0.162,0.000
4095,-0.101,-0.015
4096,-0.071,-0.015
4097,-0.071,-0.011
4098,-0.054,-0.015
4099,-0.037,-0.036
4100,-0.041,-0.065
4101,-0.054,-0.087
4102,-0.047,-0.095
4103,-0.034,-0.102
4104,-0.037,-0.109
4105,-0.054,-0.116
4106,-0.057,-0.131
4107,-0.057,-0.138
4108,-0.054,-0.142
4109,-0.047,-0.138
4110,-0.051,-0.135
4111,-0.057,-0.131
4112,-0.068,-0.135
4113,-0.081,-0.142
4114,-0.098,-0.145
4115,-0.105,-0.138
4116,-0.098,-0.138
4117,-0.084,-0.135
4118,-0.084,-0.135
4119,-0.095,-0.131
4120,-0.108,-0.116
4121,-0.118,-0.098
4122,-0.135,-0.084
4123,-0.145,-0.080
4124,-0.152,-0.087
4125,-0.162,-0.087
4126,-0.159,-0.084
4127,-0.162,-0.073
4128,-0.169,-0.069
4129,-0.186,-0.087
4130,-0.199,-0.102
4131,-0.189,-0.102
4132,-0.162,-0.091
4133,-0.142,-0.080
4134,-0.139,-0.076
4135,-0.166,-0.065
4136,-0.193,-0.044
4137,-0.203,-0.018
4138,-0.182,0.007
4139,-0.155,0.033
4140,-0.149,0.055
4141,-0.172,0.080
4142,-0.182,0.105
4143,-0.125,0.098
4144,-0.003,0.055
4145,0.132,-0.011
4146,0.260,-0.102
4147,0.372,-0.229
4148,0.476,-0.375
4149,0.568,-0.498
4150,0.595,-0.582
4151,0.537,-0.651
4152,0.416,-0.724
4153,0.250,-0.818
4154,0.095,-0.895
4155,-0.034,-0.898
4156,-0.155,-0.829
4157,-0.324,-0.727
4158,-0.534,-0.611
4159,-0.747,-0.520
4160,-0.875,-0.469
4161,-0.909,-0.389
4162,-0.905,-0.233
4163,-0.899,-0.069
4164,-0.912,0.058
4165,-0.939,0.182
4166,-0.953,0.280
4167,-0.936,0.375
4168,-0.909,0.502
4169,-0.895,0.633
4170,-0.902,0.724
4171,-0.905,0.764
4172,-0.905,0.778
4173,-0.909,0.807
4174,-0.916,0.840
4175,-0.932,0.862
4176,-0.959,0.880
4177,-0.970,0.873
4178,-0.939,0.822
4179,-0.889,0.760
4180,-0.848,0.698
4181,-0.804,0.622
4182,-0.743,0.527
4183,-0.662,0.396
4184,-0.578,0.255
4185,-0.514,0.145
4186,-0.459,0.105
4187,-0.412,0.098
4188,-0.392,0.087
4189,-0.351,0.055
4190,-0.291,0.018
4191,-0.216,-0.004
4192,-0.166,-0.022
4193,-0.159,-0.033
4194,-0.182,-0.055
4195,-0.206,-0.080
4196,-0.196,-0.102
4197,-0.155,-0.102
4198,-0.115,-0.098
4199,-0.091,-0.098
4200,-0.108,-0.109
4201,-0.135,-0.124
4202,-0.135,-0.138
4203,-0.122,-0.149
4204,-0.108,-0.142
4205,-0.105,-0.135
4206,-0.091,-0.131
4207,-0.071,-0.135
4208,-0.064,-0.145
4209,-0.074,-0.156
4210,-0.081,-0.156
4211,-0.071,-0.153
4212,-0.051,-0.153
4213,-0.041,-0.167
4214,-0.047,-0.182
4215,-0.047,-0.196
4216,-0.030,-0.185
4217,-0.003,-0.171
4218,0.000,-0.171
4219,-0.024,-0.196
4220,-0.037,-0.218
4221,-0.014,-0.215
4222,0.030,-0.189
4223,0.044,-0.185
4224,0.024,-0.211
4225,0.000,-0.229
4226,0.003,-0.236
4227,0.037,-0.255
4228,0.095,-0.265
4229,0.125,-0.262
4230,0.125,-0.255
4231,0.108,-0.265
4232,0.098,-0.291
4233,0.108,-0.313
4234,0.135,-0.327
4235,0.162,-0.327
4236,0.193,-0.335
4237,0.206,-0.353
4238,0.213,-0.378
4239,0.223,-0.396
4240,0.240,-0.400
4241,0.267,-0.407
4242,0.304,-0.425
4243,0.341,-0.451
4244,0.375,-0.473
4245,0.399,-0.487
4246,0.436,-0.484
4247,0.453,-0.491
4248,0.446,-0.502
4249,0.443,-0.513
4250,0.473,-0.524
4251,0.520,-0.527
4252,0.551,-0.520
4253,0.541,-0.502
4254,0.527,-0.491
4255,0.517,-0.484
4256,0.510,-0.473
4257,0.493,-0.447
4258,0.486,-0.415
4259,0.486,-0.378
4260,0.490,-0.342
4261,0.480,-0.320
4262,0.463,-0.295
4263,0.426,-0.251
4264,0.382,-0.207
4265,0.338,-0.171
4266,0.304,-0.138
4267,0.270,-0.113
4268,0.243,-0.091
4269,0.233,-0.065
4270,0.226,-0.033
4271,0.216,-0.025
4272,0.179,-0.025
4273,0.118,-0.022
4274,0.064,-0.011
4275,0.027,0.000
4276,0.010,0.007
4277,0.000,0.015
4278,-0.020,0.015
4279,-0.044,0.004
4280,-0.061,-0.004
4281,-0.074,-0.018
4282,-0.078,-0.025
4283,-0.081,-0.025
4284,-0.088,-0.033
4285,-0.095,-0.040
4286,-0.105,-0.044
4287,-0.125,-0.040
4288,-0.125,-0.036
4289,-0.091,-0.033
4290,-0.061,-0.025
4291,-0.054,-0.033
4292,-0.061,-0.040
4293,-0.088,-0.044
4294,-0.098,-0.036
4295,-0.088,-0.029
4296,-0.098,-0.022
4297,-0.132,-0.022
4298,-0.145,-0.022
4299,-0.128,-0.025
4300,-0.108,-0.025
4301,-0.105,-0.029
4302,-0.108,-0.036
4303,-0.108,-0.055
4304,-0.101,-0.065
4305,-0.098,-0.065
4306,-0.098,-0.055
4307,-0.091,-0.040
4308,-0.074,-0.036
4309,-0.064,-0.044
4310,-0.051,-0.044
4311,-0.054,-0.036
4312,-0.088,-0.029
4313,-0.125,-0.025
4314,-0.135,-0.025
4315,-0.128,-0.033
4316,-0.115,-0.033
4317,-0.108,-0.033
4318,-0.095,-0.022
4319,-0.081,-0.018
4320,-0.084,-0.015
4321,-0.115,-0.022
4322,-0.145,-0.033
4323,-0.159,-0.033
4324,-0.152,-0.029
4325,-0.142,-0.025
4326,-0.125,-0.025
4327,-0.118,-0.036
4328,-0.108,-0.047
4329,-0.091,-0.047
4330,-0.078,-0.040
4331,-0.074,-0.033
4332,-0.088,-0.033
4333,-0.108,-0.036
4334,-0.118,-0.040
4335,-0.115,-0.044
4336,-0.108,-0.044
4337,-0.118,-0.036
4338,-0.128,-0.033
4339,-0.132,-0.036
4340,-0.115,-0.040
4341,-0.088,-0.044
4342,-0.064,-0.036
4343,-0.061,-0.033
4344,-0.057,-0.036
4345,-0.044,-0.051
4346,-0.047,-0.065
4347,-0.078,-0.065
4348,-0.091,-0.051
4349,-0.091,-0.040
4350,-0.091,-0.036
4351,-0.095,-0.044
4352,-0.095,-0.051
4353,-0.098,-0.055
4354,-0.105,-0.040
4355,-0.108,-0.025
4356,-0.118,-0.025
4357,-0.132,-0.044
4358,-0.142,-0.065
4359,-0.145,-0.080
4360,-0.142,-0.073
4361,-0.132,-0.058
4362,-0.122,-0.055
4363,-0.105,-0.058
4364,-0.088,-0.055
4365,-0.074,-0.051
4366,-0.078,-0.044
4367,-0.101,-0.044
4368,-0.122,-0.044
4369,-0.125,-0.047
4370,-0.115,-0.047
4371,-0.108,-0.047
4372,-0.101,-0.036
4373,-0.108,-0.029
4374,-0.115,-0.029
4375,-0.118,-0.044
4376,-0.135,-0.058
4377,-0.128,-0.069
4378,-0.081,-0.058
4379,-0.017,-0.044
4380,0.007,-0.036
4381,-0.041,-0.044
4382,-0.108,-0.047
4383,-0.135,-0.044
4384,-0.118,-0.036
4385,-0.105,-0.025
4386,-0.105,-0.033
4387,-0.128,-0.047
4388,-0.162,-0.058
4389,-0.189,-0.065
4390,-0.166,-0.062
4391,-0.115,-0.047
4392,-0.071,-0.036
4393,-0.064,-0.044
4394,-0.081,-0.065
4395,-0.095,-0.069
4396,-0.084,-0.055
4397,-0.084,-0.033
4398,-0.098,-0.025
4399,-0.108,-0.036
4400,-0.118,-0.051
4401,-0.125,-0.044
4402,-0.125,-0.033
4403,-0.132,-0.029
4404,-0.139,-0.033
4405,-0.139,-0.040
4406,-0.122,-0.051
4407,-0.088,-0.058
4408,-0.061,-0.051
4409,-0.061,-0.044
4410,-0.057,-0.044
4411,-0.054,-0.047
4412,-0.064,-0.047
4413,-0.101,-0.044
4414,-0.128,-0.033
4415,-0.142,-0.022
4416,-0.169,-0.015
4417,-0.176,-0.025
4418,-0.152,-0.044
4419,-0.115,-0.047
4420,-0.081,-0.036
4421,-0.074,-0.025
4422,-0.088,-0.025
4423,-0.101,-0.036
4424,-0.115,-0.044
4425,-0.125,-0.044
4426,-0.149,-0.029
4427,-0.186,-0.025
4428,-0.209,-0.033
4429,-0.189,-0.044
4430,-0.135,-0.044
4431,-0.091,-0.044
4432,-0.068,-0.033
4433,-0.061,-0.025
4434,-0.084,-0.018
4435,-0.128,-0.029
4436,-0.152,-0.036
4437,-0.152,-0.040
4438,-0.128,-0.022
4439,-0.105,-0.015
4440,-0.098,-0.004
4441,-0.111,-0.007
4442,-0.128,-0.015
4443,-0.132,-0.025
4444,-0.125,-0.033
4445,-0.122,-0.036
4446,-0.115,-0.036
4447,-0.105,-0.036
4448,-0.098,-0.040
4449,-0.098,-0.036
4450,-0.084,-0.025
4451,-0.081,-0.022
4452,-0.091,-0.022
4453,-0.095,-0.029
4454,-0.091,-0.040
4455,-0.105,-0.036
4456,-0.115,-0.025
4457,-0.118,-0.018
4458,-0.122,-0.018
4459,-0.135,-0.025
4460,-0.139,-0.025
4461,-0.135,-0.025
4462,-0.128,-0.022
4463,-0.132,-0.015
4464,-0.145,-0.011
4465,-0.162,-0.015
4466,-0.169,-0.022
4467,-0.176,-0.033
4468,-0.176,-0.022
4469,-0.169,-0.007
4470,-0.152,-0.004
4471,-0.135,-0.011
4472,-0.122,-0.029
4473,-0.128,-0.044
4474,-0.135,-0.047
4475,-0.125,-0.040
4476,-0.111,-0.033
4477,-0.132,-0.025
4478,-0.169,-0.029
4479,-0.166,-0.033
4480,-0.118,-0.033
4481,-0.084,-0.022
4482,-0.091,-0.018
4483,-0.125,-0.022
4484,-0.152,-0.025
4485,-0.166,-0.022
4486,-0.142,-0.011
4487,-0.095,-0.011
4488,-0.061,-0.015
4489,-0.054,-0.029
4490,-0.054,-0.033
4491,-0.078,-0.022
4492,-0.105,-0.004
4493,-0.135,0.011
4494,-0.155,0.036
4495,-0.166,0.051
4496,-0.162,0.047
4497,-0.139,0.044
4498,-0.091,0.055
4499,-0.068,0.073
4500,-0.081,0.076
4501,-0.084,0.065
4502,-0.071,0.047
4503,-0.057,0.033
4504,-0.047,0.033
4505,-0.051,0.036
4506,-0.064,0.040
4507,-0.081,0.029
4508,-0.074,0.011
4509,-0.054,-0.004
4510,-0.034,-0.022
4511,-0.014,-0.029
4512,0.000,-0.040
4513,-0.007,-0.055
4514,-0.010,-0.062
4515,-0.017,-0.065
4516,-0.037,-0.076
4517,-0.054,-0.087
4518,-0.054,-0.098
4519,-0.061,-0.109
4520,-0.071,-0.120
4521,-0.078,-0.124
4522,-0.078,-0.109
4523,-0.071,-0.095
4524,-0.068,-0.076
4525,-0.064,-0.065
4526,-0.061,-0.055
4527,-0.074,-0.051
4528,-0.091,-0.051
4529,-0.115,-0.055
4530,-0.142,-0.058
4531,-0.159,-0.065
4532,-0.166,-0.073
4533,-0.176,-0.065
4534,-0.179,-0.051
4535,-0.169,-0.044
4536,-0.166,-0.044
4537,-0.189,-0.051
4538,-0.199,-0.058
4539,-0.179,-0.055
4540,-0.139,-0.044
4541,-0.125,-0.040
4542,-0.139,-0.029
4543,-0.162,-0.011
4544,-0.179,0.004
4545,-0.172,0.018
4546,-0.149,0.044
4547,-0.128,0.073
4548,-0.108,0.109
4549,-0.081,0.131
4550,-0.051,0.113
4551,-0.010,0.069
4552,0.061,0.000
4553,0.182,-0.095
4554,0.328,-0.211
4555,0.480,-0.338
4556,0.622,-0.455
4557,0.689,-0.545
4558,0.655,-0.607
4559,0.530,-0.658
4560,0.392,-0.731
4561,0.294,-0.804
4562,0.203,-0.825
4563,0.044,-0.785
4564,-0.149,-0.702
4565,-0.341,-0.582
4566,-0.534,-0.465
4567,-0.716,-0.407
4568,-0.818,-0.342
4569,-0.838,-0.189
4570,-0.818,-0.004
4571,-0.821,0.153
4572,-0.878,0.295
4573,-0.943,0.407
4574,-0.963,0.502
4575,-0.959,0.615
4576,-0.970,0.756
4577,-0.963,0.865
4578,-0.963,0.920
4579,-0.976,0.949
4580,-0.993,0.971
4581,-1.003,0.985
4582,-1.007,1.007
4583,-1.003,1.018
4584,-1.003,0.985
4585,-0.976,0.905
4586,-0.916,0.815
4587,-0.831,0.713
4588,-0.730,0.615
4589,-0.652,0.491
4590,-0.618,0.338
4591,-0.588,0.222
4592,-0.537,0.160
4593,-0.446,0.142
4594,-0.334,0.138
4595,-0.250,0.124
4596,-0.216,0.087
4597,-0.209,0.033
4598,-0.209,-0.004
4599,-0.206,-0.015
4600,-0.182,-0.015
4601,-0.152,-0.022
4602,-0.125,-0.033
4603,-0.122,-0.055
4604,-0.128,-0.076
4605,-0.128,-0.091
4606,-0.128,-0.084
4607,-0.145,-0.076
4608,-0.142,-0.073
4609,-0.128,-0.087
4610,-0.108,-0.102
4611,-0.101,-0.120
4612,-0.101,-0.116
4613,-0.098,-0.109
4614,-0.074,-0.113
4615,-0.051,-0.131
4616,-0.051,-0.149
4617,-0.078,-0.145
4618,-0.084,-0.127
4619,-0.068,-0.113
4620,-0.027,-0.109
4621,-0.007,-0.120
4622,-0.007,-0.138
4623,-0.014,-0.153
4624,-0.030,-0.153
4625,-0.037,-0.153
4626,-0.027,-0.149
4627,-0.010,-0.160
4628,0.007,-0.171
4629,0.007,-0.178
4630,0.000,-0.175
4631,-0.014,-0.171
4632,-0.017,-0.178
4633,-0.007,-0.196
4634,0.014,-0.207
4635,0.047,-0.207
4636,0.084,-0.207
4637,0.115,-0.229
4638,0.139,-0.240
4639,0.152,-0.247
4640,0.155,-0.262
4641,0.159,-0.284
4642,0.162,-0.287
4643,0.152,-0.295
4644,0.149,-0.309
4645,0.182,-0.327
4646,0.236,-0.342
4647,0.280,-0.356
4648,0.331,-0.367
4649,0.368,-0.382
4650,0.372,-0.393
4651,0.355,-0.404
4652,0.375,-0.429
4653,0.439,-0.451
4654,0.483,-0.458
4655,0.483,-0.455
4656,0.483,-0.451
4657,0.490,-0.469
4658,0.500,-0.480
4659,0.500,-0.480
4660,0.524,-0.469
4661,0.537,-0.458
4662,0.544,-0.440
4663,0.527,-0.429
4664,0.490,-0.418
4665,0.470,-0.407
4666,0.497,-0.371
4667,0.537,-0.327
4668,0.544,-0.295
4669,0.514,-0.258
4670,0.463,-0.222
4671,0.416,-0.204
4672,0.385,-0.167
4673,0.365,-0.124
4674,0.348,-0.080
4675,0.304,-0.058
4676,0.257,-0.047
4677,0.220,-0.033
4678,0.199,-0.007
4679,0.169,0.011
4680,0.128,0.036
4681,0.081,0.047
4682,0.051,0.044
4683,0.041,0.036
4684,0.037,0.047
4685,0.024,0.051
4686,0.010,0.051
4687,-0.010,0.033
4688,-0.041,0.015
4689,-0.064,0.004
4690,-0.061,0.011
4691,-0.047,0.022
4692,-0.030,0.022
4693,-0.027,0.011
4694,-0.030,0.000
4695,-0.041,-0.007
4696,-0.054,-0.004
4697,-0.088,0.000
4698,-0.098,0.004
4699,-0.095,0.000
4700,-0.084,0.000
4701,-0.088,-0.004
4702,-0.091,0.007
4703,-0.091,0.015
4704,-0.088,0.011
4705,-0.081,-0.004
4706,-0.088,-0.015
4707,-0.101,-0.022
4708,-0.095,-0.022
4709,-0.078,-0.018
4710,-0.057,-0.015
4711,-0.047,-0.025
4712,-0.057,-0.029
4713,-0.088,-0.033
4714,-0.108,-0.018
4715,-0.115,0.000
4716,-0.108,0.004
4717,-0.122,0.000
4718,-0.145,-0.018
4719,-0.162,-0.033
4720,-0.172,-0.025
4721,-0.176,-0.015
4722,-0.159,-0.011
4723,-0.135,-0.015
4724,-0.111,-0.022
4725,-0.108,-0.025
4726,-0.128,-0.022
4727,-0.152,-0.015
4728,-0.159,-0.004
4729,-0.128,-0.011
4730,-0.084,-0.015
4731,-0.061,-0.022
4732,-0.041,-0.015
4733,-0.030,-0.004
4734,-0.034,0.000
4735,-0.051,0.000
4736,-0.071,-0.004
4737,-0.101,-0.007
4738,-0.115,-0.004
4739,-0.115,0.000
4740,-0.108,0.000
4741,-0.108,-0.007
4742,-0.088,-0.015
4743,-0.091,-0.015
4744,-0.118,-0.011
4745,-0.152,0.000
4746,-0.152,0.011
4747,-0.118,0.011
4748,-0.078,0.000
4749,-0.068,-0.011
4750,-0.071,-0.011
4751,-0.074,-0.004
4752,-0.074,-0.011
4753,-0.105,-0.025
4754,-0.142,-0.033
4755,-0.169,-0.025
4756,-0.152,-0.004
4757,-0.108,0.007
4758,-0.074,0.011
4759,-0.095,0.000
4760,-0.128,-0.011
4761,-0.149,-0.025
4762,-0.142,-0.029
4763,-0.125,-0.025
4764,-0.098,-0.022
4765,-0.081,-0.029
4766,-0.074,-0.033
4767,-0.078,-0.033
4768,-0.081,-0.022
4769,-0.098,-0.007
4770,-0.118,0.000
4771,-0.142,-0.011
4772,-0.159,-0.025
4773,-0.179,-0.033
4774,-0.172,-0.022
4775,-0.145,-0.011
4776,-0.115,-0.007
4777,-0.115,-0.015
4778,-0.135,-0.025
4779,-0.132,-0.025
4780,-0.101,-0.015
4781,-0.088,-0.004
4782,-0.084,0.000
4783,-0.091,-0.011
4784,-0.084,-0.022
4785,-0.078,-0.025
4786,-0.074,-0.015
4787,-0.088,-0.011
4788,-0.118,-0.011
4789,-0.166,-0.015
4790,-0.172,-0.022
4791,-0.139,-0.029
4792,-0.105,-0.025
4793,-0.091,-0.022
4794,-0.091,-0.022
4795,-0.105,-0.033
4796,-0.115,-0.036
4797,-0.115,-0.040
4798,-0.108,-0.025
4799,-0.115,-0.015
4800,-0.108,-0.015
4801,-0.105,-0.025
4802,-0.128,-0.033
4803,-0.152,-0.033
4804,-0.159,-0.022
4805,-0.145,-0.015
4806,-0.132,-0.011
4807,-0.125,-0.018
4808,-0.115,-0.029
4809,-0.111,-0.036
4810,-0.125,-0.029
4811,-0.135,-0.018
4812,-0.132,-0.004
4813,-0.145,-0.004
4814,-0.145,-0.007
4815,-0.108,-0.018
4816,-0.064,-0.018
4817,-0.051,-0.011
4818,-0.068,-0.011
4819,-0.111,-0.029
4820,-0.155,-0.047
4821,-0.176,-0.051
4822,-0.162,-0.036
4823,-0.139,-0.022
4824,-0.128,-0.015
4825,-0.142,-0.022
4826,-0.152,-0.033
4827,-0.139,-0.044
4828,-0.118,-0.033
4829,-0.118,-0.022
4830,-0.139,-0.015
4831,-0.155,-0.022
4832,-0.152,-0.029
4833,-0.135,-0.025
4834,-0.108,-0.018
4835,-0.088,-0.015
4836,-0.095,-0.007
4837,-0.149,-0.011
4838,-0.186,-0.025
4839,-0.172,-0.033
4840,-0.139,-0.018
4841,-0.122,-0.007
4842,-0.118,-0.004
4843,-0.125,-0.011
4844,-0.128,-0.029
4845,-0.132,-0.044
4846,-0.122,-0.036
4847,-0.115,-0.033
4848,-0.108,-0.033
4849,-0.108,-0.044
4850,-0.108,-0.047
4851,-0.115,-0.036
4852,-0.115,-0.025
4853,-0.128,-0.015
4854,-0.135,-0.015
4855,-0.152,-0.025
4856,-0.162,-0.036
4857,-0.159,-0.036
4858,-0.145,-0.022
4859,-0.125,-0.011
4860,-0.098,-0.011
4861,-0.084,-0.022
4862,-0.091,-0.033
4863,-0.122,-0.036
4864,-0.135,-0.033
4865,-0.128,-0.025
4866,-0.122,-0.018
4867,-0.139,-0.018
4868,-0.166,-0.022
4869,-0.182,-0.025
4870,-0.176,-0.025
4871,-0.152,-0.025
4872,-0.118,-0.025
4873,-0.115,-0.033
4874,-0.128,-0.036
4875,-0.142,-0.036
4876,-0.149,-0.033
4877,-0.128,-0.033
4878,-0.095,-0.033
4879,-0.098,-0.036
4880,-0.118,-0.036
4881,-0.135,-0.033
4882,-0.128,-0.025
4883,-0.108,-0.022
4884,-0.101,-0.015
4885,-0.105,-0.018
4886,-0.108,-0.022
4887,-0.111,-0.025
4888,-0.105,-0.022
4889,-0.111,-0.015
4890,-0.132,-0.011
4891,-0.155,-0.025
4892,-0.172,-0.044
4893,-0.166,-0.047
4894,-0.142,-0.033
4895,-0.118,-0.018
4896,-0.101,-0.011
4897,-0.095,-0.015
4898,-0.088,-0.029
4899,-0.091,-0.033
4900,-0.108,-0.033
4901,-0.135,-0.025
4902,-0.145,-0.025
4903,-0.142,-0.036
4904,-0.122,-0.044
4905,-0.115,-0.033
4906,-0.132,-0.018
4907,-0.132,-0.011
4908,-0.105,-0.007
4909,-0.084,-0.007
4910,-0.081,0.000
4911,-0.091,0.015
4912,-0.098,0.036
4913,-0.105,0.051
4914,-0.111,0.058
4915,-0.125,0.051
4916,-0.128,0.044
4917,-0.128,0.029
4918,-0.118,0.022
4919,-0.098,0.011
4920,-0.074,0.011
4921,-0.051,0.000
4922,-0.037,-0.011
4923,-0.030,-0.022
4924,-0.014,-0.036
4925,-0.007,-0.047
4926,-0.024,-0.055
4927,-0.064,-0.058
4928,-0.091,-0.069
4929,-0.098,-0.073
4930,-0.081,-0.073
4931,-0.071,-0.080
4932,-0.061,-0.102
4933,-0.054,-0.127
4934,-0.057,-0.138
4935,-0.078,-0.138
4936,-0.095,-0.124
4937,-0.101,-0.109
4938,-0.105,-0.098
4939,-0.105,-0.098
4940,-0.095,-0.091
4941,-0.084,-0.080
4942,-0.084,-0.065
4943,-0.098,-0.055
4944,-0.111,-0.047
4945,-0.125,-0.055
4946,-0.135,-0.058
4947,-0.159,-0.058
4948,-0.193,-0.047
4949,-0.213,-0.051
4950,-0.213,-0.062
4951,-0.196,-0.073
4952,-0.162,-0.080
4953,-0.132,-0.076
4954,-0.095,-0.065
4955,-0.054,-0.051
4956,-0.037,-0.044
4957,-0.057,-0.044
4958,-0.105,-0.033
4959,-0.149,-0.018
4960,-0.169,0.007
4961,-0.166,0.044
4962,-0.155,0.073
4963,-0.145,0.091
4964,-0.132,0.116
4965,-0.118,0.120
4966,-0.074,0.102
4967,0.000,0.036
4968,0.128,-0.058
4969,0.284,-0.189
4970,0.453,-0.327
4971,0.615,-0.447
4972,0.726,-0.542
4973,0.696,-0.618
4974,0.564,-0.673
4975,0.419,-0.745
4976,0.297,-0.833
4977,0.176,-0.869
4978,0.007,-0.829
4979,-0.193,-0.745
4980,-0.392,-0.651
4981,-0.598,-0.538
4982,-0.764,-0.455
4983,-0.851,-0.385
4984,-0.878,-0.255
4985,-0.892,-0.069
4986,-0.912,0.098
4987,-0.926,0.240
4988,-0.926,0.364
4989,-0.922,0.469
4990,-0.929,0.600
4991,-0.953,0.745
4992,-0.983,0.862
4993,-1.000,0.916
4994,-1.010,0.938
4995,-1.014,0.964
4996,-1.017,0.989
4997,-1.010,1.007
4998,-0.990,1.018
4999,-0.963,0.978
5000,-0.956,0.913
5001,-0.946,0.833
5002,-0.905,0.745
5003,-0.834,0.647
5004,-0.743,0.524
5005,-0.649,0.375
5006,-0.554,0.244
5007,-0.473,0.167
5008,-0.399,0.145
5009,-0.328,0.142
5010,-0.284,0.127
5011,-0.243,0.087
5012,-0.199,0.025
5013,-0.189,-0.022
5014,-0.199,-0.029
5015,-0.206,-0.018
5016,-0.203,-0.011
5017,-0.189,-0.036
5018,-0.172,-0.065
5019,-0.162,-0.091
5020,-0.132,-0.095
5021,-0.101,-0.087
5022,-0.078,-0.076
5023,-0.084,-0.080
5024,-0.108,-0.087
5025,-0.125,-0.098
5026,-0.108,-0.102
5027,-0.091,-0.113
5028,-0.084,-0.120
5029,-0.081,-0.127
5030,-0.054,-0.131
5031,-0.047,-0.142
5032,-0.071,-0.145
5033,-0.108,-0.149
5034,-0.118,-0.145
5035,-0.095,-0.149
5036,-0.061,-0.153
5037,-0.034,-0.156
5038,-0.027,-0.153
5039,-0.037,-0.149
5040,-0.037,-0.156
5041,-0.024,-0.175
5042,0.000,-0.182
5043,-0.007,-0.189
5044,-0.017,-0.196
5045,-0.014,-0.196
5046,0.000,-0.189
5047,-0.007,-0.189
5048,-0.024,-0.207
5049,-0.014,-0.225
5050,0.030,-0.225
5051,0.041,-0.222
5052,0.000,-0.229
5053,-0.007,-0.255
5054,0.071,-0.273
5055,0.172,-0.280
5056,0.223,-0.287
5057,0.233,-0.287
5058,0.230,-0.298
5059,0.220,-0.331
5060,0.226,-0.360
5061,0.250,-0.382
5062,0.274,-0.382
5063,0.291,-0.389
5064,0.307,-0.404
5065,0.328,-0.429
5066,0.345,-0.455
5067,0.355,-0.473
5068,0.382,-0.476
5069,0.426,-0.484
5070,0.466,-0.491
5071,0.473,-0.509
5072,0.470,-0.516
5073,0.476,-0.524
5074,0.497,-0.527
5075,0.510,-0.524
5076,0.514,-0.513
5077,0.514,-0.505
5078,0.524,-0.509
5079,0.554,-0.502
5080,0.595,-0.462
5081,0.581,-0.425
5082,0.534,-0.389
5083,0.476,-0.360
5084,0.432,-0.338
5085,0.402,-0.309
5086,0.392,-0.262
5087,0.382,-0.211
5088,0.358,-0.175
5089,0.301,-0.160
5090,0.240,-0.135
5091,0.206,-0.105
5092,0.196,-0.069
5093,0.176,-0.036
5094,0.152,-0.018
5095,0.125,-0.015
5096,0.098,-0.011
5097,0.068,-0.004
5098,0.064,0.004
5099,0.071,0.011
5100,0.051,0.015
5101,0.024,0.007
5102,-0.003,0.000
5103,-0.030,-0.004
5104,-0.051,0.000
5105,-0.061,0.007
5106,-0.061,0.011
5107,-0.064,0.004
5108,-0.064,-0.007
5109,-0.074,-0.025
5110,-0.091,-0.025
5111,-0.108,-0.025
5112,-0.101,-0.033
5113,-0.081,-0.047
5114,-0.074,-0.055
5115,-0.084,-0.055
5116,-0.081,-0.047
5117,-0.061,-0.040
5118,-0.051,-0.033
5119,-0.071,-0.033
5120,-0.098,-0.044
5121,-0.132,-0.051
5122,-0.145,-0.044
5123,-0.118,-0.033
5124,-0.088,-0.033
5125,-0.091,-0.036
5126,-0.101,-0.040
5127,-0.139,-0.044
5128,-0.179,-0.036
5129,-0.189,-0.040
5130,-0.155,-0.036
5131,-0.135,-0.044
5132,-0.142,-0.047
5133,-0.159,-0.047
5134,-0.145,-0.040
5135,-0.135,-0.040
5136,-0.122,-0.040
5137,-0.111,-0.044
5138,-0.128,-0.044
5139,-0.155,-0.044
5140,-0.179,-0.033
5141,-0.172,-0.033
5142,-0.139,-0.036
5143,-0.108,-0.036
5144,-0.095,-0.040
5145,-0.098,-0.040
5146,-0.108,-0.025
5147,-0.118,-0.015
5148,-0.122,-0.011
5149,-0.132,-0.025
5150,-0.142,-0.044
5151,-0.155,-0.058
5152,-0.142,-0.058
5153,-0.108,-0.055
5154,-0.081,-0.044
5155,-0.061,-0.044
5156,-0.061,-0.044
5157,-0.078,-0.044
5158,-0.095,-0.036
5159,-0.108,-0.029
5160,-0.122,-0.025
5161,-0.149,-0.029
5162,-0.162,-0.033
5163,-0.149,-0.033
5164,-0.101,-0.025
5165,-0.074,-0.025
5166,-0.091,-0.022
5167,-0.142,-0.033
5168,-0.186,-0.044
5169,-0.199,-0.047
5170,-0.186,-0.044
5171,-0.169,-0.036
5172,-0.169,-0.033
5173,-0.186,-0.040
5174,-0.179,-0.047
5175,-0.155,-0.051
5176,-0.122,-0.044
5177,-0.108,-0.040
5178,-0.135,-0.033
5179,-0.193,-0.033
5180,-0.206,-0.033
5181,-0.152,-0.036
5182,-0.084,-0.025
5183,-0.057,-0.025
5184,-0.081,-0.029
5185,-0.122,-0.047
5186,-0.135,-0.065
5187,-0.132,-0.073
5188,-0.145,-0.058
5189,-0.169,-0.047
5190,-0.162,-0.036
5191,-0.142,-0.036
5192,-0.135,-0.044
5193,-0.142,-0.055
5194,-0.149,-0.047
5195,-0.142,-0.033
5196,-0.132,-0.025
5197,-0.142,-0.036
5198,-0.142,-0.047
5199,-0.122,-0.055
5200,-0.115,-0.044
5201,-0.132,-0.040
5202,-0.152,-0.040
5203,-0.159,-0.047
5204,-0.145,-0.058
5205,-0.135,-0.069
5206,-0.125,-0.065
5207,-0.128,-0.051
5208,-0.139,-0.047
5209,-0.152,-0.051
5210,-0.155,-0.055
5211,-0.142,-0.058
5212,-0.135,-0.055
5213,-0.159,-0.044
5214,-0.186,-0.029
5215,-0.196,-0.033
5216,-0.166,-0.040
5217,-0.132,-0.047
5218,-0.118,-0.047
5219,-0.125,-0.055
5220,-0.142,-0.062
5221,-0.172,-0.069
5222,-0.176,-0.065
5223,-0.166,-0.062
5224,-0.162,-0.047
5225,-0.162,-0.040
5226,-0.155,-0.036
5227,-0.145,-0.047
5228,-0.135,-0.051
5229,-0.149,-0.055
5230,-0.166,-0.047
5231,-0.169,-0.044
5232,-0.159,-0.044
5233,-0.155,-0.047
5234,-0.149,-0.062
5235,-0.145,-0.069
5236,-0.135,-0.065
5237,-0.135,-0.055
5238,-0.142,-0.047
5239,-0.155,-0.051
5240,-0.169,-0.055
5241,-0.179,-0.055
5242,-0.176,-0.047
5243,-0.169,-0.044
5244,-0.159,-0.036
5245,-0.152,-0.040
5246,-0.135,-0.044
5247,-0.128,-0.051
5248,-0.132,-0.051
5249,-0.128,-0.051
5250,-0.122,-0.055
5251,-0.145,-0.065
5252,-0.142,-0.076
5253,-0.115,-0.076
5254,-0.108,-0.055
5255,-0.132,-0.044
5256,-0.162,-0.044
5257,-0.189,-0.055
5258,-0.193,-0.058
5259,-0.189,-0.062
5260,-0.169,-0.058
5261,-0.155,-0.055
5262,-0.159,-0.055
5263,-0.172,-0.055
5264,-0.169,-0.058
5265,-0.162,-0.062
5266,-0.162,-0.058
5267,-0.172,-0.055
5268,-0.179,-0.047
5269,-0.182,-0.047
5270,-0.169,-0.051
5271,-0.139,-0.058
5272,-0.122,-0.062
5273,-0.128,-0.069
5274,-0.149,-0.069
5275,-0.182,-0.076
5276,-0.216,-0.076
5277,-0.213,-0.073
5278,-0.159,-0.065
5279,-0.108,-0.055
5280,-0.095,-0.047
5281,-0.118,-0.051
5282,-0.142,-0.055
5283,-0.159,-0.055
5284,-0.162,-0.044
5285,-0.162,-0.044
5286,-0.159,-0.047
5287,-0.145,-0.062
5288,-0.135,-0.069
5289,-0.128,-0.076
5290,-0.101,-0.073
5291,-0.091,-0.065
5292,-0.122,-0.047
5293,-0.176,-0.044
5294,-0.213,-0.047
5295,-0.220,-0.047
5296,-0.199,-0.040
5297,-0.159,-0.025
5298,-0.122,-0.004
5299,-0.111,0.004
5300,-0.118,0.011
5301,-0.135,0.007
5302,-0.128,0.004
5303,-0.108,0.000
5304,-0.095,0.000
5305,-0.088,-0.015
5306,-0.078,-0.033
5307,-0.074,-0.047
5308,-0.091,-0.047
5309,-0.115,-0.044
5310,-0.095,-0.040
5311,-0.047,-0.058
5312,-0.034,-0.080
5313,-0.068,-0.102
5314,-0.105,-0.105
5315,-0.105,-0.102
5316,-0.074,-0.098
5317,-0.064,-0.109
5318,-0.074,-0.135
5319,-0.105,-0.164
5320,-0.142,-0.167
5321,-0.162,-0.153
5322,-0.145,-0.131
5323,-0.128,-0.131
5324,-0.115,-0.138
5325,-0.118,-0.149
5326,-0.128,-0.138
5327,-0.142,-0.124
5328,-0.166,-0.098
5329,-0.196,-0.080
5330,-0.193,-0.069
5331,-0.155,-0.076
5332,-0.115,-0.080
5333,-0.122,-0.087
5334,-0.155,-0.095
5335,-0.186,-0.105
5336,-0.182,-0.109
5337,-0.162,-0.102
5338,-0.159,-0.087
5339,-0.162,-0.080
5340,-0.166,-0.076
5341,-0.172,-0.076
5342,-0.172,-0.080
5343,-0.145,-0.098
5344,-0.125,-0.087
5345,-0.155,-0.058
5346,-0.213,-0.025
5347,-0.250,-0.007
5348,-0.233,0.004
5349,-0.209,0.025
5350,-0.169,0.069
5351,-0.128,0.098
5352,-0.095,0.109
5353,-0.054,0.073
5354,0.037,0.000
5355,0.186,-0.105
5356,0.348,-0.222
5357,0.486,-0.349
5358,0.588,-0.469
5359,0.601,-0.571
5360,0.524,-0.658
5361,0.402,-0.742
5362,0.264,-0.818
5363,0.142,-0.880
5364,0.044,-0.884
5365,-0.088,-0.829
5366,-0.277,-0.756
5367,-0.510,-0.658
5368,-0.730,-0.538
5369,-0.868,-0.458
5370,-0.919,-0.382
5371,-0.939,-0.258
5372,-0.946,-0.109
5373,-0.953,0.011
5374,-0.956,0.145
5375,-0.953,0.251
5376,-0.939,0.342
5377,-0.922,0.447
5378,-0.919,0.564
5379,-0.912,0.647
5380,-0.895,0.702
5381,-0.889,0.738
5382,-0.905,0.771
5383,-0.939,0.793
5384,-0.970,0.796
5385,-0.973,0.804
5386,-0.949,0.818
5387,-0.905,0.789
5388,-0.861,0.745
5389,-0.848,0.680
5390,-0.855,0.600
5391,-0.838,0.509
5392,-0.764,0.404
5393,-0.662,0.273
5394,-0.571,0.167
5395,-0.493,0.109
5396,-0.412,0.080
5397,-0.341,0.055
5398,-0.304,0.047
5399,-0.287,0.036
5400,-0.280,0.004
5401,-0.267,-0.036
5402,-0.230,-0.069
5403,-0.203,-0.087
5404,-0.189,-0.091
5405,-0.182,-0.098
5406,-0.186,-0.098
5407,-0.206,-0.102
5408,-0.193,-0.124
5409,-0.159,-0.142
5410,-0.135,-0.138
5411,-0.122,-0.131
5412,-0.122,-0.135
5413,-0.128,-0.149
5414,-0.111,-0.164
5415,-0.074,-0.167
5416,-0.041,-0.156
5417,-0.041,-0.149
5418,-0.057,-0.153
5419,-0.088,-0.167
5420,-0.098,-0.182
5421,-0.088,-0.185
5422,-0.064,-0.182
5423,-0.061,-0.185
5424,-0.081,-0.189
5425,-0.088,-0.189
5426,-0.074,-0.189
5427,-0.054,-0.193
5428,-0.030,-0.196
5429,0.000,-0.200
5430,0.017,-0.196
5431,0.020,-0.207
5432,0.003,-0.222
5433,-0.014,-0.240
5434,-0.020,-0.247
5435,-0.024,-0.251
5436,-0.010,-0.251
5437,0.000,-0.262
5438,0.024,-0.276
5439,0.057,-0.295
5440,0.115,-0.305
5441,0.155,-0.313
5442,0.145,-0.324
5443,0.091,-0.338
5444,0.057,-0.353
5445,0.057,-0.371
5446,0.095,-0.375
5447,0.139,-0.385
5448,0.176,-0.400
5449,0.233,-0.425
5450,0.301,-0.447
5451,0.324,-0.458
5452,0.314,-0.469
5453,0.307,-0.484
5454,0.314,-0.491
5455,0.331,-0.509
5456,0.372,-0.527
5457,0.412,-0.545
5458,0.456,-0.549
5459,0.490,-0.549
5460,0.500,-0.545
5461,0.473,-0.549
5462,0.453,-0.553
5463,0.463,-0.549
5464,0.524,-0.524
5465,0.571,-0.505
5466,0.568,-0.484
5467,0.514,-0.469
5468,0.459,-0.444
5469,0.429,-0.411
5470,0.416,-0.367
5471,0.412,-0.327
5472,0.385,-0.295
5473,0.338,-0.262
5474,0.284,-0.229
5475,0.247,-0.200
5476,0.233,-0.164
5477,0.213,-0.124
5478,0.189,-0.087
5479,0.159,-0.069
5480,0.139,-0.069
5481,0.122,-0.062
5482,0.101,-0.040
5483,0.071,-0.022
5484,0.047,-0.015
5485,0.034,-0.022
5486,0.027,-0.029
5487,0.007,-0.036
5488,-0.020,-0.025
5489,-0.051,-0.022
5490,-0.074,-0.025
5491,-0.095,-0.033
5492,-0.088,-0.033
5493,-0.071,-0.036
5494,-0.044,-0.036
5495,-0.044,-0.033
5496,-0.071,-0.033
5497,-0.111,-0.036
5498,-0.135,-0.047
5499,-0.125,-0.051
5500,-0.105,-0.040
5501,-0.095,-0.033
5502,-0.078,-0.029
5503,-0.064,-0.036
5504,-0.068,-0.051
5505,-0.095,-0.065
5506,-0.105,-0.065
5507,-0.098,-0.062
5508,-0.101,-0.058
5509,-0.122,-0.065
5510,-0.139,-0.065
5511,-0.132,-0.065
5512,-0.118,-0.055
5513,-0.101,-0.044
5514,-0.108,-0.036
5515,-0.139,-0.047
5516,-0.172,-0.055
5517,-0.193,-0.062
5518,-0.172,-0.058
5519,-0.132,-0.055
5520,-0.105,-0.055
5521,-0.115,-0.065
5522,-0.142,-0.065
5523,-0.159,-0.058
5524,-0.142,-0.051
5525,-0.118,-0.047
5526,-0.115,-0.040
5527,-0.128,-0.044
5528,-0.128,-0.044
5529,-0.111,-0.044
5530,-0.101,-0.033
5531,-0.101,-0.029
5532,-0.118,-0.036
5533,-0.159,-0.051
5534,-0.179,-0.065
5535,-0.172,-0.076
5536,-0.155,-0.065
5537,-0.128,-0.051
5538,-0.111,-0.040
5539,-0.118,-0.044
5540,-0.135,-0.055
5541,-0.145,-0.058
5542,-0.135,-0.051
5543,-0.125,-0.040
5544,-0.118,-0.029
5545,-0.125,-0.033
5546,-0.132,-0.044
5547,-0.145,-0.055
5548,-0.135,-0.058
5549,-0.115,-0.058
5550,-0.091,-0.065
5551,-0.088,-0.073
5552,-0.101,-0.076
5553,-0.118,-0.076
5554,-0.125,-0.065
5555,-0.118,-0.051
5556,-0.101,-0.051
5557,-0.088,-0.062
5558,-0.068,-0.069
5559,-0.061,-0.076
5560,-0.071,-0.076
5561,-0.081,-0.076
5562,-0.081,-0.076
5563,-0.108,-0.076
5564,-0.145,-0.073
5565,-0.169,-0.069
5566,-0.169,-0.065
5567,-0.145,-0.062
5568,-0.105,-0.058
5569,-0.084,-0.062
5570,-0.078,-0.065
5571,-0.081,-0.069
5572,-0.074,-0.058
5573,-0.068,-0.051
5574,-0.078,-0.047
5575,-0.105,-0.058
5576,-0.105,-0.069
5577,-0.088,-0.076
5578,-0.088,-0.073
5579,-0.105,-0.065
5580,-0.118,-0.055
5581,-0.132,-0.058
5582,-0.139,-0.058
5583,-0.128,-0.062
5584,-0.108,-0.062
5585,-0.091,-0.062
5586,-0.084,-0.062
5587,-0.105,-0.069
5588,-0.139,-0.073
5589,-0.172,-0.076
5590,-0.166,-0.069
5591,-0.145,-0.058
5592,-0.115,-0.051
5593,-0.095,-0.058
5594,-0.084,-0.062
5595,-0.084,-0.065
5596,-0.081,-0.069
5597,-0.084,-0.065
5598,-0.091,-0.058
5599,-0.108,-0.065
5600,-0.125,-0.069
5601,-0.142,-0.076
5602,-0.145,-0.073
5603,-0.122,-0.065
5604,-0.084,-0.055
5605,-0.078,-0.055
5606,-0.095,-0.062
5607,-0.115,-0.069
5608,-0.118,-0.065
5609,-0.128,-0.062
5610,-0.145,-0.058
5611,-0.152,-0.069
5612,-0.142,-0.076
5613,-0.118,-0.076
5614,-0.084,-0.069
5615,-0.068,-0.058
5616,-0.064,-0.047
5617,-0.084,-0.055
5618,-0.128,-0.058
5619,-0.169,-0.065
5620,-0.176,-0.055
5621,-0.159,-0.047
5622,-0.135,-0.040
5623,-0.118,-0.051
5624,-0.122,-0.069
5625,-0.132,-0.080
5626,-0.152,-0.080
5627,-0.166,-0.076
5628,-0.159,-0.062
5629,-0.142,-0.058
5630,-0.122,-0.065
5631,-0.098,-0.073
5632,-0.088,-0.069
5633,-0.091,-0.069
5634,-0.111,-0.073
5635,-0.122,-0.076
5636,-0.118,-0.076
5637,-0.111,-0.076
5638,-0.105,-0.065
5639,-0.098,-0.055
5640,-0.095,-0.047
5641,-0.118,-0.058
5642,-0.152,-0.062
5643,-0.189,-0.062
5644,-0.182,-0.051
5645,-0.128,-0.044
5646,-0.061,-0.040
5647,-0.037,-0.047
5648,-0.047,-0.062
5649,-0.084,-0.073
5650,-0.128,-0.069
5651,-0.152,-0.069
5652,-0.149,-0.065
5653,-0.149,-0.058
5654,-0.159,-0.058
5655,-0.162,-0.065
5656,-0.145,-0.065
5657,-0.132,-0.058
5658,-0.122,-0.058
5659,-0.122,-0.069
5660,-0.125,-0.076
5661,-0.118,-0.076
5662,-0.095,-0.069
5663,-0.071,-0.058
5664,-0.054,-0.055
5665,-0.068,-0.055
5666,-0.111,-0.065
5667,-0.162,-0.069
5668,-0.182,-0.058
5669,-0.166,-0.044
5670,-0.132,-0.029
5671,-0.115,-0.040
5672,-0.122,-0.058
5673,-0.128,-0.076
5674,-0.135,-0.076
5675,-0.128,-0.069
5676,-0.111,-0.058
5677,-0.095,-0.058
5678,-0.078,-0.058
5679,-0.068,-0.055
5680,-0.047,-0.033
5681,-0.034,-0.007
5682,-0.037,0.004
5683,-0.068,0.007
5684,-0.105,0.011
5685,-0.135,0.015
5686,-0.122,0.025
5687,-0.095,0.033
5688,-0.064,0.025
5689,-0.047,0.004
5690,-0.030,-0.007
5691,-0.014,-0.018
5692,0.000,-0.015
5693,-0.007,-0.011
5694,-0.017,-0.018
5695,-0.024,-0.044
5696,-0.027,-0.069
5697,-0.034,-0.084
5698,-0.030,-0.091
5699,-0.007,-0.098
5700,0.014,-0.098
5701,0.014,-0.109
5702,-0.007,-0.116
5703,-0.027,-0.131
5704,-0.051,-0.145
5705,-0.078,-0.156
5706,-0.095,-0.164
5707,-0.122,-0.164
5708,-0.139,-0.153
5709,-0.125,-0.135
5710,-0.081,-0.120
5711,-0.061,-0.105
5712,-0.074,-0.091
5713,-0.088,-0.091
5714,-0.081,-0.098
5715,-0.078,-0.102
5716,-0.088,-0.095
5717,-0.101,-0.087
5718,-0.108,-0.076
5719,-0.118,-0.080
5720,-0.115,-0.091
5721,-0.105,-0.102
5722,-0.108,-0.102
5723,-0.132,-0.095
5724,-0.155,-0.084
5725,-0.182,-0.080
5726,-0.182,-0.084
5727,-0.159,-0.087
5728,-0.128,-0.080
5729,-0.122,-0.058
5730,-0.122,-0.036
5731,-0.139,-0.022
5732,-0.139,0.000
5733,-0.125,0.025
5734,-0.105,0.069
5735,-0.095,0.105
5736,-0.088,0.109
5737,-0.054,0.062
5738,0.037,-0.018
5739,0.189,-0.131
5740,0.345,-0.258
5741,0.463,-0.382
5742,0.598,-0.480
5743,0.703,-0.578
5744,0.709,-0.647
5745,0.635,-0.713
5746,0.547,-0.778
5747,0.446,-0.840
5748,0.301,-0.851
5749,0.088,-0.804
5750,-0.155,-0.727
5751,-0.382,-0.618
5752,-0.588,-0.498
5753,-0.757,-0.433
5754,-0.845,-0.356
5755,-0.868,-0.211
5756,-0.875,-0.044
5757,-0.882,0.091
5758,-0.882,0.244
5759,-0.885,0.382
5760,-0.902,0.495
5761,-0.929,0.604
5762,-0.943,0.731
5763,-0.932,0.822
5764,-0.919,0.880
5765,-0.919,0.927
5766,-0.932,0.960
5767,-0.966,0.971
5768,-1.003,0.982
5769,-1.007,0.971
5770,-0.976,0.931
5771,-0.943,0.869
5772,-0.919,0.793
5773,-0.892,0.691
5774,-0.821,0.571
5775,-0.726,0.422
5776,-0.622,0.284
5777,-0.530,0.178
5778,-0.456,0.135
5779,-0.385,0.120
5780,-0.304,0.102
5781,-0.230,0.065
5782,-0.182,0.025
5783,-0.159,0.004
5784,-0.142,-0.007
5785,-0.142,-0.025
5786,-0.149,-0.047
5787,-0.145,-0.076
5788,-0.135,-0.095
5789,-0.125,-0.102
5790,-0.105,-0.105
5791,-0.081,-0.116
5792,-0.054,-0.120
5793,-0.047,-0.120
5794,-0.044,-0.109
5795,-0.044,-0.109
5796,-0.051,-0.113
5797,-0.071,-0.131
5798,-0.084,-0.145
5799,-0.081,-0.156
5800,-0.068,-0.156
5801,-0.041,-0.164
5802,-0.020,-0.164
5803,-0.041,-0.164
5804,-0.074,-0.160
5805,-0.098,-0.164
5806,-0.091,-0.167
5807,-0.061,-0.171
5808,-0.024,-0.167
5809,-0.007,-0.175
5810,0.003,-0.178
5811,0.000,-0.196
5812,-0.017,-0.204
5813,-0.017,-0.200
5814,0.000,-0.189
5815,0.024,-0.200
5816,0.047,-0.222
5817,0.054,-0.244
5818,0.068,-0.236
5819,0.088,-0.233
5820,0.101,-0.233
5821,0.095,-0.244
5822,0.084,-0.244
5823,0.078,-0.262
5824,0.081,-0.276
5825,0.105,-0.284
5826,0.169,-0.287
5827,0.230,-0.305
5828,0.270,-0.320
5829,0.277,-0.342
5830,0.284,-0.349
5831,0.297,-0.356
5832,0.307,-0.378
5833,0.314,-0.396
5834,0.345,-0.407
5835,0.378,-0.425
5836,0.412,-0.436
5837,0.419,-0.447
5838,0.439,-0.458
5839,0.456,-0.473
5840,0.473,-0.491
5841,0.476,-0.505
5842,0.493,-0.505
5843,0.534,-0.505
5844,0.557,-0.509
5845,0.561,-0.513
5846,0.571,-0.513
5847,0.571,-0.505
5848,0.574,-0.495
5849,0.568,-0.469
5850,0.554,-0.440
5851,0.530,-0.418
5852,0.514,-0.396
5853,0.514,-0.367
5854,0.507,-0.331
5855,0.483,-0.291
5856,0.443,-0.244
5857,0.405,-0.215
5858,0.365,-0.185
5859,0.345,-0.153
5860,0.331,-0.113
5861,0.318,-0.076
5862,0.297,-0.047
5863,0.247,-0.040
5864,0.189,-0.047
5865,0.155,-0.044
5866,0.162,-0.022
5867,0.145,-0.004
5868,0.084,0.000
5869,0.007,0.000
5870,-0.034,-0.011
5871,-0.034,-0.015
5872,-0.003,-0.015
5873,0.024,-0.011
5874,0.024,-0.011
5875,0.000,-0.018
5876,-0.020,-0.025
5877,-0.034,-0.036
5878,-0.044,-0.033
5879,-0.044,-0.029
5880,-0.037,-0.022
5881,-0.037,-0.029
5882,-0.044,-0.040
5883,-0.054,-0.044
5884,-0.044,-0.040
5885,-0.027,-0.029
5886,-0.017,-0.022
5887,-0.017,-0.025
5888,-0.027,-0.040
5889,-0.047,-0.047
5890,-0.057,-0.051
5891,-0.061,-0.044
5892,-0.064,-0.040
5893,-0.064,-0.044
5894,-0.071,-0.051
5895,-0.084,-0.058
5896,-0.084,-0.055
5897,-0.071,-0.047
5898,-0.061,-0.036
5899,-0.081,-0.036
5900,-0.101,-0.044
5901,-0.111,-0.047
5902,-0.101,-0.044
5903,-0.088,-0.033
5904,-0.101,-0.022
5905,-0.122,-0.025
5906,-0.128,-0.033
5907,-0.122,-0.033
5908,-0.098,-0.029
5909,-0.071,-0.022
5910,-0.047,-0.022
5911,-0.051,-0.022
5912,-0.068,-0.029
5913,-0.078,-0.047
5914,-0.061,-0.055
5915,-0.054,-0.055
5916,-0.061,-0.044
5917,-0.071,-0.044
5918,-0.084,-0.047
5919,-0.088,-0.051
5920,-0.071,-0.040
5921,-0.061,-0.033
5922,-0.057,-0.025
5923,-0.068,-0.033
5924,-0.074,-0.033
5925,-0.101,-0.033
5926,-0.118,-0.033
5927,-0.118,-0.029
5928,-0.108,-0.018
5929,-0.101,-0.022
5930,-0.101,-0.029
5931,-0.111,-0.033
5932,-0.115,-0.025
5933,-0.098,-0.015
5934,-0.068,-0.015
5935,-0.041,-0.025
5936,-0.037,-0.044
5937,-0.061,-0.047
5938,-0.078,-0.044
5939,-0.081,-0.040
5940,-0.081,-0.036
5941,-0.088,-0.036
5942,-0.091,-0.036
5943,-0.078,-0.044
5944,-0.057,-0.040
5945,-0.054,-0.033
5946,-0.057,-0.025
5947,-0.068,-0.025
5948,-0.068,-0.033
5949,-0.068,-0.040
5950,-0.061,-0.044
5951,-0.061,-0.036
5952,-0.064,-0.025
5953,-0.071,-0.029
5954,-0.071,-0.044
5955,-0.084,-0.055
5956,-0.101,-0.051
5957,-0.095,-0.055
5958,-0.071,-0.051
5959,-0.078,-0.047
5960,-0.091,-0.047
5961,-0.081,-0.055
5962,-0.064,-0.047
5963,-0.064,-0.029
5964,-0.095,-0.018
5965,-0.115,-0.029
5966,-0.108,-0.044
5967,-0.098,-0.055
5968,-0.088,-0.055
5969,-0.071,-0.051
5970,-0.068,-0.047
5971,-0.071,-0.047
5972,-0.071,-0.047
5973,-0.061,-0.058
5974,-0.051,-0.055
5975,-0.044,-0.047
5976,-0.037,-0.044
5977,-0.037,-0.044
5978,-0.061,-0.051
5979,-0.081,-0.055
5980,-0.081,-0.047
5981,-0.074,-0.036
5982,-0.071,-0.033
5983,-0.091,-0.033
5984,-0.108,-0.040
5985,-0.101,-0.047
5986,-0.084,-0.044
5987,-0.071,-0.033
5988,-0.054,-0.029
5989,-0.061,-0.036
5990,-0.084,-0.047
5991,-0.105,-0.058
5992,-0.105,-0.058
5993,-0.101,-0.047
5994,-0.105,-0.036
5995,-0.115,-0.033
5996,-0.118,-0.040
5997,-0.098,-0.044
5998,-0.064,-0.040
5999,-0.037,-0.036
6000,-0.037,-0.036
6001,-0.051,-0.047
6002,-0.064,-0.058
6003,-0.091,-0.076
6004,-0.115,-0.076
6005,-0.122,-0.062
6006,-0.122,-0.047
6007,-0.108,-0.044
6008,-0.088,-0.055
6009,-0.081,-0.058
6010,-0.081,-0.058
6011,-0.057,-0.055
6012,-0.027,-0.047
6013,-0.034,-0.055
6014,-0.064,-0.058
6015,-0.101,-0.062
6016,-0.118,-0.055
6017,-0.118,-0.044
6018,-0.111,-0.025
6019,-0.105,-0.025
6020,-0.091,-0.036
6021,-0.071,-0.047
6022,-0.051,-0.047
6023,-0.051,-0.044
6024,-0.068,-0.047
6025,-0.091,-0.051
6026,-0.108,-0.051
6027,-0.115,-0.051
6028,-0.101,-0.047
6029,-0.078,-0.036
6030,-0.061,-0.025
6031,-0.064,-0.025
6032,-0.074,-0.036
6033,-0.078,-0.051
6034,-0.074,-0.051
6035,-0.084,-0.047
6036,-0.098,-0.044
6037,-0.125,-0.047
6038,-0.139,-0.062
6039,-0.132,-0.069
6040,-0.098,-0.055
6041,-0.078,-0.047
6042,-0.061,-0.036
6043,-0.047,-0.044
6044,-0.044,-0.047
6045,-0.051,-0.058
6046,-0.057,-0.058
6047,-0.061,-0.051
6048,-0.068,-0.047
6049,-0.081,-0.058
6050,-0.084,-0.069
6051,-0.088,-0.069
6052,-0.095,-0.058
6053,-0.108,-0.051
6054,-0.125,-0.047
6055,-0.132,-0.036
6056,-0.122,-0.047
6057,-0.108,-0.055
6058,-0.088,-0.058
6059,-0.068,-0.051
6060,-0.061,-0.044
6061,-0.061,-0.040
6062,-0.064,-0.044
6063,-0.074,-0.055
6064,-0.095,-0.055
6065,-0.098,-0.047
6066,-0.081,-0.036
6067,-0.081,-0.044
6068,-0.095,-0.055
6069,-0.101,-0.051
6070,-0.084,-0.036
6071,-0.054,-0.018
6072,-0.027,0.000
6073,-0.024,0.004
6074,-0.037,0.011
6075,-0.061,0.011
6076,-0.071,0.011
6077,-0.084,0.011
6078,-0.078,0.015
6079,-0.054,0.011
6080,-0.027,-0.004
6081,0.000,-0.015
6082,0.024,-0.018
6083,0.030,-0.018
6084,0.020,-0.015
6085,0.000,-0.025
6086,-0.017,-0.047
6087,-0.034,-0.069
6088,-0.037,-0.087
6089,-0.030,-0.091
6090,-0.024,-0.091
6091,-0.027,-0.102
6092,-0.037,-0.124
6093,-0.044,-0.142
6094,-0.041,-0.138
6095,-0.024,-0.135
6096,-0.020,-0.131
6097,-0.041,-0.142
6098,-0.061,-0.156
6099,-0.047,-0.156
6100,-0.020,-0.135
6101,-0.007,-0.105
6102,-0.017,-0.084
6103,-0.034,-0.080
6104,-0.047,-0.080
6105,-0.071,-0.087
6106,-0.098,-0.087
6107,-0.108,-0.080
6108,-0.105,-0.069
6109,-0.108,-0.073
6110,-0.118,-0.076
6111,-0.118,-0.080
6112,-0.091,-0.080
6113,-0.068,-0.069
6114,-0.061,-0.065
6115,-0.071,-0.073
6116,-0.084,-0.080
6117,-0.101,-0.080
6118,-0.095,-0.076
6119,-0.098,-0.058
6120,-0.108,-0.029
6121,-0.128,-0.004
6122,-0.122,0.004
6123,-0.088,0.022
6124,-0.051,0.055
6125,-0.030,0.091
6126,-0.027,0.120
6127,-0.027,0.109
6128,0.014,0.055
6129,0.111,-0.036
6130,0.250,-0.153
6131,0.392,-0.276
6132,0.530,-0.396
6133,0.655,-0.502
6134,0.703,-0.604
6135,0.632,-0.680
6136,0.517,-0.735
6137,0.419,-0.807
6138,0.321,-0.862
6139,0.186,-0.858
6140,0.000,-0.800
6141,-0.206,-0.720
6142,-0.416,-0.604
6143,-0.608,-0.484
6144,-0.736,-0.415
6145,-0.791,-0.331
6146,-0.814,-0.171
6147,-0.834,0.000
6148,-0.872,0.149
6149,-0.895,0.291
6150,-0.892,0.415
6151,-0.895,0.527
6152,-0.919,0.658
6153,-0.936,0.789
6154,-0.919,0.873
6155,-0.902,0.920
6156,-0.899,0.953
6157,-0.919,0.975
6158,-0.949,0.989
6159,-0.966,0.996
6160,-0.966,0.985
6161,-0.946,0.938
6162,-0.922,0.869
6163,-0.892,0.782
6164,-0.845,0.680
6165,-0.760,0.560
6166,-0.659,0.418
6167,-0.551,0.276
6168,-0.459,0.185
6169,-0.416,0.138
6170,-0.378,0.113
6171,-0.314,0.105
6172,-0.247,0.080
6173,-0.206,0.036
6174,-0.172,0.000
6175,-0.152,-0.018
6176,-0.139,-0.036
6177,-0.132,-0.051
6178,-0.105,-0.065
6179,-0.081,-0.069
6180,-0.081,-0.080
6181,-0.105,-0.091
6182,-0.108,-0.109
6183,-0.091,-0.113
6184,-0.054,-0.109
6185,-0.014,-0.105
6186,0.000,-0.116
6187,-0.010,-0.135
6188,-0.024,-0.149
6189,-0.024,-0.145
6190,-0.010,-0.131
6191,0.000,-0.116
6192,0.010,-0.124
6193,0.007,-0.145
6194,-0.010,-0.160
6195,-0.034,-0.164
6196,-0.044,-0.156
6197,-0.041,-0.156
6198,-0.014,-0.164
6199,0.014,-0.178
6200,0.044,-0.182
6201,0.064,-0.185
6202,0.068,-0.196
6203,0.051,-0.204
6204,0.007,-0.196
6205,-0.020,-0.189
6206,-0.020,-0.196
6207,0.000,-0.218
6208,0.034,-0.229
6209,0.071,-0.222
6210,0.098,-0.218
6211,0.108,-0.233
6212,0.118,-0.255
6213,0.128,-0.262
6214,0.142,-0.269
6215,0.135,-0.276
6216,0.149,-0.284
6217,0.169,-0.291
6218,0.189,-0.309
6219,0.213,-0.331
6220,0.250,-0.345
6221,0.277,-0.353
6222,0.294,-0.364
6223,0.304,-0.378
6224,0.328,-0.400
6225,0.358,-0.425
6226,0.399,-0.433
6227,0.443,-0.436
6228,0.486,-0.447
6229,0.527,-0.473
6230,0.547,-0.495
6231,0.554,-0.509
6232,0.551,-0.516
6233,0.544,-0.516
6234,0.541,-0.513
6235,0.527,-0.516
6236,0.517,-0.516
6237,0.534,-0.520
6238,0.581,-0.513
6239,0.622,-0.491
6240,0.645,-0.465
6241,0.635,-0.447
6242,0.605,-0.429
6243,0.568,-0.404
6244,0.547,-0.371
6245,0.517,-0.335
6246,0.486,-0.284
6247,0.446,-0.244
6248,0.395,-0.222
6249,0.361,-0.193
6250,0.355,-0.149
6251,0.345,-0.109
6252,0.328,-0.087
6253,0.294,-0.080
6254,0.257,-0.073
6255,0.213,-0.055
6256,0.179,-0.025
6257,0.152,-0.004
6258,0.125,0.000
6259,0.091,-0.004
6260,0.057,-0.015
6261,0.027,-0.015
6262,0.020,-0.011
6263,0.007,-0.007
6264,0.003,-0.004
6265,0.000,-0.007
6266,0.000,-0.015
6267,0.017,-0.025
6268,0.041,-0.029
6269,0.034,-0.025
6270,0.007,-0.022
6271,-0.024,-0.025
6272,-0.041,-0.036
6273,-0.047,-0.047
6274,-0.037,-0.047
6275,-0.034,-0.044
6276,-0.051,-0.040
6277,-0.084,-0.040
6278,-0.122,-0.044
6279,-0.132,-0.044
6280,-0.108,-0.040
6281,-0.091,-0.036
6282,-0.088,-0.036
6283,-0.088,-0.044
6284,-0.084,-0.055
6285,-0.078,-0.058
6286,-0.057,-0.058
6287,-0.037,-0.051
6288,-0.030,-0.036
6289,-0.047,-0.033
6290,-0.064,-0.033
6291,-0.074,-0.036
6292,-0.068,-0.033
6293,-0.068,-0.025
6294,-0.061,-0.025
6295,-0.064,-0.033
6296,-0.061,-0.044
6297,-0.057,-0.047
6298,-0.054,-0.055
6299,-0.054,-0.051
6300,-0.061,-0.044
6301,-0.064,-0.044
6302,-0.068,-0.047
6303,-0.081,-0.047
6304,-0.091,-0.044
6305,-0.078,-0.033
6306,-0.057,-0.022
6307,-0.047,-0.025
6308,-0.071,-0.033
6309,-0.105,-0.044
6310,-0.122,-0.047
6311,-0.101,-0.047
6312,-0.074,-0.047
6313,-0.074,-0.055
6314,-0.081,-0.062
6315,-0.068,-0.065
6316,-0.044,-0.058
6317,-0.030,-0.047
6318,-0.044,-0.036
6319,-0.071,-0.036
6320,-0.078,-0.044
6321,-0.095,-0.047
6322,-0.122,-0.044
6323,-0.118,-0.036
6324,-0.078,-0.033
6325,-0.051,-0.036
6326,-0.041,-0.044
6327,-0.054,-0.047
6328,-0.068,-0.051
6329,-0.088,-0.047
6330,-0.098,-0.051
6331,-0.108,-0.055
6332,-0.105,-0.058
6333,-0.088,-0.058
6334,-0.054,-0.051
6335,-0.030,-0.047
6336,-0.020,-0.044
6337,-0.037,-0.044
6338,-0.054,-0.047
6339,-0.071,-0.051
6340,-0.091,-0.055
6341,-0.098,-0.055
6342,-0.095,-0.055
6343,-0.101,-0.058
6344,-0.101,-0.069
6345,-0.098,-0.076
6346,-0.095,-0.073
6347,-0.101,-0.055
6348,-0.095,-0.047
6349,-0.078,-0.051
6350,-0.054,-0.058
6351,-0.047,-0.065
6352,-0.037,-0.065
6353,-0.037,-0.058
6354,-0.061,-0.058
6355,-0.095,-0.069
6356,-0.108,-0.080
6357,-0.111,-0.087
6358,-0.115,-0.084
6359,-0.108,-0.065
6360,-0.088,-0.055
6361,-0.061,-0.055
6362,-0.037,-0.065
6363,-0.027,-0.073
6364,-0.044,-0.073
6365,-0.078,-0.065
6366,-0.105,-0.062
6367,-0.115,-0.065
6368,-0.115,-0.073
6369,-0.115,-0.076
6370,-0.108,-0.073
6371,-0.105,-0.062
6372,-0.108,-0.055
6373,-0.125,-0.055
6374,-0.135,-0.062
6375,-0.125,-0.065
6376,-0.098,-0.058
6377,-0.081,-0.047
6378,-0.071,-0.040
6379,-0.074,-0.044
6380,-0.088,-0.051
6381,-0.091,-0.062
6382,-0.064,-0.065
6383,-0.034,-0.062
6384,-0.014,-0.058
6385,-0.024,-0.058
6386,-0.054,-0.065
6387,-0.091,-0.065
6388,-0.101,-0.065
6389,-0.091,-0.055
6390,-0.071,-0.044
6391,-0.081,-0.047
6392,-0.122,-0.055
6393,-0.155,-0.058
6394,-0.149,-0.065
6395,-0.115,-0.065
6396,-0.068,-0.065
6397,-0.047,-0.065
6398,-0.054,-0.065
6399,-0.074,-0.065
6400,-0.081,-0.062
6401,-0.068,-0.047
6402,-0.068,-0.044
6403,-0.101,-0.044
6404,-0.139,-0.051
6405,-0.149,-0.065
6406,-0.128,-0.076
6407,-0.105,-0.076
6408,-0.091,-0.073
6409,-0.098,-0.073
6410,-0.105,-0.076
6411,-0.101,-0.076
6412,-0.091,-0.069
6413,-0.101,-0.055
6414,-0.105,-0.051
6415,-0.101,-0.058
6416,-0.105,-0.076
6417,-0.118,-0.087
6418,-0.125,-0.087
6419,-0.115,-0.076
6420,-0.095,-0.065
6421,-0.091,-0.069
6422,-0.105,-0.069
6423,-0.125,-0.069
6424,-0.132,-0.069
6425,-0.118,-0.069
6426,-0.115,-0.069
6427,-0.125,-0.069
6428,-0.135,-0.076
6429,-0.142,-0.080
6430,-0.128,-0.073
6431,-0.101,-0.065
6432,-0.081,-0.055
6433,-0.071,-0.058
6434,-0.068,-0.069
6435,-0.084,-0.080
6436,-0.101,-0.080
6437,-0.101,-0.069
6438,-0.088,-0.058
6439,-0.068,-0.058
6440,-0.068,-0.073
6441,-0.095,-0.076
6442,-0.122,-0.073
6443,-0.132,-0.065
6444,-0.132,-0.058
6445,-0.145,-0.058
6446,-0.172,-0.062
6447,-0.166,-0.062
6448,-0.122,-0.058
6449,-0.081,-0.051
6450,-0.064,-0.047
6451,-0.088,-0.055
6452,-0.118,-0.069
6453,-0.132,-0.084
6454,-0.118,-0.087
6455,-0.098,-0.073
6456,-0.078,-0.065
6457,-0.068,-0.058
6458,-0.071,-0.055
6459,-0.071,-0.044
6460,-0.071,-0.025
6461,-0.074,-0.011
6462,-0.071,0.000
6463,-0.081,0.000
6464,-0.091,-0.015
6465,-0.098,-0.029
6466,-0.084,-0.033
6467,-0.061,-0.033
6468,-0.047,-0.033
6469,-0.061,-0.036
6470,-0.084,-0.047
6471,-0.084,-0.055
6472,-0.057,-0.058
6473,-0.024,-0.055
6474,-0.003,-0.062
6475,-0.003,-0.087
6476,0.000,-0.113
6477,0.003,-0.131
6478,0.003,-0.135
6479,-0.010,-0.131
6480,-0.020,-0.135
6481,-0.030,-0.156
6482,-0.047,-0.167
6483,-0.064,-0.164
6484,-0.061,-0.156
6485,-0.044,-0.156
6486,-0.034,-0.164
6487,-0.044,-0.167
6488,-0.057,-0.156
6489,-0.068,-0.145
6490,-0.084,-0.135
6491,-0.108,-0.124
6492,-0.125,-0.116
6493,-0.132,-0.109
6494,-0.132,-0.105
