'sample interval','ECG1','ECG2'
'0.0078125 sec','mV','mV'
0,0.270,-0.430
1,0.570,-0.930
2,0.360,-1.480
3,-0.280,-1.360
4,-0.390,-0.820
5,-0.320,-0.360
6,-0.370,-0.120
7,-0.240,-0.030
8,-0.200,0.060
9,-0.170,0.070
10,-0.160,0.090
11,-0.170,0.100
12,-0.140,0.120
13,-0.170,0.140
14,-0.150,0.130
15,-0.140,0.150
16,-0.130,0.150
17,-0.140,0.150
18,-0.150,0.190
19,-0.140,0.180
20,-0.130,0.180
21,-0.160,0.210
22,-0.110,0.210
23,-0.130,0.220
24,-0.150,0.230
25,-0.120,0.240
26,-0.110,0.290
27,-0.120,0.270
28,-0.100,0.300
29,-0.100,0.320
30,-0.080,0.350
31,-0.070,0.350
32,-0.050,0.390
33,-0.020,0.370
34,0.010,0.360
35,0.060,0.320
36,0.030,0.330
37,0.100,0.270
38,0.080,0.210
39,0.130,0.140
40,0.080,0.130
41,0.050,0.100
42,-0.020,0.080
43,-0.080,0.070
44,-0.060,0.050
45,-0.100,0.050
46,-0.070,0.030
47,-0.120,0.030
48,-0.090,-0.010
49,-0.050,-0.010
50,-0.100,0.010
51,-0.060,-0.040
52,-0.080,0.000
53,-0.090,0.010
54,-0.110,0.020
55,-0.030,0.000
56,-0.150,0.020
57,-0.100,0.060
58,-0.080,0.030
59,-0.100,0.020
60,-0.060,0.060
61,-0.160,0.040
62,-0.110,0.060
63,-0.100,0.040
64,-0.110,0.060
65,-0.110,0.040
66,-0.090,0.020
67,-0.080,0.020
68,-0.120,0.060
69,-0.100,0.010
70,-0.100,0.020
71,-0.070,-0.010
72,-0.080,0.040
73,-0.050,0.080
74,-0.050,0.090
75,-0.030,0.100
76,0.020,-0.020
77,0.010,-0.020
78,-0.040,-0.060
79,0.000,-0.050
80,-0.090,-0.020
81,-0.100,-0.100
82,-0.110,-0.080
83,-0.140,-0.190
84,-0.160,-0.130
85,-0.160,-0.140
86,-0.120,-0.170
87,-0.150,-0.150
88,-0.130,-0.080
89,-0.140,-0.060
90,-0.150,-0.070
91,-0.150,-0.100
92,-0.140,-0.050
93,-0.160,-0.090
94,-0.160,-0.070
95,-0.140,-0.080
96,-0.160,-0.080
97,-0.140,-0.070
98,-0.150,-0.090
99,-0.150,-0.190
100,0.000,-0.270
101,0.060,-0.310
102,0.190,-0.430
103,0.420,-0.730
104,0.520,-1.000
105,-0.120,-0.910
106,-0.460,-0.860
107,-0.540,-0.730
108,-0.450,-0.240
109,-0.380,-0.110
110,-0.240,-0.030
111,-0.170,0.020
112,-0.160,0.030
113,-0.160,0.060
114,-0.130,0.060
115,-0.140,0.060
116,-0.130,0.060
117,-0.120,0.070
118,-0.120,0.090
119,-0.140,0.090
120,-0.120,0.070
121,-0.110,0.080
122,-0.120,0.090
123,-0.140,0.100
124,-0.110,0.110
125,-0.110,0.120
126,-0.120,0.140
127,-0.110,0.140
128,-0.110,0.170
129,-0.090,0.180
130,-0.090,0.220
131,-0.070,0.210
132,-0.050,0.240
133,-0.030,0.250
134,-0.010,0.250
135,0.010,0.250
136,0.040,0.210
137,0.070,0.200
138,0.090,0.200
139,0.120,0.130
140,0.110,0.080
141,0.060,0.110
142,0.030,0.060
143,-0.010,0.050
144,-0.040,0.020
145,-0.070,0.060
146,-0.090,0.040
147,-0.110,0.010
148,-0.040,0.030
149,-0.180,0.050
150,-0.120,0.020
151,-0.120,0.020
152,-0.110,0.010
153,-0.120,0.020
154,-0.100,0.000
155,-0.120,0.020
156,-0.110,0.000
157,-0.110,-0.010
158,-0.100,0.010
159,-0.100,-0.010
160,-0.100,-0.020
161,-0.090,-0.010
162,-0.080,-0.010
163,-0.070,-0.020
164,-0.100,-0.010
165,-0.060,-0.010
166,-0.080,0.000
167,-0.090,-0.020
168,-0.060,-0.020
169,-0.090,0.000
170,-0.060,0.000
171,-0.080,-0.020
172,-0.060,0.000
173,-0.070,0.010
174,-0.060,0.010
175,-0.030,0.080
176,0.000,0.130
177,0.030,0.090
178,0.130,0.020
179,0.030,-0.070
180,0.070,0.020
181,-0.230,0.090
182,-0.010,-0.010
183,-0.070,0.020
184,-0.120,-0.040
185,-0.080,-0.050
186,-0.120,-0.060
187,-0.090,0.000
188,-0.070,-0.010
189,-0.070,-0.020
190,-0.080,0.020
191,-0.080,0.060
192,-0.090,0.060
193,-0.110,0.080
194,-0.100,0.070
195,-0.070,0.060
196,-0.050,0.080
197,-0.110,0.070
198,-0.080,0.070
199,-0.110,0.060
200,-0.080,0.070
201,-0.070,-0.010
202,0.000,-0.030
203,0.100,-0.090
204,0.200,-0.210
205,0.370,-0.530
206,0.840,-1.170
207,0.200,-1.700
208,-0.440,-1.065
209,-0.200,-0.510
210,-0.270,-0.160
211,-0.170,0.030
212,-0.150,0.070
213,-0.090,0.100
214,-0.140,0.140
215,-0.130,0.140
216,-0.130,0.140
217,-0.100,0.130
218,-0.110,0.150
219,-0.090,0.150
220,-0.090,0.170
221,-0.100,0.140
222,-0.080,0.170
223,-0.120,0.180
224,-0.070,0.180
225,-0.050,0.170
226,-0.090,0.210
227,-0.080,0.220
228,-0.090,0.230
229,-0.080,0.240
230,-0.090,0.260
231,-0.070,0.290
232,-0.040,0.290
233,-0.030,0.310
234,-0.030,0.340
235,-0.020,0.370
236,0.040,0.360
237,0.060,0.350
238,0.080,0.340
239,0.160,0.330
240,0.190,0.260
241,0.200,0.220
242,0.230,0.140
243,0.230,0.080
244,0.130,0.060
245,0.090,0.030
246,0.090,0.060
247,0.040,0.010
248,0.000,0.070
249,-0.020,0.020
250,0.050,-0.010
251,-0.020,0.020
252,0.040,0.000
253,0.050,-0.100
254,0.100,-0.130
255,0.100,-0.190
256,-0.240,0.130
257,-0.580,0.410
258,-0.910,0.730
259,-0.980,0.770
260,-1.100,1.030
261,-1.370,1.180
262,-1.250,1.480
263,-1.260,1.610
264,-1.460,1.380
265,-1.200,1.280
266,-0.760,0.970
267,-0.510,1.180
268,-0.480,1.230
269,-0.430,1.190
270,-0.350,1.070
271,-0.260,0.910
272,-0.170,0.280
273,0.010,-0.120
274,0.130,-0.240
275,0.180,-0.250
276,0.240,-0.240
277,0.300,-0.280
278,0.350,-0.350
279,0.400,-0.380
280,0.390,-0.440
281,0.440,-0.490
282,0.460,-0.520
283,0.540,-0.560
284,0.560,-0.610
285,0.600,-0.680
286,0.690,-0.750
287,0.760,-0.840
288,0.920,-0.880
289,0.980,-0.950
290,1.080,-1.040
291,1.230,-1.010
292,1.120,-1.010
293,0.980,-0.980
294,0.900,-0.990
295,0.800,-0.940
296,0.680,-0.900
297,0.570,-0.790
298,0.470,-0.700
299,0.350,-0.560
300,0.240,-0.440
301,0.160,-0.350
302,0.100,-0.260
303,0.080,-0.170
304,0.020,-0.090
305,0.010,-0.060
306,-0.010,0.030
307,-0.020,0.040
308,-0.040,0.040
309,-0.030,0.050
310,-0.050,0.070
311,-0.040,0.060
312,-0.030,0.060
313,-0.030,0.030
314,-0.030,0.080
315,-0.060,0.080
316,-0.030,0.020
317,0.020,0.040
318,-0.070,0.050
319,-0.030,0.070
320,-0.020,0.020
321,-0.030,0.010
322,0.000,0.010
323,-0.030,0.010
324,-0.050,0.000
325,0.030,-0.010
326,-0.040,0.020
327,-0.030,0.040
328,-0.070,0.000
329,-0.010,-0.010
330,-0.050,0.020
331,-0.010,-0.030
332,-0.050,0.010
333,-0.040,-0.010
334,-0.030,-0.030
335,-0.030,0.020
336,-0.040,-0.010
337,-0.030,-0.030
338,-0.060,-0.010
339,-0.040,-0.020
340,-0.050,-0.020
341,-0.040,-0.020
342,-0.030,-0.030
343,-0.050,-0.030
344,-0.010,-0.050
345,-0.020,-0.050
346,-0.050,-0.010
347,-0.070,-0.030
348,-0.050,-0.040
349,-0.040,-0.060
350,-0.040,-0.050
351,-0.030,-0.070
352,-0.050,-0.050
353,-0.030,-0.060
354,0.020,-0.040
355,-0.030,-0.060
356,-0.050,-0.050
357,-0.040,-0.060
358,-0.030,-0.050
359,0.000,-0.030
360,-0.010,-0.050
361,-0.050,-0.020
362,-0.040,-0.020
363,0.000,-0.020
364,-0.050,-0.010
365,-0.020,-0.040
366,-0.040,-0.020
367,0.000,-0.030
368,-0.020,-0.010
369,0.000,-0.020
370,-0.080,-0.030
371,0.020,-0.050
372,-0.050,-0.020
373,0.000,-0.050
374,-0.030,-0.030
375,-0.080,-0.030
376,-0.020,-0.050
377,0.000,-0.080
378,-0.050,0.020
379,0.000,0.010
380,0.000,0.040
381,0.080,-0.020
382,0.050,-0.020
383,0.040,-0.080
384,0.030,-0.080
385,-0.010,-0.070
386,-0.020,-0.120
387,-0.070,-0.130
388,-0.050,-0.150
389,-0.100,-0.180
390,-0.070,-0.170
391,-0.030,-0.200
392,-0.010,-0.160
393,-0.050,-0.180
394,-0.060,-0.100
395,-0.100,-0.120
396,-0.010,-0.150
397,-0.060,-0.120
398,-0.040,-0.130
399,-0.030,-0.140
400,-0.030,-0.140
401,-0.030,-0.150
402,-0.030,-0.160
403,-0.020,-0.230
404,0.070,-0.240
405,0.140,-0.290
406,0.290,-0.370
407,0.400,-0.610
408,0.840,-0.930
409,0.200,-1.070
410,-0.440,-1.090
411,-0.370,-0.860
412,-0.370,-0.390
413,-0.380,-0.190
414,-0.170,-0.080
415,-0.130,-0.040
416,-0.120,-0.020
417,-0.100,0.030
418,-0.100,0.040
419,-0.100,0.020
420,-0.030,0.030
421,-0.080,0.070
422,-0.110,0.050
423,-0.070,0.060
424,-0.070,0.080
425,-0.080,0.060
426,-0.070,0.100
427,-0.060,0.100
428,-0.080,0.100
429,-0.040,0.110
430,-0.070,0.100
431,-0.050,0.110
432,-0.080,0.140
433,-0.060,0.130
434,-0.040,0.180
435,-0.020,0.190
436,-0.050,0.210
437,-0.030,0.230
438,0.000,0.230
439,0.000,0.250
440,0.050,0.240
441,0.050,0.220
442,0.070,0.210
443,0.120,0.150
444,0.130,0.130
445,0.130,0.080
446,0.140,0.060
447,0.120,0.040
448,0.080,0.020
449,0.040,0.030
450,0.010,0.000
451,0.000,0.020
452,-0.010,0.000
453,-0.010,0.040
454,-0.030,-0.010
455,-0.030,0.030
456,-0.030,0.020
457,-0.050,0.030
458,-0.050,0.020
459,-0.040,0.040
460,-0.030,0.050
461,-0.070,0.030
462,-0.060,0.040
463,-0.040,0.050
464,-0.030,0.050
465,-0.040,0.030
466,-0.080,0.030
467,-0.030,0.060
468,-0.030,0.030
469,-0.020,0.050
470,-0.040,-0.010
471,-0.030,0.020
472,-0.040,0.040
473,-0.050,0.020
474,-0.050,0.020
475,-0.030,0.000
476,-0.050,0.020
477,-0.030,0.030
478,-0.060,0.010
479,-0.050,0.020
480,-0.040,0.080
481,0.000,0.130
482,0.040,0.110
483,0.080,0.060
484,0.040,0.040
485,0.040,0.010
486,0.010,-0.020
487,-0.010,0.000
488,-0.030,-0.040
489,-0.050,-0.070
490,-0.050,-0.070
491,-0.090,-0.110
492,-0.080,-0.060
493,-0.050,-0.080
494,-0.070,-0.080
495,-0.050,-0.070
496,-0.060,0.030
497,-0.060,0.000
498,-0.110,-0.010
499,-0.040,0.000
500,-0.070,0.020
501,-0.070,-0.020
502,-0.070,0.010
503,-0.100,0.030
504,-0.070,0.010
505,-0.080,-0.010
506,-0.080,-0.030
507,-0.040,-0.070
508,0.110,-0.100
509,0.160,-0.150
510,0.330,-0.520
511,0.810,-1.160
512,0.230,-1.710
513,-0.410,-1.180
514,-0.290,-0.710
515,-0.240,-0.250
516,-0.180,-0.030
517,-0.160,0.020
518,-0.120,0.080
519,-0.120,0.080
520,-0.130,0.080
521,-0.040,0.110
522,-0.130,0.110
523,-0.110,0.100
524,-0.090,0.140
525,-0.130,0.120
526,-0.110,0.130
527,-0.140,0.110
528,-0.070,0.130
529,-0.110,0.130
530,-0.080,0.140
531,-0.090,0.160
532,-0.130,0.150
533,-0.110,0.200
534,-0.110,0.180
535,-0.090,0.190
536,-0.090,0.240
537,-0.090,0.210
538,-0.080,0.240
539,-0.050,0.240
540,-0.010,0.250
541,0.030,0.250
542,0.000,0.270
543,0.050,0.240
544,0.130,0.210
545,0.120,0.180
546,0.170,0.120
547,0.170,0.080
548,0.140,0.000
549,0.120,-0.020
550,0.060,-0.040
551,0.030,-0.060
552,-0.050,-0.080
553,0.020,-0.080
554,-0.080,-0.090
555,-0.040,-0.110
556,-0.060,-0.100
557,-0.060,-0.120
558,-0.050,-0.120
559,-0.070,-0.120
560,-0.050,-0.140
561,-0.050,-0.120
562,-0.060,-0.110
563,-0.060,-0.120
564,-0.060,-0.100
565,-0.050,-0.100
566,-0.080,-0.090
567,-0.060,-0.080
568,-0.050,-0.070
569,-0.080,-0.080
570,-0.090,-0.110
571,0.080,-0.070
572,-0.120,-0.030
573,-0.100,-0.040
574,-0.060,-0.050
575,-0.110,-0.040
576,-0.090,-0.040
577,-0.050,-0.040
578,-0.110,-0.060
579,-0.060,-0.020
580,-0.060,0.000
581,-0.040,0.060
582,0.020,0.080
583,0.040,-0.040
584,0.040,-0.010
585,-0.060,-0.050
586,0.050,-0.020
587,-0.050,-0.100
588,-0.020,0.010
589,-0.070,-0.080
590,-0.090,-0.130
591,-0.100,-0.100
592,-0.110,-0.060
593,-0.040,-0.090
594,-0.090,-0.090
595,-0.060,-0.010
596,-0.110,-0.010
597,-0.070,-0.010
598,-0.120,0.020
599,-0.070,-0.010
600,-0.080,0.010
601,-0.080,0.000
602,-0.070,0.010
603,-0.090,0.020
604,-0.060,0.010
605,-0.050,-0.020
606,-0.050,-0.030
607,0.040,-0.110
608,0.150,-0.150
609,0.330,-0.230
610,0.530,-0.480
611,0.830,-0.950
612,0.190,-1.070
613,-0.370,-0.840
614,-0.270,-0.630
615,-0.240,-0.150
616,-0.240,-0.020
617,-0.070,0.040
618,-0.020,0.090
619,-0.080,0.100
620,-0.020,0.110
621,-0.030,0.130
622,-0.030,0.120
623,-0.020,0.100
624,0.000,0.130
625,-0.030,0.140
626,-0.020,0.110
627,-0.040,0.140
628,-0.030,0.120
629,-0.020,0.140
630,-0.040,0.160
631,-0.040,0.150
632,0.000,0.150
633,-0.020,0.180
634,-0.010,0.190
635,-0.010,0.200
636,-0.010,0.220
637,0.010,0.200
638,0.000,0.260
639,0.040,0.230
640,0.100,0.240
641,0.090,0.260
642,0.110,0.240
643,0.130,0.190
644,0.170,0.180
645,0.250,0.140
646,0.310,0.080
647,0.260,0.090
648,0.230,0.020
649,0.180,0.060
650,0.070,0.010
651,0.110,-0.040
652,0.050,0.010
653,0.060,-0.020
654,0.020,-0.030
655,0.030,-0.040
656,0.000,-0.080
657,0.080,-0.080
658,0.090,-0.150
659,0.140,-0.200
660,0.160,-0.280
661,-0.040,0.000
662,-0.520,0.260
663,-0.820,0.670
664,-0.990,0.650
665,-1.190,0.880
666,-1.350,0.980
667,-1.370,1.260
668,-1.390,1.500
669,-1.600,1.360
670,-1.280,1.240
671,-0.880,0.980
672,-0.550,1.210
673,-0.460,1.210
674,-0.390,1.140
675,-0.300,0.990
676,-0.200,0.730
677,-0.090,0.180
678,0.080,-0.180
679,0.180,-0.290
680,0.260,-0.280
681,0.320,-0.280
682,0.390,-0.360
683,0.450,-0.440
684,0.420,-0.500
685,0.520,-0.500
686,0.540,-0.560
687,0.550,-0.570
688,0.680,-0.580
689,0.690,-0.620
690,0.660,-0.620
691,0.760,-0.850
692,0.870,-0.760
693,0.950,-0.610
694,1.120,-1.140
695,1.170,-0.950
696,1.190,-1.090
697,1.170,-1.010
698,1.080,-1.040
699,1.060,-1.010
700,0.870,-0.980
701,0.860,-0.870
702,0.530,-0.770
703,0.460,-0.660
704,0.300,-0.470
705,0.220,-0.420
706,0.180,-0.280
707,0.120,-0.220
708,0.100,-0.150
709,0.090,-0.070
710,0.020,-0.040
711,0.040,0.000
712,0.030,0.020
713,0.030,0.030
714,0.000,0.040
715,0.040,0.040
716,0.000,0.030
717,0.020,0.050
718,0.010,0.050
719,0.020,0.040
720,0.030,0.030
721,0.030,0.070
722,-0.030,0.050
723,0.010,0.020
724,-0.010,0.070
725,0.010,0.030
726,-0.030,0.090
727,-0.030,0.280
728,0.010,-0.180
729,0.050,-0.020
730,0.060,-0.010
731,-0.020,-0.020
732,-0.070,0.070
733,0.000,-0.020
734,0.000,0.030
735,0.010,0.030
736,-0.040,0.050
737,-0.010,0.020
738,-0.030,0.060
739,0.000,0.020
740,0.020,0.040
741,-0.020,0.070
742,0.020,0.010
743,0.030,0.030
744,0.030,0.010
745,0.010,0.030
746,0.020,0.000
747,0.020,0.000
748,0.030,0.000
749,0.020,0.000
750,0.030,-0.020
751,0.030,0.000
752,0.000,0.000
753,0.010,-0.010
754,0.020,-0.020
755,0.060,-0.050
756,0.070,-0.010
757,-0.020,0.000
758,0.010,-0.010
759,0.030,0.010
760,-0.090,0.040
761,0.000,0.020
762,-0.050,0.040
763,0.000,0.020
764,-0.010,0.060
765,0.000,0.030
766,0.010,0.030
767,-0.010,0.030
768,0.020,0.000
769,-0.010,0.040
770,0.010,0.030
771,-0.020,0.040
772,0.000,0.050
773,0.000,0.040
774,0.010,0.040
775,0.000,0.070
776,0.000,0.010
777,0.030,0.040
778,0.010,0.030
779,0.010,0.070
780,0.010,0.040
781,0.030,0.070
782,0.010,0.060
783,0.060,0.140
784,0.090,0.160
785,0.130,0.090
786,0.180,0.070
787,0.090,0.050
788,0.070,0.020
789,0.070,-0.010
790,0.020,-0.020
791,0.050,0.020
792,-0.080,0.050
793,-0.060,-0.030
794,-0.040,-0.030
795,-0.020,-0.020
796,-0.030,-0.040
797,0.030,-0.040
798,0.020,0.030
799,-0.020,0.050
800,0.000,0.040
801,0.010,0.050
802,0.010,0.040
803,0.000,0.040
804,0.010,0.030
805,0.000,0.030
806,0.030,0.050
807,0.020,0.020
808,0.040,-0.040
809,0.180,-0.070
810,0.250,-0.080
811,0.430,-0.330
812,0.720,-0.740
813,0.740,-1.300
814,0.100,-1.280
815,-0.270,-0.860
816,-0.140,-0.410
817,-0.140,-0.060
818,-0.240,0.080
819,-0.110,0.130
820,-0.050,0.130
821,-0.110,0.150
822,-0.020,0.200
823,-0.120,0.180
824,-0.070,0.150
825,-0.050,0.190
826,-0.060,0.160
827,-0.030,0.180
828,-0.050,0.150
829,-0.050,0.190
830,-0.030,0.170
831,-0.050,0.190
832,-0.070,0.170
833,-0.030,0.180
834,-0.040,0.230
835,-0.050,0.220
836,-0.050,0.240
837,-0.040,0.260
838,-0.040,0.280
839,-0.040,0.290
840,-0.020,0.310
841,-0.020,0.320
842,0.010,0.360
843,0.020,0.340
844,0.120,0.340
845,0.090,0.370
846,0.020,0.350
847,0.150,0.310
848,0.170,0.280
849,0.180,0.220
850,0.210,0.200
851,0.150,0.150
852,0.120,0.100
853,0.070,0.120
854,0.040,0.070
855,0.010,0.090
856,-0.010,0.060
857,-0.010,0.080
858,-0.020,0.050
859,-0.020,0.050
860,-0.030,0.070
861,-0.040,0.070
862,-0.030,0.080
863,-0.020,0.060
864,-0.020,0.040
865,0.000,0.080
866,-0.010,0.100
867,-0.060,0.070
868,-0.040,0.060
869,-0.010,0.090
870,-0.090,0.120
871,-0.020,0.080
872,-0.040,0.110
873,-0.050,0.080
874,-0.040,0.120
875,-0.040,0.080
876,-0.020,0.080
877,-0.050,0.090
878,-0.040,0.090
879,0.000,0.060
880,-0.040,0.060
881,-0.020,0.060
882,-0.030,0.090
883,-0.040,0.070
884,-0.030,0.130
885,0.040,0.160
886,0.070,0.160
887,0.090,0.090
888,0.070,0.020
889,0.040,0.050
890,0.030,0.010
891,-0.010,0.010
892,0.000,-0.020
893,-0.030,-0.020
894,-0.050,-0.080
895,-0.060,-0.100
896,-0.080,-0.050
897,-0.040,-0.080
898,-0.060,-0.090
899,-0.060,-0.050
900,-0.040,0.010
901,-0.040,0.010
902,-0.110,0.010
903,-0.040,-0.010
904,-0.080,0.000
905,-0.080,0.010
906,-0.050,-0.020
907,-0.060,-0.040
908,0.060,-0.020
909,-0.150,0.010
910,-0.090,-0.060
911,0.050,-0.150
912,0.130,-0.190
913,0.200,-0.290
914,0.340,-0.630
915,0.720,-1.200
916,0.080,-1.370
917,-0.560,-1.020
918,-0.380,-0.760
919,-0.330,-0.250
920,-0.340,-0.140
921,-0.170,-0.010
922,-0.130,0.060
923,-0.110,0.040
924,-0.120,0.050
925,-0.110,0.080
926,-0.120,0.070
927,-0.070,0.050
928,-0.090,0.090
929,-0.120,0.080
930,-0.090,0.100
931,-0.110,0.100
932,-0.100,0.100
933,-0.120,0.100
934,-0.130,0.130
935,-0.090,0.110
936,-0.090,0.160
937,-0.080,0.150
938,-0.130,0.150
939,-0.050,0.140
940,-0.090,0.200
941,-0.040,0.180
942,-0.060,0.220
943,-0.030,0.220
944,0.010,0.240
945,0.060,0.210
946,0.080,0.220
947,0.130,0.200
948,0.170,0.180
949,0.200,0.160
950,0.220,0.120
951,0.270,0.040
952,0.120,0.030
953,0.150,0.000
954,0.040,-0.010
955,-0.050,-0.020
956,0.020,-0.020
957,-0.030,-0.030
958,-0.020,-0.040
959,-0.060,-0.040
960,-0.080,-0.050
961,-0.060,-0.060
962,-0.060,-0.030
963,-0.040,-0.050
964,-0.060,-0.070
965,-0.090,-0.030
966,-0.040,-0.070
967,-0.050,-0.050
968,-0.070,-0.050
969,-0.080,-0.060
970,-0.070,-0.030
971,-0.030,-0.050
972,-0.080,-0.030
973,-0.060,-0.050
974,-0.060,-0.070
975,-0.010,-0.100
976,-0.050,-0.070
977,-0.060,-0.070
978,-0.060,-0.110
979,-0.040,-0.060
980,-0.030,-0.090
981,-0.040,-0.050
982,0.040,-0.020
983,0.030,-0.020
984,0.040,-0.090
985,0.060,-0.100
986,0.000,-0.120
987,-0.020,-0.130
988,0.020,-0.130
989,-0.030,-0.160
990,-0.110,-0.160
991,-0.140,-0.180
992,-0.130,-0.220
993,-0.110,-0.200
994,-0.140,-0.210
995,-0.090,-0.200
996,-0.100,-0.170
997,-0.110,-0.140
998,-0.120,-0.130
999,-0.110,-0.150
1000,-0.100,-0.130
1001,-0.100,-0.140
1002,-0.120,-0.140
1003,-0.080,-0.150
1004,-0.110,-0.140
1005,-0.080,-0.160
1006,-0.130,-0.120
1007,-0.110,-0.170
1008,-0.030,-0.240
1009,0.070,-0.330
1010,0.180,-0.370
1011,0.360,-0.500
1012,0.710,-0.700
1013,0.360,-0.900
1014,-0.280,-1.020
1015,-0.350,-0.820
1016,-0.450,-0.650
1017,-0.380,-0.250
1018,-0.210,-0.170
1019,-0.150,-0.070
1020,-0.080,-0.050
1021,-0.070,-0.060
1022,-0.060,-0.040
1023,-0.020,-0.020
1024,-0.080,-0.010
1025,-0.060,-0.010
1026,-0.070,-0.010
1027,-0.040,-0.010
1028,-0.050,-0.010
1029,-0.050,-0.010
1030,-0.030,-0.010
1031,-0.030,0.000
1032,-0.040,0.000
1033,-0.040,-0.010
1034,-0.030,0.030
1035,-0.020,0.020
1036,-0.020,0.050
1037,-0.010,0.050
1038,0.020,0.060
1039,0.010,0.100
1040,0.020,0.090
1041,0.050,0.090
1042,0.080,0.100
1043,0.120,0.140
1044,0.100,0.110
1045,0.150,0.100
1046,0.190,0.080
1047,0.220,0.030
1048,0.230,0.000
1049,0.220,-0.010
1050,0.160,-0.030
1051,0.110,-0.030
1052,0.060,-0.050
1053,0.030,-0.060
1054,0.010,-0.070
1055,0.000,-0.050
1056,-0.010,-0.080
1057,-0.020,-0.080
1058,-0.040,-0.070
1059,-0.020,-0.080
1060,-0.010,-0.080
1061,-0.040,-0.070
1062,-0.020,-0.070
1063,-0.020,-0.050
1064,-0.010,-0.080
1065,0.040,-0.110
1066,0.170,-0.150
1067,0.160,-0.230
1068,0.320,-0.310
1069,0.000,0.020
1070,-0.460,0.250
1071,-0.890,0.520
1072,-0.910,0.470
1073,-1.190,0.850
1074,-1.380,1.250
1075,-1.390,1.480
1076,-1.420,1.580
1077,-1.310,1.440
1078,-0.920,1.300
1079,-0.590,1.330
1080,-0.580,1.420
1081,-0.460,1.300
1082,-0.400,0.930
1083,-0.180,0.290
1084,0.080,0.010
1085,0.210,-0.170
1086,0.230,-0.190
1087,0.220,-0.250
1088,0.210,-0.300
1089,0.230,-0.340
1090,0.240,-0.370
1091,0.230,-0.400
1092,0.260,-0.430
1093,0.250,-0.460
1094,0.310,-0.490
1095,0.380,-0.500
1096,0.450,-0.520
1097,0.520,-0.580
1098,0.630,-0.560
1099,0.680,-0.600
1100,0.800,-0.660
1101,0.910,-0.720
1102,0.990,-0.760
1103,1.020,-0.840
1104,1.090,-0.880
1105,0.980,-0.850
1106,0.900,-0.840
1107,0.780,-0.810
1108,0.690,-0.730
1109,0.510,-0.640
1110,0.400,-0.570
1111,0.300,-0.480
1112,0.210,-0.370
1113,0.150,-0.300
1114,0.090,-0.220
1115,0.040,-0.140
1116,0.000,-0.100
1117,0.000,-0.080
1118,-0.020,-0.050
1119,-0.030,-0.050
1120,-0.030,-0.020
1121,-0.030,-0.040
1122,-0.040,-0.020
1123,-0.030,-0.020
1124,-0.030,-0.040
1125,-0.030,0.000
1126,-0.060,-0.010
1127,-0.050,-0.030
1128,-0.040,-0.010
1129,-0.060,-0.010
1130,-0.050,-0.010
1131,-0.050,-0.010
1132,-0.050,-0.010
1133,-0.070,-0.030
1134,-0.040,-0.010
1135,-0.110,0.000
1136,-0.050,0.000
1137,-0.090,0.010
1138,-0.060,-0.010
1139,-0.080,0.000
1140,-0.070,0.000
1141,-0.060,0.000
1142,-0.070,0.000
1143,-0.050,-0.010
1144,-0.040,0.020
1145,-0.060,-0.010
1146,-0.050,0.000
1147,-0.040,-0.010
1148,-0.040,-0.020
1149,-0.040,0.000
1150,-0.050,-0.010
1151,-0.040,0.000
1152,-0.050,0.000
1153,-0.040,-0.020
1154,-0.040,-0.010
1155,-0.050,0.000
1156,-0.040,-0.010
1157,-0.030,-0.050
1158,-0.020,0.000
1159,-0.060,-0.010
1160,-0.090,0.010
1161,-0.050,-0.010
1162,-0.040,-0.040
1163,-0.040,0.020
1164,-0.090,0.060
1165,-0.060,0.010
1166,-0.060,0.020
1167,-0.060,0.020
1168,-0.040,0.020
1169,-0.060,0.010
1170,-0.080,0.000
1171,-0.030,0.010
1172,-0.080,0.090
1173,-0.040,0.000
1174,-0.050,0.140
1175,-0.050,-0.030
1176,0.000,-0.060
1177,-0.020,0.010
1178,-0.030,0.020
1179,-0.100,0.030
1180,-0.050,0.020
1181,-0.060,0.020
1182,-0.060,0.040
1183,-0.010,0.020
1184,-0.060,0.100
1185,0.020,0.120
1186,0.060,0.140
1187,0.070,0.060
1188,0.070,0.050
1189,0.020,0.040
1190,0.040,-0.020
1191,-0.030,-0.030
1192,0.020,0.000
1193,-0.030,-0.020
1194,-0.080,-0.080
1195,-0.050,-0.020
1196,-0.110,-0.050
1197,-0.090,0.020
1198,-0.100,-0.020
1199,-0.080,-0.030
1200,-0.050,0.040
1201,-0.080,0.020
1202,-0.090,0.060
1203,-0.060,0.030
1204,-0.100,0.120
1205,-0.080,0.070
1206,-0.100,0.070
1207,-0.020,-0.040
1208,-0.070,0.040
1209,-0.070,0.030
1210,-0.010,-0.030
1211,0.140,-0.050
1212,0.220,-0.100
1213,0.420,-0.370
1214,0.920,-1.010
1215,0.490,-1.520
1216,-0.150,-1.050
1217,-0.240,-0.660
1218,-0.160,-0.180
1219,-0.250,0.000
1220,-0.140,0.140
1221,-0.060,0.110
1222,-0.120,0.120
1223,-0.030,0.180
1224,-0.120,0.200
1225,-0.080,0.210
1226,-0.100,0.190
1227,-0.060,0.180
1228,-0.050,0.220
1229,-0.070,0.130
1230,-0.040,0.230
1231,-0.060,0.170
1232,-0.060,0.240
1233,-0.030,0.170
1234,-0.010,0.220
1235,-0.060,0.240
1236,-0.050,0.230
1237,-0.020,0.240
1238,0.000,0.290
1239,-0.020,0.250
1240,-0.030,0.320
1241,-0.020,0.320
1242,0.010,0.320
1243,0.050,0.360
1244,0.050,0.380
1245,0.070,0.380
1246,0.130,0.370
1247,0.160,0.370
1248,0.190,0.380
1249,0.170,0.310
1250,0.250,0.260
1251,0.240,0.160
1252,0.230,0.180
1253,0.190,0.080
1254,0.150,0.080
1255,0.090,0.050
1256,0.070,0.030
1257,0.020,0.000
1258,0.050,-0.020
1259,0.030,-0.010
1260,0.000,0.020
1261,0.000,-0.050
1262,0.020,0.010
1263,0.010,-0.020
1264,-0.020,-0.010
1265,-0.010,0.000
1266,0.020,-0.010
1267,0.010,-0.010
1268,-0.020,0.000
1269,-0.020,-0.010
1270,-0.020,-0.010
1271,-0.030,-0.010
1272,-0.020,-0.010
1273,-0.020,0.000
1274,-0.030,-0.030
1275,-0.030,0.000
1276,-0.070,0.030
1277,-0.080,-0.030
1278,0.000,0.000
1279,-0.020,0.020
1280,-0.090,0.040
1281,-0.040,0.010
1282,-0.060,0.040
1283,-0.050,0.010
1284,-0.040,0.040
1285,-0.030,0.040
1286,0.020,0.130
1287,0.050,0.140
1288,0.090,0.060
1289,0.080,0.050
1290,0.060,0.010
1291,-0.010,-0.030
1292,0.040,-0.020
1293,0.030,-0.040
1294,-0.040,-0.050
1295,-0.050,-0.040
1296,-0.080,-0.130
1297,-0.060,-0.120
1298,-0.020,-0.110
1299,-0.040,-0.050
1300,-0.010,-0.120
1301,-0.040,-0.010
1302,-0.050,-0.040
1303,-0.060,-0.030
1304,-0.040,-0.030
1305,-0.020,-0.040
1306,-0.040,-0.040
1307,-0.050,-0.030
1308,-0.030,-0.040
1309,-0.030,-0.040
1310,-0.040,-0.040
1311,-0.050,-0.080
1312,0.000,-0.140
1313,0.120,-0.200
1314,0.190,-0.240
1315,0.380,-0.440
1316,0.760,-0.840
1317,0.480,-1.290
1318,-0.160,-1.280
1319,-0.260,-0.810
1320,-0.170,-0.410
1321,-0.300,-0.130
1322,-0.140,-0.060
1323,-0.090,0.010
1324,-0.070,0.030
1325,-0.030,0.010
1326,-0.040,0.070
1327,-0.040,0.040
1328,-0.040,0.060
1329,0.000,0.070
1330,-0.040,0.070
1331,-0.010,0.080
1332,-0.030,0.090
1333,0.000,0.070
1334,-0.040,0.090
1335,-0.010,0.100
1336,-0.020,0.100
1337,-0.020,0.110
1338,-0.030,0.110
1339,0.000,0.140
1340,-0.040,0.190
1341,0.000,0.160
1342,-0.010,0.200
1343,0.010,0.200
1344,0.010,0.220
1345,0.030,0.240
1346,0.080,0.260
1347,0.090,0.240
1348,0.120,0.250
1349,0.150,0.220
1350,0.210,0.190
1351,0.230,0.140
1352,0.270,0.100
1353,0.240,0.070
1354,0.210,0.040
1355,0.110,0.040
1356,0.110,-0.010
1357,0.060,0.020
1358,0.050,-0.010
1359,0.040,-0.030
1360,0.030,-0.030
1361,0.020,-0.010
1362,0.010,-0.030
1363,0.010,-0.030
1364,0.030,-0.040
1365,0.040,-0.050
1366,0.030,-0.060
1367,0.030,-0.030
1368,0.040,-0.060
1369,0.010,0.010
1370,0.030,-0.030
1371,0.000,-0.030
1372,0.000,-0.020
1373,0.010,0.010
1374,-0.010,-0.020
1375,-0.030,-0.020
1376,0.000,-0.030
1377,-0.010,-0.040
1378,-0.010,-0.030
1379,-0.020,-0.040
1380,0.010,-0.030
1381,0.000,-0.050
1382,0.000,-0.030
1383,-0.010,-0.060
1384,0.010,-0.060
1385,0.010,-0.010
1386,0.050,0.010
1387,0.080,0.020
1388,0.100,0.020
1389,0.140,-0.040
1390,0.090,-0.090
1391,0.060,-0.080
1392,0.070,-0.100
1393,0.020,-0.080
1394,0.030,-0.130
1395,-0.010,-0.130
1396,-0.050,-0.160
1397,-0.030,-0.180
1398,-0.040,-0.150
1399,-0.030,-0.170
1400,-0.010,-0.150
1401,-0.020,-0.070
1402,-0.030,-0.090
1403,-0.040,-0.090
1404,-0.030,-0.070
1405,-0.030,-0.070
1406,-0.030,-0.090
1407,-0.020,-0.120
1408,-0.010,-0.050
1409,-0.050,-0.050
1410,-0.030,-0.090
1411,-0.030,-0.090
1412,-0.040,-0.150
1413,0.090,-0.200
1414,0.180,-0.280
1415,0.330,-0.370
1416,0.530,-0.650
1417,0.720,-1.130
1418,0.080,-1.210
1419,-0.300,-0.950
1420,-0.240,-0.690
1421,-0.240,-0.240
1422,-0.200,-0.160
1423,-0.090,-0.060
1424,-0.050,-0.010
1425,-0.060,0.000
1426,-0.060,0.020
1427,-0.040,0.020
1428,-0.030,0.010
1429,-0.050,0.040
1430,-0.020,0.040
1431,-0.050,0.050
1432,-0.030,0.040
1433,-0.020,0.060
1434,-0.050,0.100
1435,-0.060,0.090
1436,-0.020,0.070
1437,-0.060,0.150
1438,-0.060,0.120
1439,-0.030,0.130
1440,-0.050,0.150
1441,-0.030,0.150
1442,-0.060,0.180
1443,0.000,0.200
1444,-0.080,0.220
1445,0.010,0.240
1446,0.000,0.240
1447,0.050,0.260
1448,0.090,0.220
1449,0.120,0.230
1450,0.170,0.200
1451,0.210,0.170
1452,0.240,0.170
1453,0.250,0.090
1454,0.210,0.110
1455,0.160,0.040
1456,0.110,0.070
1457,0.070,0.070
1458,0.060,0.030
1459,0.030,0.000
1460,0.040,0.000
1461,0.010,0.040
1462,0.020,0.030
1463,0.010,0.040
1464,0.010,0.050
1465,0.060,0.010
1466,0.110,0.020
1467,0.140,-0.060
1468,0.240,-0.160
1469,0.140,-0.080
1470,-0.240,0.220
1471,-0.600,0.600
1472,-0.830,0.710
1473,-0.950,0.770
1474,-1.180,1.030
1475,-1.340,1.480
1476,-1.270,1.710
1477,-1.300,1.800
1478,-1.220,1.490
1479,-0.820,1.440
1480,-0.460,1.450
1481,-0.420,1.560
1482,-0.320,1.440
1483,-0.200,1.160
1484,-0.120,0.530
1485,0.060,0.070
1486,0.190,-0.060
1487,0.220,-0.110
1488,0.310,-0.080
1489,0.360,-0.090
1490,0.390,-0.120
1491,0.470,-0.260
1492,0.430,-0.250
1493,0.450,-0.320
1494,0.510,-0.370
1495,0.510,-0.390
1496,0.550,-0.450
1497,0.590,-0.470
1498,0.670,-0.550
1499,0.690,-0.620
1500,0.830,-0.660
1501,0.950,-0.720
1502,1.030,-0.770
1503,1.130,-0.810
1504,1.090,-0.840
1505,1.090,-0.860
1506,1.020,-0.880
1507,0.950,-0.850
1508,0.850,-0.830
1509,0.720,-0.770
1510,0.600,-0.660
1511,0.480,-0.590
1512,0.370,-0.490
1513,0.290,-0.360
1514,0.200,-0.270
1515,0.130,-0.160
1516,0.090,-0.070
1517,0.080,-0.040
1518,0.040,0.030
1519,0.030,0.040
1520,0.000,0.040
1521,0.000,0.060
1522,0.000,0.070
1523,-0.010,0.070
1524,0.000,0.060
1525,0.010,0.060
1526,-0.020,0.080
1527,0.000,0.070
1528,0.000,0.050
1529,0.000,0.070
1530,0.010,0.040
1531,0.000,0.080
1532,-0.020,0.050
1533,0.000,0.080
1534,-0.020,0.060
1535,0.000,0.050
1536,0.000,0.040
1537,0.010,0.040
1538,0.000,0.050
1539,0.000,0.030
1540,0.010,0.040
1541,0.020,0.020
1542,0.010,0.040
1543,0.020,-0.010
1544,0.010,0.040
1545,0.030,0.020
1546,0.020,0.020
1547,0.020,0.020
1548,0.060,0.000
1549,0.000,0.060
1550,0.010,0.030
1551,0.040,0.050
1552,-0.010,0.040
1553,0.040,0.020
1554,0.010,0.060
1555,0.030,0.030
1556,0.020,0.040
1557,0.010,0.070
1558,0.010,0.060
1559,0.010,0.020
1560,0.010,0.070
1561,0.040,0.020
1562,0.000,0.030
1563,0.010,0.070
1564,0.030,0.030
1565,-0.020,0.010
1566,0.080,0.040
1567,0.010,0.070
1568,0.020,0.050
1569,-0.020,0.050
1570,-0.020,0.030
1571,0.030,0.020
1572,-0.030,0.080
1573,0.010,0.020
1574,-0.010,0.050
1575,0.000,0.050
1576,-0.010,0.010
1577,0.010,0.030
1578,-0.020,0.020
1579,0.010,0.020
1580,-0.010,0.040
1581,-0.020,0.020
1582,-0.010,0.020
1583,0.010,-0.010
1584,0.080,0.040
1585,-0.090,0.080
1586,-0.050,0.050
1587,-0.020,0.050
1588,-0.010,0.050
1589,-0.010,0.110
1590,0.000,0.150
1591,0.060,0.180
1592,0.080,0.110
1593,0.100,0.070
1594,0.080,0.030
1595,0.050,0.050
1596,0.040,0.040
1597,0.000,0.020
1598,0.000,0.000
1599,-0.040,-0.020
1600,-0.080,-0.040
1601,-0.070,-0.030
1602,-0.040,-0.030
1603,-0.040,-0.010
1604,-0.040,-0.020
1605,-0.040,0.060
1606,-0.050,0.060
1607,-0.050,0.030
1608,-0.060,0.040
1609,-0.020,0.100
1610,0.040,0.060
1611,-0.100,0.130
1612,-0.040,0.060
1613,-0.040,0.080
1614,0.000,0.040
1615,0.040,0.010
1616,0.170,-0.010
1617,0.230,-0.050
1618,0.420,-0.350
1619,0.850,-0.880
1620,0.420,-1.370
1621,-0.220,-1.100
1622,-0.150,-0.660
1623,-0.110,-0.200
1624,-0.170,-0.050
1625,-0.070,0.120
1626,-0.040,0.170
1627,-0.020,0.160
1628,-0.010,0.200
1629,0.010,0.180
1630,0.000,0.230
1631,-0.010,0.220
1632,0.000,0.230
1633,0.010,0.230
1634,0.030,0.240
1635,0.020,0.240
1636,0.030,0.250
1637,0.030,0.260
1638,0.030,0.290
1639,0.020,0.260
1640,0.050,0.310
1641,0.030,0.290
1642,0.060,0.320
1643,0.050,0.310
1644,0.060,0.370
1645,0.060,0.360
1646,0.070,0.420
1647,0.080,0.420
1648,0.090,0.450
1649,0.120,0.470
1650,0.170,0.470
1651,0.160,0.490
1652,0.220,0.450
1653,0.230,0.470
1654,0.250,0.420
1655,0.320,0.400
1656,0.280,0.310
1657,0.300,0.210
1658,0.210,0.230
1659,0.170,0.200
1660,0.100,0.140
1661,0.070,0.150
1662,0.050,0.170
1663,-0.030,0.160
1664,-0.020,0.170
1665,-0.010,0.090
1666,-0.050,0.100
1667,-0.040,0.210
1668,-0.050,0.080
1669,0.000,0.060
1670,-0.040,0.120
1671,-0.060,0.120
1672,-0.060,0.120
1673,-0.090,0.130
1674,-0.040,0.090
1675,-0.030,0.130
1676,-0.080,0.130
1677,-0.040,0.120
1678,-0.080,0.130
1679,-0.060,0.140
1680,-0.080,0.130
1681,-0.080,0.110
1682,-0.040,0.120
1683,-0.050,0.120
1684,-0.080,0.120
1685,-0.060,0.110
1686,-0.050,0.130
1687,-0.050,0.130
1688,-0.030,0.070
1689,-0.060,0.100
1690,-0.020,0.130
1691,0.020,0.170
1692,0.050,0.170
1693,0.080,0.100
1694,0.050,0.060
1695,0.040,0.060
1696,0.000,0.000
1697,0.000,0.030
1698,-0.040,0.000
1699,-0.070,-0.030
1700,-0.080,-0.030
1701,-0.120,-0.090
1702,-0.100,-0.010
1703,-0.090,-0.040
1704,-0.100,-0.050
1705,-0.130,-0.020
1706,-0.140,0.080
1707,-0.160,0.070
1708,-0.160,0.060
1709,-0.150,0.080
1710,-0.160,0.080
1711,-0.170,0.080
1712,-0.160,0.150
1713,-0.180,0.050
1714,-0.170,0.050
1715,-0.150,0.110
1716,-0.170,0.030
1717,-0.140,-0.020
1718,0.010,-0.060
1719,0.010,-0.120
1720,0.180,-0.430
1721,0.460,-0.880
1722,0.040,-1.420
1723,-0.600,-1.130
1724,-0.400,-0.650
1725,-0.370,-0.200
1726,-0.400,0.020
1727,-0.270,0.080
1728,-0.220,0.160
1729,-0.220,0.170
1730,-0.210,0.220
1731,-0.220,0.210
1732,-0.200,0.210
1733,-0.180,0.220
1734,-0.150,0.160
1735,-0.180,0.240
1736,-0.170,0.180
1737,-0.160,0.160
1738,-0.120,0.230
1739,-0.130,0.250
1740,-0.140,0.230
1741,-0.110,0.220
1742,-0.100,0.260
1743,-0.110,0.270
1744,-0.090,0.260
1745,-0.060,0.270
1746,-0.060,0.290
1747,-0.030,0.310
1748,-0.010,0.310
1749,0.000,0.350
1750,0.020,0.350
1751,0.040,0.350
1752,0.110,0.370
1753,0.120,0.340
1754,0.170,0.350
1755,0.200,0.330
1756,0.230,0.280
1757,0.240,0.220
1758,0.240,0.180
1759,0.180,0.140
1760,0.100,0.150
1761,0.060,0.140
1762,0.060,0.090
1763,-0.010,0.120
1764,-0.010,0.120
1765,-0.010,0.160
1766,-0.070,0.250
1767,-0.020,0.030
1768,-0.060,0.070
1769,-0.030,0.160
1770,-0.050,0.110
1771,-0.060,0.130
1772,-0.070,0.160
1773,-0.040,0.140
1774,-0.030,0.180
1775,-0.070,0.180
1776,-0.080,0.230
1777,-0.090,0.180
1778,-0.100,0.190
1779,-0.090,0.140
1780,-0.070,0.200
1781,-0.070,0.130
1782,-0.080,0.190
1783,-0.100,0.220
1784,-0.030,0.120
1785,-0.080,0.160
1786,-0.060,0.120
1787,-0.010,0.180
1788,-0.180,0.160
1789,0.100,0.160
1790,-0.090,0.220
1791,-0.160,0.230
1792,0.020,0.260
1793,-0.010,0.320
1794,-0.030,0.290
1795,0.040,0.200
1796,0.020,0.180
1797,-0.020,0.180
1798,-0.020,0.130
1799,-0.060,0.140
1800,-0.070,0.100
1801,-0.100,0.070
1802,-0.140,0.060
1803,-0.140,0.060
1804,-0.100,0.060
1805,-0.080,0.030
1806,-0.160,0.110
1807,-0.120,0.080
1808,-0.170,0.150
1809,-0.150,0.110
1810,-0.110,0.160
1811,-0.160,0.080
1812,-0.130,0.170
1813,-0.160,0.170
1814,-0.200,0.190
1815,-0.170,0.120
1816,-0.160,0.170
1817,-0.210,0.110
1818,-0.130,0.060
1819,-0.070,0.020
1820,0.010,-0.070
1821,0.080,-0.300
1822,0.300,-0.750
1823,0.110,-1.390
1824,-0.530,-1.270
1825,-0.480,-0.670
1826,-0.360,-0.310
1827,-0.400,0.010
1828,-0.270,0.070
1829,-0.230,0.200
1830,-0.180,0.190
1831,-0.230,0.190
1832,-0.190,0.240
1833,-0.170,0.200
1834,-0.210,0.130
1835,-0.080,0.120
1836,-0.140,0.200
1837,-0.110,0.200
1838,-0.160,0.190
1839,-0.140,0.170
1840,-0.130,0.160
1841,-0.110,0.180
1842,-0.140,0.100
1843,-0.100,0.150
1844,-0.130,0.180
1845,-0.090,0.170
1846,-0.070,0.130
1847,-0.050,0.210
1848,-0.060,0.190
1849,-0.010,0.250
1850,-0.060,0.210
1851,0.090,0.220
1852,-0.070,0.330
1853,0.180,0.260
1854,-0.030,0.350
1855,0.160,0.250
1856,0.110,0.260
1857,0.210,0.200
1858,0.210,0.130
1859,0.200,0.060
1860,0.090,0.100
1861,0.090,0.040
1862,0.060,-0.030
1863,-0.050,0.080
1864,-0.050,-0.010
1865,-0.090,0.000
1866,-0.070,-0.040
1867,-0.060,0.000
1868,-0.020,0.000
1869,-0.110,-0.070
1870,0.020,-0.110
1871,0.010,-0.190
1872,-0.080,-0.190
1873,-0.370,0.180
1874,-0.600,0.650
1875,-0.960,0.910
1876,-0.950,0.960
1877,-1.130,1.140
1878,-1.340,1.370
1879,-1.290,1.860
1880,-1.370,1.810
1881,-1.270,1.590
1882,-1.040,1.290
1883,-0.710,1.200
1884,-0.480,1.410
1885,-0.570,1.400
1886,-0.400,1.250
1887,-0.270,1.170
1888,-0.320,0.880
1889,-0.090,0.240
1890,0.250,-0.020
1891,0.060,-0.140
1892,0.200,-0.200
1893,0.290,-0.260
1894,0.300,-0.380
1895,0.340,-0.420
1896,0.370,-0.480
1897,0.410,-0.480
1898,0.430,-0.530
1899,0.600,-0.640
1900,0.510,-0.610
1901,0.480,-0.630
1902,0.720,-0.780
1903,0.780,-0.890
1904,0.990,-0.970
1905,0.970,-0.910
1906,1.090,-1.050
1907,1.410,-1.150
1908,1.080,-1.030
1909,0.960,-1.060
1910,1.020,-1.100
1911,0.940,-1.120
1912,0.870,-0.990
1913,0.590,-0.910
1914,0.500,-0.840
1915,0.410,-0.750
1916,0.350,-0.660
1917,0.230,-0.470
1918,0.170,-0.360
1919,0.100,-0.350
1920,0.080,-0.220
1921,0.030,-0.170
1922,0.020,-0.140
1923,0.040,-0.130
1924,0.070,-0.090
1925,-0.040,0.020
1926,-0.060,-0.070
1927,0.020,-0.080
1928,0.100,-0.090
1929,-0.130,0.050
1930,-0.030,-0.040
1931,-0.040,-0.070
1932,0.050,-0.100
1933,-0.080,-0.030
1934,-0.070,-0.070
1935,0.030,-0.090
1936,0.070,-0.150
1937,-0.030,-0.070
1938,0.040,-0.120
1939,-0.110,-0.080
1940,0.070,-0.220
1941,0.030,-0.040
1942,-0.120,-0.090
1943,-0.030,-0.140
1944,0.040,-0.190
1945,0.150,-0.130
1946,-0.150,-0.090
1947,-0.020,-0.130
1948,-0.060,-0.130
1949,0.030,-0.160
1950,-0.010,-0.170
1951,-0.040,-0.140
1952,0.040,-0.190
1953,0.060,-0.190
1954,-0.040,-0.130
1955,-0.010,-0.210
1956,0.040,-0.190
1957,0.010,-0.230
1958,0.030,-0.230
1959,-0.020,-0.230
1960,0.090,-0.180
1961,-0.130,-0.230
1962,0.110,-0.250
1963,-0.110,-0.110
1964,-0.050,-0.230
1965,-0.060,-0.180
1966,-0.050,-0.200
1967,-0.020,-0.250
1968,-0.110,-0.160
1969,-0.050,-0.180
1970,-0.010,-0.220
1971,-0.060,-0.230
1972,0.030,-0.240
1973,-0.030,-0.190
1974,-0.060,-0.210
1975,0.020,-0.320
1976,-0.070,-0.120
1977,-0.060,-0.260
1978,-0.060,-0.220
1979,0.030,-0.260
1980,-0.060,-0.240
1981,-0.030,-0.260
1982,0.080,-0.210
1983,-0.170,-0.170
1984,-0.080,-0.180
1985,-0.040,-0.260
1986,0.000,-0.180
1987,-0.050,-0.170
1988,-0.030,-0.200
1989,-0.070,-0.180
1990,0.000,-0.180
1991,0.000,-0.120
1992,0.010,-0.080
1993,0.070,-0.060
1994,0.050,-0.150
1995,0.080,-0.140
1996,0.090,-0.170
1997,-0.010,-0.160
1998,0.100,-0.210
1999,-0.010,-0.200
2000,-0.030,-0.190
2001,-0.060,-0.210
2002,-0.040,-0.250
2003,-0.110,-0.200
2004,-0.040,-0.240
2005,-0.020,-0.230
2006,-0.080,-0.230
2007,-0.010,-0.170
2008,-0.110,-0.140
2009,-0.040,-0.160
2010,-0.030,-0.150
2011,-0.090,-0.130
2012,-0.070,-0.140
2013,-0.050,-0.170
2014,-0.050,-0.160
2015,-0.090,-0.150
2016,-0.090,-0.210
2017,0.010,-0.280
2018,0.140,-0.400
2019,0.280,-0.380
2020,0.450,-0.630
2021,0.850,-0.800
2022,0.210,-0.940
2023,-0.430,-1.130
2024,-0.450,-0.900
2025,-0.420,-0.670
2026,-0.390,-0.320
2027,-0.180,-0.220
2028,-0.120,-0.180
2029,-0.100,-0.170
2030,-0.100,-0.120
2031,-0.090,-0.160
2032,-0.050,-0.060
2033,-0.070,-0.100
2034,-0.070,-0.070
2035,-0.080,-0.090
2036,-0.070,-0.080
2037,-0.010,-0.070
2038,-0.090,-0.050
2039,-0.050,-0.070
2040,-0.040,-0.050
2041,-0.040,-0.070
2042,-0.070,-0.020
2043,0.020,-0.070
2044,-0.050,0.020
2045,-0.060,0.080
2046,-0.020,0.040
2047,-0.070,0.020
2048,0.080,0.030
2049,-0.010,0.120
2050,-0.010,0.150
2051,0.020,0.110
2052,0.090,0.100
2053,0.110,0.130
2054,0.100,0.100
2055,0.140,0.070
2056,0.190,0.030
2057,0.170,0.020
2058,0.200,-0.050
2059,0.190,-0.070
2060,0.180,-0.090
2061,0.170,-0.110
2062,0.130,-0.130
2063,0.020,-0.070
2064,0.050,-0.100
2065,0.030,-0.090
2066,0.000,-0.110
2067,0.010,-0.100
2068,-0.010,-0.080
2069,-0.010,-0.070
2070,-0.050,-0.080
2071,-0.030,-0.110
2072,-0.030,-0.100
2073,-0.030,-0.080
2074,-0.030,-0.060
2075,-0.050,-0.070
2076,0.000,-0.060
2077,-0.010,-0.070
2078,0.000,-0.110
2079,0.000,-0.060
2080,0.050,-0.120
2081,0.090,-0.060
2082,-0.010,0.000
2083,-0.040,-0.040
2084,0.040,-0.060
2085,0.020,-0.030
2086,0.060,-0.060
2087,0.050,-0.060
2088,0.070,-0.060
2089,0.070,-0.060
2090,0.070,-0.040
2091,0.080,-0.080
2092,0.080,-0.040
2093,0.130,0.020
2094,0.120,0.030
2095,0.180,0.010
2096,0.210,-0.020
2097,0.180,-0.060
2098,0.100,-0.020
2099,0.060,-0.060
2100,0.050,-0.030
2101,0.040,-0.090
2102,0.000,-0.090
2103,-0.030,-0.170
2104,-0.020,-0.140
2105,-0.020,-0.120
2106,-0.020,-0.130
2107,0.000,-0.130
2108,0.020,-0.080
2109,-0.030,-0.030
2110,-0.040,-0.040
2111,-0.050,-0.040
2112,-0.030,-0.040
2113,-0.040,-0.030
2114,-0.040,-0.040
2115,-0.030,-0.070
2116,0.020,-0.020
2117,-0.100,-0.040
2118,0.020,-0.110
2119,0.000,-0.080
2120,0.150,-0.110
2121,0.150,-0.150
2122,0.370,-0.350
2123,0.670,-0.620
2124,0.710,-1.260
2125,0.070,-1.450
2126,-0.330,-0.880
2127,-0.150,-0.390
2128,-0.180,-0.180
2129,-0.150,-0.030
2130,-0.090,0.020
2131,-0.080,0.050
2132,-0.060,0.040
2133,-0.050,0.080
2134,-0.050,0.050
2135,-0.050,0.070
2136,-0.040,0.050
2137,-0.050,0.070
2138,-0.030,0.080
2139,-0.030,0.070
2140,-0.020,0.070
2141,-0.010,0.040
2142,-0.020,0.120
2143,0.020,0.050
2144,-0.020,0.110
2145,0.010,0.080
2146,0.030,0.090
2147,0.040,0.160
2148,-0.030,0.160
2149,0.000,0.210
2150,-0.050,0.230
2151,0.020,0.250
2152,0.010,0.250
2153,0.040,0.290
2154,0.080,0.270
2155,0.100,0.270
2156,0.120,0.290
2157,0.180,0.250
2158,0.200,0.180
2159,0.230,0.150
2160,0.220,0.090
2161,0.170,0.030
2162,0.130,0.000
2163,0.070,-0.010
2164,0.050,-0.010
2165,0.010,-0.030
2166,0.000,-0.030
2167,0.000,-0.050
2168,0.000,-0.030
2169,-0.010,-0.040
2170,0.000,-0.040
2171,-0.030,-0.040
2172,-0.020,-0.010
2173,-0.030,-0.020
2174,-0.010,-0.010
2175,0.020,-0.030
2176,-0.030,-0.020
2177,-0.010,0.000
2178,0.030,-0.040
2179,-0.050,0.000
2180,-0.030,0.010
2181,0.030,-0.040
2182,0.020,0.010
2183,-0.030,0.030
2184,0.000,0.020
2185,0.080,0.000
2186,-0.030,0.010
2187,0.020,-0.010
2188,0.050,-0.020
2189,0.050,-0.030
2190,0.080,-0.030
2191,0.090,-0.040
2192,0.090,-0.050
2193,0.050,-0.010
2194,0.080,-0.080
2195,0.090,0.050
2196,0.100,0.080
2197,0.110,0.010
2198,0.180,-0.030
2199,0.130,-0.070
2200,0.040,-0.060
2201,0.080,-0.090
2202,0.030,-0.110
2203,0.050,-0.110
2204,-0.040,-0.110
2205,-0.070,-0.160
2206,0.000,-0.160
2207,-0.090,-0.150
2208,-0.070,-0.150
2209,-0.080,-0.150
2210,-0.040,-0.100
2211,-0.090,-0.040
2212,-0.060,-0.120
2213,-0.070,-0.160
2214,-0.060,-0.110
2215,-0.070,-0.110
2216,-0.020,-0.130
2217,-0.100,-0.120
2218,-0.130,-0.140
2219,-0.030,-0.130
2220,-0.040,-0.170
2221,-0.020,-0.220
2222,0.150,-0.290
2223,0.210,-0.300
2224,0.370,-0.560
2225,0.840,-1.030
2226,0.200,-1.300
2227,-0.440,-1.140
2228,-0.530,-0.800
2229,-0.460,-0.440
2230,-0.460,-0.200
2231,-0.250,-0.100
2232,-0.200,-0.040
2233,-0.180,0.060
2234,-0.190,-0.030
2235,-0.100,0.030
2236,-0.190,-0.040
2237,-0.130,-0.070
2238,-0.150,0.000
2239,-0.130,-0.030
2240,-0.140,-0.030
2241,-0.140,-0.020
2242,-0.110,-0.010
2243,-0.170,-0.030
2244,-0.120,-0.010
2245,-0.060,0.020
2246,-0.210,0.060
2247,-0.160,0.090
2248,-0.180,0.070
2249,-0.140,0.080
2250,-0.160,0.110
2251,-0.140,0.100
2252,-0.120,0.140
2253,-0.120,0.160
2254,-0.090,0.210
2255,-0.060,0.210
2256,-0.020,0.190
2257,-0.010,0.180
2258,0.070,0.170
2259,0.050,0.160
2260,0.120,0.120
2261,0.100,0.080
2262,0.100,0.040
2263,0.040,-0.010
2264,-0.020,-0.010
2265,-0.050,-0.030
2266,-0.070,-0.040
2267,-0.110,-0.050
2268,-0.120,-0.050
2269,-0.100,-0.050
2270,-0.110,-0.040
2271,-0.080,-0.070
2272,-0.030,-0.090
2273,-0.030,-0.150
2274,-0.010,-0.250
2275,-0.380,-0.070
2276,-0.810,0.140
2277,-1.270,0.550
2278,-1.390,0.560
2279,-1.540,0.770
2280,-1.650,0.890
2281,-1.720,1.190
2282,-1.790,1.480
2283,-1.860,1.380
2284,-1.530,1.300
2285,-1.130,1.050
2286,-0.750,1.180
2287,-0.640,1.360
2288,-0.580,1.180
2289,-0.440,1.140
2290,-0.340,0.940
2291,-0.290,0.330
2292,-0.100,-0.060
2293,0.000,-0.180
2294,0.050,-0.260
2295,0.120,-0.190
2296,0.220,-0.150
2297,0.150,-0.180
2298,0.300,-0.320
2299,0.270,-0.300
2300,0.290,-0.370
2301,0.340,-0.440
2302,0.430,-0.450
2303,0.430,-0.540
2304,0.550,-0.590
2305,0.590,-0.650
2306,0.700,-0.680
2307,0.820,-0.770
2308,0.880,-0.840
2309,1.010,-0.840
2310,1.100,-0.920
2311,1.080,-0.880
2312,0.970,-0.940
2313,0.920,-0.930
2314,0.770,-0.890
2315,0.590,-0.860
2316,0.480,-0.800
2317,0.370,-0.700
2318,0.220,-0.590
2319,0.100,-0.500
2320,0.030,-0.370
2321,-0.010,-0.320
2322,-0.120,-0.210
2323,-0.150,-0.140
2324,-0.150,-0.170
2325,-0.230,-0.060
2326,-0.200,-0.060
2327,-0.230,-0.070
2328,-0.250,-0.050
2329,-0.210,-0.060
2330,-0.270,-0.030
2331,-0.200,-0.050
2332,-0.240,-0.060
2333,-0.280,-0.040
2334,-0.160,-0.040
2335,-0.280,-0.070
2336,-0.190,-0.090
2337,-0.260,-0.070
2338,-0.220,-0.090
2339,-0.210,-0.110
2340,-0.210,-0.090
2341,-0.280,-0.120
2342,-0.160,-0.120
2343,-0.210,-0.150
2344,-0.220,-0.150
2345,-0.220,-0.140
2346,-0.200,-0.150
2347,-0.210,-0.140
2348,-0.210,-0.150
2349,-0.220,-0.150
2350,-0.210,-0.140
2351,-0.240,-0.180
2352,-0.190,-0.160
2353,-0.270,-0.150
2354,-0.150,-0.170
2355,-0.250,-0.140
2356,-0.230,-0.160
2357,-0.200,-0.140
2358,-0.250,-0.110
2359,-0.290,-0.100
2360,-0.230,-0.130
2361,-0.230,-0.130
2362,-0.230,-0.140
2363,-0.220,-0.120
2364,-0.210,-0.140
2365,-0.230,-0.140
2366,-0.210,-0.130
2367,-0.220,-0.140
2368,-0.200,-0.110
2369,-0.210,-0.130
2370,-0.210,-0.110
2371,-0.210,-0.110
2372,-0.210,-0.120
2373,-0.210,-0.110
2374,-0.200,-0.110
2375,-0.190,-0.150
2376,-0.220,-0.090
2377,-0.180,-0.130
2378,-0.220,-0.080
2379,-0.210,-0.110
2380,-0.210,-0.090
2381,-0.200,-0.120
2382,-0.210,-0.110
2383,-0.230,-0.100
2384,-0.190,-0.120
2385,-0.230,-0.150
2386,-0.110,-0.150
2387,-0.250,-0.120
2388,-0.090,-0.160
2389,-0.180,-0.100
2390,-0.220,-0.130
2391,-0.220,-0.080
2392,-0.210,-0.070
2393,-0.260,-0.030
2394,-0.240,-0.100
2395,-0.160,-0.040
2396,-0.140,-0.010
2397,-0.120,-0.030
2398,-0.070,-0.070
2399,-0.080,-0.110
2400,-0.140,-0.090
2401,-0.150,-0.130
2402,-0.190,-0.070
2403,-0.200,-0.130
2404,-0.250,-0.120
2405,-0.250,-0.140
2406,-0.250,-0.170
2407,-0.210,-0.130
2408,-0.250,-0.130
2409,-0.210,-0.150
2410,-0.210,-0.090
2411,-0.230,-0.040
2412,-0.220,-0.080
2413,-0.210,-0.020
2414,-0.190,-0.090
2415,-0.170,-0.070
2416,-0.200,-0.080
2417,-0.190,-0.070
2418,-0.190,-0.090
2419,-0.150,-0.060
2420,-0.200,-0.110
2421,-0.010,-0.130
2422,0.000,-0.180
2423,0.220,-0.300
2424,0.500,-0.560
2425,0.600,-1.150
2426,-0.040,-1.330
2427,-0.550,-0.920
2428,-0.410,-0.650
2429,-0.460,-0.210
2430,-0.340,-0.080
2431,-0.240,-0.040
2432,-0.250,0.050
2433,-0.210,0.040
2434,-0.210,0.070
2435,-0.200,0.060
2436,-0.210,0.100
2437,-0.220,0.100
2438,-0.180,0.080
2439,-0.200,0.050
2440,-0.190,0.100
2441,-0.180,0.060
2442,-0.180,0.110
2443,-0.180,0.090
2444,-0.220,0.100
2445,-0.180,0.070
2446,-0.160,0.140
2447,-0.250,0.190
2448,-0.200,0.140
2449,-0.180,0.190
2450,-0.240,0.250
2451,-0.170,0.200
2452,-0.210,0.270
2453,-0.170,0.250
2454,-0.120,0.240
2455,-0.120,0.310
2456,-0.070,0.210
2457,-0.040,0.260
2458,0.000,0.220
2459,0.010,0.210
2460,0.040,0.090
2461,0.120,0.120
2462,0.090,0.090
2463,0.090,0.010
2464,0.090,0.110
2465,-0.140,0.130
2466,-0.150,0.110
2467,-0.140,-0.020
2468,-0.120,0.140
2469,-0.150,0.080
2470,-0.110,-0.020
2471,-0.130,-0.020
2472,-0.110,0.040
2473,-0.170,0.030
2474,-0.080,0.030
2475,-0.160,0.060
2476,-0.140,0.030
2477,-0.120,0.010
2478,-0.150,0.010
2479,-0.130,0.100
2480,-0.150,0.060
2481,-0.090,0.050
2482,-0.160,0.060
2483,-0.120,0.080
2484,-0.120,0.050
2485,-0.140,0.070
2486,-0.110,0.080
2487,-0.190,0.080
2488,-0.100,0.040
2489,-0.160,0.100
2490,-0.150,0.100
2491,-0.140,0.130
2492,-0.130,0.130
2493,-0.150,-0.050
2494,-0.060,0.020
2495,-0.090,0.240
2496,-0.160,0.170
2497,-0.030,0.090
2498,-0.030,0.050
2499,-0.020,0.030
2500,-0.080,0.040
2501,-0.070,0.010
2502,-0.090,0.000
2503,-0.100,0.010
2504,-0.140,0.000
2505,-0.160,-0.040
2506,-0.170,-0.080
2507,-0.130,-0.040
2508,-0.160,0.060
2509,-0.110,0.020
2510,-0.110,-0.070
2511,-0.190,0.010
2512,-0.230,-0.020
2513,-0.060,-0.010
2514,-0.130,0.090
2515,-0.280,0.070
2516,-0.180,0.080
2517,-0.150,0.070
2518,-0.180,0.100
2519,-0.220,0.090
2520,-0.140,0.020
2521,-0.180,0.040
2522,-0.020,-0.070
2523,0.060,-0.080
2524,0.210,-0.180
2525,0.460,-0.480
2526,0.570,-0.970
2527,-0.070,-1.140
2528,-0.510,-0.810
2529,-0.320,-0.600
2530,-0.360,0.000
2531,-0.370,0.030
2532,-0.130,0.030
2533,-0.100,0.080
2534,-0.180,0.270
2535,-0.340,0.260
2536,-0.200,0.190
2537,-0.200,0.210
2538,-0.130,0.200
2539,-0.160,0.210
2540,-0.150,0.220
2541,-0.130,0.200
2542,-0.140,0.220
2543,-0.130,0.240
2544,-0.090,0.210
2545,-0.140,0.250
2546,-0.140,0.250
2547,-0.080,0.240
2548,-0.150,0.380
2549,-0.120,0.310
2550,-0.150,0.360
2551,-0.090,0.300
2552,-0.090,0.350
2553,-0.060,0.370
2554,-0.050,0.350
2555,0.010,0.290
2556,0.010,0.350
2557,0.100,0.330
2558,0.070,0.240
2559,0.290,0.230
2560,0.310,0.230
2561,0.140,0.290
2562,0.130,0.210
2563,0.080,0.180
2564,0.090,0.130
2565,0.070,0.110
2566,0.020,0.090
2567,-0.010,0.090
2568,-0.020,0.090
2569,0.000,0.080
2570,-0.030,0.080
2571,-0.010,0.040
2572,0.070,0.030
2573,0.030,0.070
2574,0.150,-0.210
2575,-0.150,0.140
2576,-0.570,0.300
2577,-0.910,0.580
2578,-1.090,0.660
2579,-1.260,0.910
2580,-1.450,1.000
2581,-1.490,1.300
2582,-1.530,1.600
2583,-1.680,1.560
2584,-1.370,1.420
2585,-1.030,1.160
2586,-0.650,1.300
2587,-0.510,1.390
2588,-0.500,1.380
2589,-0.340,1.260
2590,-0.310,1.090
2591,-0.120,0.450
2592,-0.030,0.090
2593,0.120,-0.070
2594,0.200,-0.040
2595,0.070,-0.370
2596,0.520,-0.250
2597,0.330,-0.190
2598,0.350,-0.220
2599,0.380,-0.300
2600,0.430,-0.390
2601,0.490,-0.370
2602,0.540,-0.460
2603,0.630,-0.480
2604,0.620,-0.460
2605,0.770,-0.570
2606,0.830,-0.660
2607,0.920,-0.700
2608,1.090,-0.750
2609,1.130,-0.860
2610,1.170,-0.850
2611,1.190,-0.890
2612,1.120,-0.900
2613,1.080,-0.820
2614,0.890,-0.810
2615,0.620,-0.750
2616,0.590,-0.720
2617,0.520,-0.630
2618,0.270,-0.470
2619,0.220,-0.380
2620,0.150,-0.270
2621,0.060,-0.200
2622,0.060,-0.130
2623,-0.010,-0.030
2624,-0.030,0.030
2625,-0.040,0.030
2626,-0.070,0.070
2627,-0.060,0.080
2628,-0.070,0.140
2629,-0.070,0.110
2630,-0.070,0.140
2631,-0.010,0.090
2632,-0.130,0.140
2633,-0.070,0.080
2634,-0.060,0.000
2635,-0.030,0.030
2636,0.220,0.050
2637,-0.170,0.210
2638,-0.130,0.120
2639,-0.090,0.100
2640,-0.060,0.130
2641,-0.060,0.120
2642,-0.030,0.070
2643,-0.040,0.120
2644,0.000,0.100
2645,-0.060,0.090
2646,-0.050,0.100
2647,-0.040,0.100
2648,-0.030,0.110
2649,-0.050,0.090
2650,-0.010,0.080
2651,-0.020,0.130
2652,-0.070,0.150
2653,-0.030,0.060
2654,-0.030,0.200
2655,-0.090,0.120
2656,-0.020,0.050
2657,-0.010,0.330
2658,-0.020,-0.040
2659,0.010,0.030
2660,0.010,-0.030
2661,-0.020,0.020
2662,0.010,0.050
2663,-0.010,0.070
2664,0.000,0.060
2665,-0.010,0.070
2666,-0.010,0.080
2667,-0.010,0.060
2668,0.000,0.060
2669,0.010,0.040
2670,-0.030,0.050
2671,0.050,0.040
2672,-0.030,0.080
2673,-0.030,0.050
2674,0.020,0.020
2675,0.010,0.030
2676,-0.010,0.040
2677,-0.020,0.040
2678,0.020,0.040
2679,-0.010,0.010
2680,0.000,0.010
2681,0.050,0.010
2682,0.010,0.020
2683,0.010,0.000
2684,0.010,0.320
2685,0.060,-0.180
2686,-0.020,-0.030
2687,0.100,0.110
2688,0.090,-0.210
2689,0.000,-0.140
2690,0.110,-0.150
2691,0.070,-0.060
2692,-0.080,0.020
2693,-0.030,0.020
2694,-0.050,0.000
2695,0.000,-0.010
2696,-0.030,0.010
2697,0.010,0.090
2698,0.040,0.140
2699,0.070,0.100
2700,0.100,0.080
2701,0.060,0.060
2702,0.040,0.040
2703,-0.010,0.000
2704,0.000,0.020
2705,-0.030,0.010
2706,-0.040,0.000
2707,-0.100,-0.020
2708,-0.160,-0.110
2709,0.030,-0.020
2710,-0.140,0.050
2711,-0.150,0.050
2712,-0.140,0.080
2713,-0.210,0.170
2714,-0.180,0.230
2715,-0.190,0.040
2716,-0.170,0.180
2717,-0.200,0.460
2718,-0.190,-0.120
2719,-0.120,-0.070
2720,-0.110,-0.030
2721,-0.100,0.010
2722,-0.090,-0.020
2723,0.030,-0.060
2724,0.120,-0.090
2725,0.350,-0.230
2726,0.510,-0.500
2727,0.710,-1.140
2728,0.070,-1.300
2729,-0.410,-0.830
2730,-0.300,-0.510
2731,-0.250,-0.140
2732,-0.240,0.020
2733,-0.090,0.050
2734,-0.090,0.140
2735,-0.070,0.130
2736,-0.100,0.150
2737,-0.020,0.200
2738,-0.020,0.130
2739,-0.100,0.180
2740,-0.010,0.160
2741,-0.030,0.230
2742,-0.050,0.210
2743,-0.070,0.210
2744,-0.030,0.290
2745,-0.020,0.440
2746,-0.050,0.260
2747,-0.030,0.260
2748,-0.010,0.250
2749,0.000,0.170
2750,0.000,0.210
2751,0.000,0.280
2752,-0.010,0.330
2753,0.000,0.340
2754,0.000,0.370
2755,0.010,0.390
2756,0.030,0.420
2757,0.040,0.440
2758,0.060,0.430
2759,0.110,0.420
2760,0.120,0.430
2761,0.150,0.370
2762,0.200,0.370
2763,0.200,0.300
2764,0.230,0.220
2765,0.190,0.240
2766,0.140,0.180
2767,0.120,0.140
2768,0.060,0.140
2769,0.070,0.150
2770,0.050,0.110
2771,0.030,0.130
2772,0.000,0.190
2773,0.000,0.080
2774,-0.030,0.715
2775,-0.110,0.075
2776,0.250,0.020
2777,-0.050,0.070
2778,0.020,-0.030
2779,0.060,0.020
2780,0.060,0.080
2781,0.010,0.090
2782,0.030,0.090
2783,0.020,0.140
2784,0.030,0.110
2785,0.010,0.140
2786,0.050,0.130
2787,0.050,0.070
2788,0.030,0.170
2789,0.050,0.090
2790,0.010,0.070
2791,0.100,0.040
2792,0.080,0.120
2793,0.020,0.170
2794,-0.070,0.100
2795,0.050,0.100
2796,0.030,0.100
2797,0.050,0.180
2798,0.080,0.190
2799,0.110,0.160
2800,0.140,0.150
2801,0.070,0.180
2802,0.040,0.030
2803,0.140,0.220
2804,0.060,-0.110
2805,0.060,-0.020
2806,0.070,-0.170
2807,0.030,-0.100
2808,-0.020,-0.210
2809,0.120,-0.090
2810,-0.040,-0.090
2811,0.040,-0.110
2812,0.010,-0.020
2813,0.010,0.050
2814,-0.110,0.090
2815,-0.040,0.040
2816,-0.020,0.070
2817,-0.050,0.060
2818,0.010,0.060
2819,0.030,0.050
2820,0.000,0.060
2821,0.000,0.070
2822,0.020,0.040
2823,0.020,0.010
2824,0.110,-0.020
2825,0.150,-0.060
2826,0.220,-0.140
2827,0.410,-0.360
2828,0.680,-1.000
2829,0.040,-1.150
2830,-0.390,-0.910
2831,-0.220,-0.580
2832,-0.140,-0.200
2833,-0.230,0.040
2834,-0.060,0.110
2835,0.010,0.120
2836,-0.050,0.210
2837,-0.030,0.210
2838,-0.040,0.220
2839,-0.010,0.210
2840,-0.010,0.250
2841,-0.010,0.240
2842,0.020,0.240
2843,-0.010,0.250
2844,-0.020,0.260
2845,0.020,0.210
2846,-0.030,0.300
2847,-0.010,0.270
2848,0.040,0.240
2849,-0.030,0.310
2850,-0.010,0.320
2851,0.000,0.300
2852,0.010,0.350
2853,0.000,0.360
2854,0.010,0.340
2855,0.000,0.510
2856,0.040,0.360
2857,0.100,0.360
2858,0.110,0.360
2859,0.170,0.270
2860,0.190,0.260
2861,0.210,0.310
2862,0.220,0.290
2863,0.250,0.210
2864,0.240,0.140
2865,0.290,0.160
2866,0.070,0.170
2867,0.090,0.180
2868,0.030,0.110
2869,0.010,0.090
2870,0.050,0.120
2871,-0.030,0.100
2872,0.020,0.100
2873,0.010,0.020
2874,0.020,0.090
2875,0.050,0.040
2876,0.020,0.020
2877,-0.050,0.090
2878,0.030,0.050
2879,-0.010,0.100
2880,0.040,0.000
2881,0.120,0.090
2882,-0.070,0.160
2883,-0.130,0.120
2884,-0.030,0.120
2885,-0.090,0.130
2886,0.070,-0.020
2887,-0.120,0.140
2888,-0.010,-0.050
2889,-0.040,-0.010
2890,-0.020,0.020
2891,-0.030,0.010
2892,-0.030,0.010
2893,-0.050,0.020
2894,-0.070,-0.060
2895,0.040,0.020
2896,-0.080,-0.030
2897,-0.020,0.060
2898,0.020,0.020
2899,0.100,0.010
2900,0.100,0.000
2901,-0.020,-0.040
2902,0.020,-0.060
2903,-0.030,-0.050
2904,-0.040,-0.120
2905,-0.050,-0.120
2906,-0.050,-0.090
2907,-0.060,-0.110
2908,-0.170,-0.170
2909,-0.090,-0.100
2910,-0.050,-0.260
2911,-0.070,-0.120
2912,-0.080,-0.340
2913,-0.040,-0.150
2914,-0.030,-0.160
2915,-0.070,-0.140
2916,-0.070,-0.140
2917,-0.070,-0.170
2918,-0.060,-0.150
2919,-0.060,-0.130
2920,-0.060,-0.150
2921,-0.060,-0.130
2922,-0.040,-0.170
2923,-0.070,-0.180
2924,0.070,-0.300
2925,0.150,-0.330
2926,0.260,-0.450
2927,0.320,-0.660
2928,0.920,-0.960
2929,0.280,-1.140
2930,-0.360,-1.310
2931,-0.290,-0.820
2932,-0.640,-0.450
2933,-0.500,-0.190
2934,-0.120,-0.180
2935,-0.200,-0.050
2936,-0.080,-0.070
2937,-0.150,0.000
2938,-0.110,0.020
2939,-0.080,-0.060
2940,-0.090,0.020
2941,-0.080,0.020
2942,-0.080,0.020
2943,-0.040,0.010
2944,-0.040,0.030
2945,-0.060,0.050
2946,-0.040,0.000
2947,-0.100,0.040
2948,-0.060,0.090
2949,-0.080,-0.020
2950,0.100,0.120
2951,-0.150,0.130
2952,-0.110,0.090
2953,-0.030,0.130
2954,-0.040,0.160
2955,-0.020,0.110
2956,0.020,0.130
2957,0.040,0.150
2958,0.050,0.180
2959,0.070,0.220
2960,0.120,0.270
2961,0.130,0.070
2962,0.210,0.100
2963,0.190,0.160
2964,0.200,0.020
2965,0.150,0.070
2966,0.130,0.000
2967,0.070,-0.060
2968,0.040,-0.050
2969,0.000,-0.100
2970,0.130,-0.050
2971,-0.110,0.000
2972,-0.040,-0.060
2973,-0.030,-0.030
2974,-0.050,-0.080
2975,0.050,-0.110
2976,0.060,-0.120
2977,0.120,-0.160
2978,-0.170,0.070
2979,-0.490,0.030
2980,-0.850,0.420
2981,-1.100,0.520
2982,-1.210,0.690
2983,-1.410,0.870
2984,-1.640,1.140
2985,-1.520,1.440
2986,-1.640,1.500
2987,-1.400,1.410
2988,-1.100,1.120
2989,-0.670,1.190
2990,-0.590,1.410
2991,-0.500,1.320
2992,-0.420,1.270
2993,-0.270,1.080
2994,-0.190,0.440
2995,0.170,-0.100
2996,-0.030,-0.210
2997,0.310,-0.290
2998,0.270,-0.150
2999,0.320,-0.170
3000,0.310,-0.220
3001,0.390,-0.300
3002,0.340,-0.350
3003,0.410,-0.380
3004,0.450,-0.440
3005,0.540,-0.520
3006,0.540,-0.530
3007,0.670,-0.540
3008,0.740,-0.640
3009,0.850,-0.750
3010,0.950,-0.760
3011,1.100,-0.910
3012,1.190,-0.900
3013,1.240,-0.940
3014,1.160,-0.930
3015,1.120,-0.930
3016,1.050,-0.970
3017,0.860,-0.910
3018,0.730,-0.870
3019,0.610,-0.840
3020,0.590,-0.720
3021,0.260,-0.560
3022,0.180,-0.480
3023,0.120,-0.410
3024,0.110,-0.310
3025,0.020,-0.200
3026,-0.020,-0.130
3027,-0.040,-0.090
3028,-0.090,-0.060
3029,-0.100,-0.050
3030,-0.080,-0.020
3031,-0.100,-0.040
3032,-0.110,-0.010
3033,-0.110,-0.010
3034,-0.100,0.090
3035,-0.120,0.070
3036,-0.090,-0.050
3037,-0.070,-0.100
3038,-0.070,-0.210
3039,-0.010,-0.020
3040,-0.120,-0.080
3041,-0.050,-0.060
3042,0.000,-0.070
3043,-0.170,-0.020
3044,-0.070,0.020
3045,-0.110,-0.020
3046,-0.100,-0.020
3047,-0.080,-0.040
3048,-0.080,-0.020
3049,-0.090,-0.040
3050,-0.060,-0.040
3051,-0.070,-0.030
3052,-0.070,-0.040
3053,-0.090,-0.050
3054,-0.070,-0.050
3055,-0.100,-0.040
3056,-0.080,-0.030
3057,-0.100,-0.070
3058,-0.080,-0.040
3059,-0.090,-0.030
3060,-0.090,-0.060
3061,-0.090,-0.050
3062,-0.110,-0.020
3063,-0.120,-0.030
3064,-0.110,-0.030
3065,-0.090,-0.050
3066,-0.110,-0.010
3067,-0.090,-0.060
3068,-0.100,-0.010
3069,-0.050,-0.100
3070,-0.130,-0.030
3071,-0.110,-0.050
3072,-0.120,-0.040
3073,-0.120,-0.090
3074,-0.030,-0.120
3075,-0.130,0.000
3076,-0.090,-0.060
3077,-0.140,0.010
3078,-0.160,0.000
3079,-0.100,-0.020
3080,-0.180,-0.020
3081,-0.110,-0.070
3082,-0.130,-0.030
3083,-0.130,0.040
3084,-0.120,-0.010
3085,-0.150,-0.030
3086,-0.190,-0.090
3087,-0.090,-0.070
3088,-0.110,-0.100
3089,-0.140,-0.060
3090,-0.100,-0.060
3091,-0.130,-0.060
3092,-0.130,-0.120
3093,-0.080,-0.070
3094,-0.080,-0.080
3095,-0.110,-0.090
3096,-0.110,-0.080
3097,-0.100,-0.090
3098,-0.090,-0.080
3099,-0.020,-0.010
3100,0.010,-0.010
3101,0.060,-0.060
3102,-0.080,-0.060
3103,-0.080,0.100
3104,-0.090,-0.200
3105,0.010,-0.200
3106,-0.100,0.040
3107,-0.120,-0.310
3108,-0.110,-0.170
3109,-0.080,-0.270
3110,-0.080,-0.200
3111,-0.130,-0.190
3112,-0.070,-0.200
3113,-0.100,-0.140
3114,-0.050,-0.110
3115,-0.140,-0.030
3116,-0.080,-0.120
3117,-0.120,-0.070
3118,-0.140,-0.110
3119,-0.040,-0.030
3120,-0.210,-0.010
3121,-0.190,-0.020
3122,-0.110,-0.030
3123,-0.130,-0.120
3124,0.030,-0.070
3125,0.100,-0.180
3126,0.280,-0.360
3127,0.540,-0.620
3128,0.380,-1.230
3129,-0.260,-1.260
3130,-0.320,-0.870
3131,-0.370,-0.590
3132,-0.420,-0.120
3133,-0.300,-0.130
3134,-0.220,0.050
3135,-0.160,0.050
3136,-0.180,0.090
3137,-0.170,0.090
3138,-0.160,0.110
3139,-0.130,0.100
3140,-0.150,0.140
3141,-0.160,0.110
3142,-0.150,0.150
3143,-0.140,0.130
3144,-0.120,0.140
3145,-0.160,0.130
3146,-0.140,0.140
3147,-0.170,0.230
3148,-0.060,0.070
3149,-0.210,0.370
3150,-0.160,0.240
3151,-0.090,0.080
3152,-0.120,0.230
3153,-0.140,0.180
3154,-0.110,0.240
3155,-0.070,0.240
3156,-0.050,0.300
3157,-0.030,0.280
3158,0.000,0.270
3159,0.050,0.270
3160,0.070,0.260
3161,0.130,0.250
3162,0.150,0.230
3163,0.190,0.160
3164,0.230,0.130
3165,0.230,0.090
3166,0.140,0.090
3167,0.160,-0.010
3168,0.090,0.010
3169,0.030,0.010
3170,0.010,0.010
3171,0.000,0.000
3172,0.000,-0.010
3173,-0.040,-0.010
3174,-0.030,0.000
3175,-0.040,-0.020
3176,-0.030,-0.010
3177,-0.040,-0.060
3178,-0.050,0.060
3179,0.040,-0.100
3180,-0.180,-0.030
3181,0.060,-0.040
3182,-0.140,0.000
3183,-0.130,-0.030
3184,-0.030,-0.050
3185,-0.070,-0.020
3186,-0.070,-0.030
3187,-0.120,0.030
3188,-0.080,-0.050
3189,-0.060,-0.010
3190,-0.080,-0.040
3191,-0.070,-0.050
3192,-0.120,0.000
3193,-0.070,-0.050
3194,0.000,-0.040
3195,-0.120,-0.040
3196,-0.040,0.070
3197,-0.110,0.060
3198,-0.010,0.060
3199,0.070,-0.100
3200,0.070,-0.080
3201,-0.070,-0.120
3202,0.010,-0.130
3203,-0.070,-0.120
3204,-0.040,-0.150
3205,-0.060,-0.130
3206,-0.130,-0.210
3207,-0.160,-0.170
3208,-0.070,-0.200
3209,-0.140,-0.210
3210,-0.100,-0.220
3211,-0.090,-0.150
3212,-0.110,-0.100
3213,-0.120,-0.160
3214,-0.100,-0.100
3215,-0.150,-0.100
3216,-0.080,-0.160
3217,-0.080,-0.130
3218,-0.140,-0.170
3219,-0.120,-0.160
3220,-0.140,-0.140
3221,-0.100,-0.180
3222,-0.110,-0.220
3223,0.060,-0.270
3224,0.120,-0.340
3225,0.320,-0.380
3226,0.380,-0.650
3227,0.660,-0.840
3228,0.020,-0.990
3229,-0.560,-1.160
3230,-0.550,-0.820
3231,-0.490,-0.350
3232,-0.440,-0.120
3233,-0.290,-0.130
3234,-0.160,0.020
3235,-0.110,-0.240
3236,-0.160,-0.030
3237,-0.150,-0.040
3238,-0.130,-0.080
3239,-0.100,0.020
3240,-0.140,0.020
3241,-0.100,-0.030
3242,-0.070,0.020
3243,-0.140,0.020
3244,-0.110,0.080
3245,-0.130,0.030
3246,-0.140,0.080
3247,-0.110,0.030
3248,-0.130,0.110
3249,-0.060,0.060
3250,-0.130,0.130
3251,-0.090,0.120
3252,-0.060,0.110
3253,-0.040,0.160
3254,0.000,0.130
3255,-0.060,0.190
3256,-0.010,0.310
3257,0.000,0.240
3258,0.100,0.150
3259,0.110,0.170
3260,0.140,0.200
3261,0.160,0.150
3262,0.210,-0.010
3263,0.210,-0.030
3264,0.170,0.010
3265,0.110,-0.010
3266,0.080,-0.020
3267,-0.010,0.000
3268,-0.010,0.010
3269,-0.050,-0.040
3270,-0.060,-0.040
3271,-0.060,-0.010
3272,-0.030,-0.050
3273,0.080,-0.050
3274,-0.010,-0.090
3275,0.110,-0.200
3276,-0.230,-0.020
3277,-0.680,0.140
3278,-1.100,0.540
3279,-1.300,0.550
3280,-1.460,0.760
3281,-1.620,0.840
3282,-1.730,1.140
3283,-1.710,1.500
3284,-1.840,1.450
3285,-1.530,1.360
3286,-1.200,1.090
3287,-0.800,1.250
3288,-0.650,1.400
3289,-0.630,1.390
3290,-0.450,1.240
3291,-0.360,1.010
3292,-0.200,0.400
3293,-0.010,-0.090
3294,0.110,-0.220
3295,0.180,-0.280
3296,0.210,-0.340
3297,0.440,-0.250
3298,0.280,-0.150
3299,0.410,-0.280
3300,0.450,-0.300
3301,0.430,-0.370
3302,0.510,-0.420
3303,0.580,-0.490
3304,0.620,-0.510
3305,0.660,-0.520
3306,0.770,-0.590
3307,0.770,-0.610
3308,1.010,-0.820
3309,1.020,-0.750
3310,1.350,-1.060
3311,1.330,-1.090
3312,1.460,-1.040
3313,0.980,-1.010
3314,1.440,-0.970
3315,0.800,-0.740
3316,0.600,-0.770
3317,0.580,-0.740
3318,0.490,-0.670
3319,0.400,-0.590
3320,0.280,-0.490
3321,0.190,-0.360
3322,0.120,-0.300
3323,0.050,-0.180
3324,0.010,-0.180
3325,-0.010,-0.070
3326,-0.040,-0.090
3327,-0.030,-0.030
3328,-0.080,0.010
3329,-0.050,0.060
3330,-0.090,-0.060
3331,-0.090,-0.050
3332,-0.100,0.020
3333,-0.090,0.010
3334,-0.090,0.020
3335,-0.110,-0.010
3336,-0.130,0.070
3337,-0.100,0.060
3338,-0.100,0.040
3339,-0.110,0.050
3340,-0.100,0.220
3341,-0.100,-0.180
3342,-0.030,-0.040
3343,-0.090,0.090
3344,-0.110,-0.090
3345,0.050,-0.060
3346,-0.080,-0.020
3347,-0.110,-0.050
3348,0.020,-0.010
3349,-0.110,0.000
3350,-0.120,0.020
3351,-0.060,-0.040
3352,-0.050,0.000
3353,-0.020,-0.050
3354,-0.080,0.000
3355,-0.060,-0.020
3356,-0.040,-0.020
3357,-0.060,-0.020
3358,-0.050,-0.020
3359,-0.020,-0.060
3360,-0.050,-0.040
3361,-0.030,-0.050
3362,-0.040,-0.030
3363,-0.050,-0.040
3364,-0.060,-0.050
3365,0.000,-0.040
3366,-0.030,0.010
3367,0.000,0.030
3368,-0.100,-0.070
3369,-0.080,0.010
3370,-0.090,-0.010
3371,-0.090,-0.060
3372,-0.040,-0.050
3373,-0.060,-0.030
3374,-0.050,-0.010
3375,-0.040,-0.020
3376,-0.060,-0.070
3377,-0.050,0.020
3378,-0.040,-0.040
3379,-0.050,-0.020
3380,-0.030,-0.040
3381,-0.030,-0.030
3382,-0.060,-0.030
3383,-0.060,-0.080
3384,-0.010,-0.040
3385,-0.050,-0.010
3386,-0.040,0.020
3387,-0.020,-0.070
3388,-0.060,0.040
3389,-0.010,-0.080
3390,-0.070,-0.170
3391,0.150,-0.150
3392,-0.100,-0.020
3393,-0.050,-0.080
3394,0.000,-0.050
3395,-0.080,-0.050
3396,-0.070,-0.080
3397,0.130,-0.020
3398,-0.090,0.110
3399,-0.010,0.040
3400,0.080,-0.010
3401,0.040,-0.040
3402,0.030,-0.060
3403,-0.010,-0.090
3404,-0.010,-0.090
3405,-0.040,-0.120
3406,-0.050,-0.130
3407,-0.100,-0.010
3408,-0.110,-0.190
3409,-0.080,-0.090
3410,-0.120,-0.120
3411,-0.070,-0.150
3412,-0.020,-0.270
3413,-0.090,-0.070
3414,-0.100,-0.090
3415,-0.090,-0.130
3416,-0.060,-0.090
3417,-0.100,-0.070
3418,-0.050,-0.070
3419,-0.120,-0.060
3420,-0.070,-0.030
3421,-0.070,-0.050
3422,-0.110,-0.080
3423,0.030,-0.120
3424,0.120,-0.140
3425,0.220,-0.200
3426,0.460,-0.500
3427,0.930,-1.140
3428,0.290,-1.530
3429,-0.350,-1.030
3430,-0.260,-0.660
3431,-0.280,-0.210
3432,-0.230,-0.060
3433,-0.180,0.050
3434,-0.120,0.100
3435,-0.060,0.090
3436,-0.080,0.010
3437,-0.150,0.080
3438,-0.100,0.130
3439,-0.090,0.100
3440,-0.010,0.100
3441,-0.150,0.070
3442,-0.090,0.060
3443,0.070,0.220
3444,-0.300,0.260
3445,-0.070,0.150
3446,-0.100,0.130
3447,-0.120,0.130
3448,-0.060,0.120
3449,-0.040,0.170
3450,-0.040,0.140
3451,-0.010,0.140
3452,-0.020,0.200
3453,-0.030,0.170
3454,0.010,0.200
3455,0.040,0.200
3456,0.050,0.220
3457,0.060,0.250
3458,0.130,0.240
3459,0.180,0.240
3460,0.200,0.230
3461,0.210,0.200
3462,0.290,0.140
3463,0.270,0.070
3464,0.270,0.030
3465,0.220,-0.070
3466,0.240,-0.050
3467,0.210,-0.080
3468,0.010,-0.050
3469,0.040,-0.050
3470,0.010,-0.080
3471,0.020,0.030
3472,0.010,-0.240
3473,0.010,-0.080
3474,0.010,-0.130
3475,-0.060,0.060
3476,-0.010,-0.090
3477,-0.040,-0.160
3478,-0.060,-0.170
3479,0.060,-0.220
3480,0.050,-0.170
3481,-0.050,-0.300
3482,0.585,-0.180
3483,0.020,-0.110
3484,0.140,-0.040
3485,-0.170,0.110
3486,0.000,0.050
3487,-0.120,0.040
3488,-0.030,0.010
3489,0.010,-0.030
3490,0.030,0.050
3491,0.050,-0.020
3492,0.080,-0.150
3493,0.120,-0.180
3494,0.080,-0.090
3495,0.120,-0.010
3496,0.140,0.030
3497,0.160,-0.060
3498,0.140,-0.080
3499,0.150,-0.110
3500,0.100,-0.100
3501,0.080,-0.120
3502,0.030,-0.120
3503,0.040,-0.140
3504,0.060,-0.210
3505,-0.080,-0.120
3506,0.010,-0.250
3507,0.160,-0.220
3508,-0.030,-0.200
3509,0.030,-0.200
3510,0.020,-0.100
3511,-0.120,-0.150
3512,0.290,-0.140
3513,-0.260,0.060
3514,-0.100,0.000
3515,-0.080,-0.040
3516,-0.020,-0.120
3517,0.030,-0.020
3518,-0.040,0.050
3519,-0.030,-0.040
3520,0.010,-0.230
3521,0.080,-0.190
3522,0.160,-0.270
3523,0.300,-0.270
3524,0.440,-0.410
3525,0.750,-0.710
3526,0.680,-1.300
3527,0.040,-1.390
3528,-0.250,-0.880
3529,-0.130,-0.500
3530,-0.190,-0.140
3531,-0.060,-0.070
3532,-0.030,0.010
3533,0.020,0.020
3534,0.040,-0.080
3535,0.340,-0.010
3536,-0.100,0.090
3537,0.020,0.020
3538,0.160,0.070
3539,0.000,0.160
3540,-0.130,0.160
3541,-0.080,0.130
3542,0.000,0.140
3543,-0.020,0.120
3544,0.010,0.220
3545,-0.030,0.340
3546,0.050,-0.030
3547,0.030,0.080
3548,0.010,0.130
3549,0.060,0.150
3550,0.040,0.200
3551,0.010,0.220
3552,0.060,0.250
3553,0.080,0.280
3554,0.060,0.280
3555,0.100,0.330
3556,0.100,0.320
3557,0.170,0.260
3558,0.190,0.290
3559,0.210,0.240
3560,0.260,0.220
3561,0.300,0.150
3562,0.240,0.170
3563,0.240,0.080
3564,0.130,-0.010
3565,0.290,0.170
3566,-0.030,0.170
3567,0.020,-0.030
3568,0.140,-0.020
3569,0.000,-0.130
3570,0.060,-0.080
3571,-0.020,-0.060
3572,0.110,-0.120
3573,0.130,-0.140
3574,0.260,-0.230
3575,0.000,-0.170
3576,-0.390,0.110
3577,-0.800,0.520
3578,-0.980,0.600
3579,-1.200,0.770
3580,-1.280,0.920
3581,-1.440,1.220
3582,-1.430,1.580
3583,-1.670,1.450
3584,-1.035,1.330
3585,-1.130,1.320
3586,-0.640,1.190
3587,-0.310,1.340
3588,-0.380,1.420
3589,-0.410,1.300
3590,-0.260,1.130
3591,-0.080,0.490
3592,0.090,0.050
3593,0.240,-0.120
3594,0.290,-0.160
3595,0.300,-0.120
3596,0.390,-0.250
3597,0.450,0.070
3598,0.520,-0.410
3599,0.540,-0.150
3600,0.670,-0.600
3601,0.660,-0.550
3602,0.710,-0.560
3603,0.740,-0.580
3604,0.800,-0.590
3605,0.900,-0.640
3606,1.010,-0.830
3607,1.380,-0.910
3608,1.240,-0.760
3609,1.070,-0.810
3610,1.350,-0.880
3611,1.250,-0.860
3612,1.180,-0.890
3613,1.150,-0.870
3614,0.980,-0.870
3615,0.900,-0.810
3616,0.720,-0.730
3617,0.580,-0.630
3618,0.440,-0.540
3619,0.360,-0.410
3620,0.240,-0.300
3621,0.190,-0.210
3622,0.120,-0.120
3623,0.050,-0.070
3624,0.070,0.010
3625,0.000,0.040
3626,-0.010,0.100
3627,-0.030,0.120
3628,-0.020,0.070
3629,-0.080,0.180
3630,-0.050,0.180
3631,-0.030,-0.030
3632,0.010,0.040
3633,-0.030,-0.030
3634,-0.030,-0.020
3635,0.030,-0.020
3636,-0.040,0.040
3637,0.000,0.040
3638,-0.040,0.050
3639,0.000,0.020
3640,-0.050,0.050
3641,-0.020,0.050
3642,-0.030,0.030
3643,-0.050,0.020
3644,-0.040,-0.060
3645,0.070,0.040
3646,-0.050,0.000
3647,-0.020,0.030
3648,-0.210,0.100
3649,0.010,-0.100
3650,0.050,0.100
3651,-0.270,0.180
3652,-0.150,0.060
3653,-0.150,0.100
3654,-0.050,0.050
3655,-0.070,0.110
3656,-0.070,0.190
3657,-0.090,0.000
3658,0.000,-0.040
3659,-0.050,0.060
3660,-0.030,-0.060
3661,0.010,-0.020
3662,-0.010,-0.070
3663,0.050,-0.010
3664,-0.060,0.060
3665,-0.010,0.020
3666,-0.040,0.020
3667,0.180,-0.040
3668,-0.040,0.120
3669,-0.120,0.100
3670,-0.090,0.060
3671,0.000,0.050
3672,0.000,0.070
3673,-0.040,0.110
3674,-0.050,0.100
3675,0.000,0.060
3676,0.020,0.160
3677,-0.030,-0.070
3678,-0.010,0.020
3679,0.020,-0.140
3680,0.050,-0.010
3681,-0.060,0.020
3682,0.000,0.020
3683,-0.010,0.030
3684,-0.020,0.020
3685,-0.010,-0.010
3686,0.010,0.000
3687,0.020,-0.010
3688,0.010,0.090
3689,-0.010,0.010
3690,0.020,-0.050
3691,0.050,-0.120
3692,0.170,0.010
3693,-0.080,0.010
3694,-0.040,0.040
3695,-0.010,0.030
3696,-0.050,0.130
3697,0.090,0.010
3698,0.160,0.070
3699,0.070,0.120
3700,0.090,0.010
3701,0.090,0.090
3702,0.110,-0.190
3703,0.130,-0.100
3704,0.010,-0.030
3705,0.030,-0.100
3706,-0.010,-0.150
3707,-0.010,-0.140
3708,-0.020,-0.110
3709,0.010,-0.100
3710,0.010,-0.100
3711,0.000,-0.100
3712,0.000,-0.040
3713,-0.030,-0.020
3714,-0.010,-0.040
3715,0.020,0.010
3716,-0.050,-0.040
3717,-0.040,0.010
3718,0.000,0.010
3719,-0.010,0.040
3720,-0.030,0.000
3721,0.030,-0.100
3722,0.080,0.010
3723,0.190,-0.080
3724,0.320,-0.250
3725,0.450,-0.480
3726,0.880,-1.120
3727,0.260,-1.650
3728,-0.370,-1.180
3729,0.010,-0.760
3730,-0.160,-0.180
3731,-0.170,-0.020
3732,-0.130,0.010
3733,0.110,0.070
3734,-0.130,0.140
3735,-0.060,0.190
3736,-0.040,0.180
3737,0.010,0.130
3738,-0.110,0.210
3739,-0.030,0.320
3740,0.030,0.090
3741,-0.030,0.400
3742,-0.020,0.040
3743,0.020,0.050
3744,0.040,0.190
3745,-0.020,0.020
3746,0.190,0.190
3747,-0.120,0.260
3748,-0.010,0.160
3749,0.130,0.250
3750,-0.090,0.290
3751,0.120,0.330
3752,-0.070,0.380
3753,0.010,0.370
3754,0.050,0.410
3755,0.090,0.410
3756,0.090,0.430
3757,0.150,0.430
3758,0.160,0.450
3759,0.210,0.440
3760,0.210,0.430
3761,0.300,0.340
3762,0.200,0.310
3763,0.320,0.230
3764,0.230,0.190
3765,0.230,0.130
3766,0.090,0.200
3767,0.110,0.250
3768,0.050,0.120
3769,0.080,-0.040
3770,0.040,0.200
3771,0.010,0.030
3772,0.200,-0.160
3773,0.070,-0.080
3774,0.060,0.020
3775,0.050,0.100
3776,-0.090,0.080
3777,-0.060,0.090
3778,-0.020,0.120
3779,-0.020,0.070
3780,0.020,0.080
3781,0.000,0.070
3782,0.000,0.080
3783,0.010,0.090
3784,0.010,0.120
3785,0.000,0.060
3786,0.040,0.140
3787,-0.010,0.120
3788,0.040,0.070
3789,0.030,0.060
3790,0.020,0.090
3791,0.030,0.110
3792,-0.020,0.060
3793,0.060,0.070
3794,0.020,0.090
3795,0.070,0.160
3796,0.110,0.200
3797,0.140,0.220
3798,0.130,0.170
3799,0.150,0.320
3800,0.130,-0.150
3801,0.100,-0.040
3802,0.310,-0.130
3803,0.110,0.000
3804,-0.030,0.000
3805,0.030,-0.060
3806,0.030,-0.060
3807,0.040,-0.030
3808,0.070,-0.050
3809,0.040,-0.060
3810,0.080,-0.010
3811,0.020,0.050
3812,0.050,0.050
3813,0.030,0.040
3814,0.000,0.050
3815,0.040,0.060
3816,0.020,0.040
3817,0.030,0.040
3818,0.010,0.060
3819,0.040,0.040
3820,0.010,0.050
3821,0.020,-0.030
3822,0.060,0.080
3823,0.160,-0.030
3824,0.280,-0.240
3825,0.430,-0.540
3826,0.860,-1.010
3827,0.220,-1.500
3828,-0.420,-1.250
3829,-0.170,-0.740
3830,-0.200,-0.320
3831,0.100,-0.110
3832,-0.210,0.060
3833,0.190,0.090
3834,-0.180,0.160
3835,0.160,0.130
3836,-0.210,0.260
3837,-0.110,0.220
3838,-0.010,0.170
3839,-0.070,0.300
3840,-0.040,0.180
3841,0.010,0.180
3842,-0.030,0.240
3843,-0.020,0.220
3844,-0.010,0.190
3845,0.010,0.230
3846,-0.020,0.200
3847,0.030,0.210
3848,-0.020,0.190
3849,0.120,0.170
3850,-0.030,0.250
3851,0.000,0.140
3852,0.370,0.310
3853,-0.080,0.360
3854,0.310,0.450
3855,-0.140,0.430
3856,0.070,0.350
3857,0.140,0.370
3858,0.170,0.260
3859,0.260,0.290
3860,0.310,0.250
3861,0.370,0.210
3862,0.310,0.200
3863,0.290,0.050
3864,0.300,0.050
3865,0.180,0.050
3866,0.140,0.040
3867,0.090,0.020
3868,0.090,0.040
3869,0.140,-0.040
3870,0.020,0.060
3871,0.020,0.020
3872,0.070,0.000
3873,0.050,0.040
3874,0.060,0.020
3875,0.050,0.030
3876,0.030,0.050
3877,0.040,0.060
3878,0.030,0.040
3879,0.030,0.050
3880,0.050,0.140
3881,0.000,0.130
3882,0.040,-0.010
3883,0.070,-0.050
3884,0.030,0.310
3885,-0.030,0.010
3886,0.040,-0.010
3887,0.010,0.030
3888,0.020,0.030
3889,0.020,-0.010
3890,0.010,0.080
3891,-0.020,0.040
3892,0.010,0.070
3893,0.030,0.050
3894,0.000,0.050
3895,0.000,0.070
3896,0.020,0.120
3897,0.050,0.160
3898,0.070,0.180
3899,0.110,0.090
3900,0.210,0.080
3901,0.120,0.080
3902,-0.030,0.000
3903,0.250,0.010
3904,-0.030,0.090
3905,-0.040,0.040
3906,-0.020,0.020
3907,-0.030,-0.030
3908,0.000,0.000
3909,0.000,-0.020
3910,0.020,-0.030
3911,0.030,-0.010
3912,-0.040,0.240
3913,0.020,-0.020
3914,-0.020,0.000
3915,-0.010,0.060
3916,-0.010,0.030
3917,0.010,-0.010
3918,-0.030,-0.050
3919,0.140,-0.050
3920,0.060,0.080
3921,-0.150,0.090
3922,-0.040,-0.010
3923,0.160,-0.080
3924,0.110,-0.080
3925,0.170,-0.050
3926,0.210,-0.420
3927,0.750,-0.980
3928,0.110,-1.580
3929,-0.510,-1.250
3930,-0.230,-0.690
3931,-0.240,-0.220
3932,-0.180,-0.030
3933,-0.110,0.240
3934,-0.100,0.040
3935,0.030,0.190
3936,-0.100,0.330
3937,-0.180,0.100
3938,0.030,0.130
3939,0.060,0.220
3940,-0.150,0.180
3941,-0.060,0.210
3942,-0.110,0.140
3943,0.150,0.290
3944,-0.120,0.260
3945,-0.050,0.240
3946,0.020,0.250
3947,-0.010,0.250
3948,0.070,0.280
3949,-0.010,0.310
3950,0.000,0.290
3951,0.060,0.260
3952,0.040,0.320
3953,0.060,0.300
3954,0.080,0.330
3955,0.100,0.310
3956,0.130,0.370
3957,0.120,0.380
3958,0.200,0.340
3959,0.180,0.390
3960,0.240,0.360
3961,0.280,0.310
3962,0.280,0.340
3963,0.300,0.230
3964,0.180,0.280
3965,0.180,0.130
3966,0.170,0.110
3967,0.010,0.110
3968,0.240,0.140
3969,-0.130,0.250
3970,-0.120,0.260
3971,-0.080,0.360
3972,-0.050,0.210
3973,-0.030,0.220
3974,0.080,-0.120
3975,0.110,-0.120
3976,0.140,-0.150
3977,-0.110,0.050
3978,-0.460,0.380
3979,-0.730,0.850
3980,-0.830,0.820
3981,-1.090,1.090
3982,-1.210,1.150
3983,-1.340,1.480
3984,-1.310,1.850
3985,-1.520,1.800
3986,-1.310,1.610
3987,-0.960,1.290
3988,-0.530,1.530
3989,-0.610,1.640
3990,-0.490,1.580
3991,-0.350,1.430
3992,-0.250,1.330
3993,-0.220,0.690
3994,-0.040,0.060
3995,0.120,-0.080
3996,0.240,-0.110
3997,0.290,-0.110
3998,0.380,-0.230
3999,0.370,-0.280
4000,0.410,-0.350
4001,0.420,-0.370
4002,0.420,-0.360
4003,0.510,-0.440
4004,0.550,-0.480
4005,0.560,-0.360
4006,0.750,-0.910
4007,0.870,-0.670
4008,0.990,-0.950
4009,1.050,-0.950
4010,1.130,-1.010
4011,1.240,-0.980
4012,1.290,-1.030
4013,1.250,-1.080
4014,1.200,-1.090
4015,1.080,-1.160
4016,1.030,-1.130
4017,0.960,-1.010
4018,0.630,-0.860
4019,0.580,-0.800
4020,0.440,-0.610
4021,0.160,-0.510
4022,0.270,-0.410
4023,0.100,-0.290
4024,0.080,-0.140
4025,0.030,-0.080
4026,-0.020,0.010
4027,0.010,0.030
4028,-0.050,0.220
4029,-0.020,0.270
4030,-0.110,-0.040
4031,-0.050,0.595
4032,-0.010,-0.045
4033,0.030,-0.140
4034,-0.030,0.000
4035,-0.040,0.000
4036,-0.050,0.050
4037,-0.040,0.050
4038,-0.050,0.060
4039,-0.050,0.050
4040,-0.040,0.020
4041,-0.060,0.040
4042,-0.030,0.070
4043,-0.160,0.090
4044,-0.100,0.020
4045,0.030,0.010
4046,-0.100,0.030
4047,-0.070,0.110
4048,-0.130,0.100
4049,-0.120,0.030
4050,-0.060,0.060
4051,-0.070,0.040
4052,-0.040,0.030
4053,-0.010,0.000
4054,-0.080,0.100
4055,-0.100,0.050
4056,-0.060,-0.010
4057,-0.060,0.030
4058,-0.090,0.080
4059,-0.090,0.080
4060,-0.090,0.050
4061,-0.120,0.090
4062,-0.040,0.060
4063,-0.100,0.090
4064,-0.080,-0.010
4065,-0.070,-0.040
4066,-0.060,0.010
4067,-0.120,0.030
4068,-0.040,0.030
4069,-0.090,0.010
4070,-0.140,0.000
4071,-0.080,-0.080
4072,0.070,-0.060
4073,-0.150,0.050
4074,-0.160,0.020
4075,-0.180,0.000
4076,-0.090,-0.010
4077,-0.080,-0.050
4078,-0.120,-0.070
4079,-0.060,-0.040
4080,-0.120,-0.060
4081,-0.090,-0.080
4082,-0.110,-0.080
4083,-0.130,-0.060
4084,-0.130,-0.070
4085,-0.110,-0.120
4086,-0.130,-0.070
4087,-0.130,-0.140
4088,-0.100,-0.110
4089,-0.140,-0.070
4090,-0.100,-0.090
4091,-0.160,-0.060
4092,-0.140,-0.100
4093,-0.120,-0.120
4094,-0.150,-0.060
4095,-0.050,-0.130
4096,-0.110,0.030
4097,-0.020,-0.140
4098,-0.010,-0.150
4099,-0.100,-0.230
4100,0.010,-0.180
4101,-0.070,-0.120
4102,-0.240,-0.090
4103,-0.230,-0.210
4104,-0.230,-0.200
4105,-0.210,-0.300
4106,-0.210,-0.280
4107,-0.230,-0.290
4108,-0.190,-0.260
4109,-0.190,-0.300
4110,-0.210,-0.190
4111,-0.260,-0.160
4112,-0.250,-0.150
4113,-0.270,0.010
4114,-0.280,-0.180
4115,-0.150,-0.250
4116,-0.220,-0.310
4117,-0.080,-0.200
4118,-0.370,-0.130
4119,-0.070,-0.350
4120,-0.170,-0.240
4121,-0.080,-0.250
4122,-0.110,-0.350
4123,0.120,-0.560
4124,0.470,-0.800
4125,0.040,-1.070
4126,-0.500,-1.140
4127,-0.350,-0.880
4128,-0.420,-0.660
4129,-0.520,-0.280
4130,-0.280,-0.180
4131,-0.260,-0.080
4132,-0.180,-0.040
4133,-0.210,-0.020
4134,-0.170,0.000
4135,-0.170,-0.040
4136,-0.160,0.010
4137,-0.100,0.000
4138,-0.140,0.040
4139,-0.110,-0.020
4140,-0.070,0.010
4141,-0.100,0.030
4142,-0.100,0.020
4143,-0.090,0.020
4144,-0.080,0.080
4145,-0.070,0.030
4146,-0.070,0.080
4147,-0.040,0.050
4148,-0.070,0.220
4149,-0.070,0.230
4150,0.020,-0.040
4151,0.020,-0.070
4152,0.080,0.020
4153,0.010,0.050
4154,0.130,0.080
4155,0.040,0.160
4156,0.100,0.080
4157,0.150,0.080
4158,0.230,0.110
4159,0.090,0.110
4160,0.120,0.050
4161,0.200,0.030
4162,0.170,-0.010
4163,0.200,-0.050
4164,0.080,-0.040
4165,0.060,-0.080
4166,0.050,-0.080
4167,-0.010,-0.080
4168,-0.030,-0.100
4169,-0.030,-0.110
4170,-0.020,-0.100
4171,-0.050,-0.130
4172,-0.040,-0.120
4173,-0.030,-0.170
4174,0.000,-0.120
4175,-0.040,-0.060
4176,-0.130,0.020
4177,-0.130,-0.040
4178,-0.040,-0.200
4179,-0.080,-0.110
4180,-0.030,-0.110
4181,-0.090,-0.090
4182,-0.060,-0.070
4183,-0.090,-0.160
4184,-0.100,-0.110
4185,0.000,-0.120
4186,-0.090,-0.120
4187,-0.110,-0.080
4188,-0.060,-0.130
4189,-0.090,-0.100
4190,-0.070,-0.100
4191,-0.120,-0.100
4192,-0.090,-0.090
4193,-0.070,0.010
4194,-0.090,0.040
4195,-0.020,-0.050
4196,0.050,-0.040
4197,0.020,-0.230
4198,-0.080,-0.160
4199,-0.090,-0.230
4200,-0.080,-0.210
4201,-0.050,-0.250
4202,-0.050,-0.220
4203,-0.170,-0.230
4204,-0.150,-0.300
4205,-0.110,-0.270
4206,-0.120,-0.270
4207,-0.120,-0.240
4208,-0.110,-0.280
4209,-0.120,-0.180
4210,-0.160,-0.120
4211,-0.160,-0.160
4212,-0.140,-0.180
4213,-0.130,-0.160
4214,-0.120,-0.160
4215,-0.120,-0.170
4216,-0.150,-0.140
4217,-0.130,-0.160
4218,-0.130,-0.170
4219,-0.090,-0.250
4220,0.040,-0.260
4221,0.020,-0.240
4222,0.070,-0.320
4223,0.270,-0.540
4224,0.610,-0.670
4225,0.160,-0.990
4226,-0.470,-1.120
4227,-0.300,-1.040
4228,-0.470,-0.720
4229,-0.390,-0.310
4230,-0.180,-0.210
4231,-0.180,-0.110
4232,-0.060,-0.050
4233,-0.110,-0.060
4234,-0.050,0.000
4235,-0.170,-0.110
4236,0.290,0.020
4237,-0.280,0.100
4238,-0.080,0.060
4239,-0.110,0.070
4240,-0.090,0.040
4241,0.000,0.140
4242,-0.140,0.100
4243,-0.090,0.080
4244,-0.030,0.050
4245,-0.090,0.140
4246,-0.040,0.090
4247,-0.040,0.100
4248,-0.020,0.120
4249,-0.010,0.140
4250,-0.020,0.150
4251,-0.010,0.140
4252,0.020,0.200
4253,-0.010,0.250
4254,0.060,0.200
4255,0.060,0.210
4256,0.070,0.250
4257,0.100,0.280
4258,0.140,0.230
4259,0.200,0.130
4260,0.200,-0.050
4261,0.170,-0.010
4262,0.140,0.010
4263,0.030,0.040
4264,0.150,-0.050
4265,-0.040,0.090
4266,-0.060,-0.040
4267,-0.090,0.000
4268,0.000,0.020
4269,-0.040,0.000
4270,-0.010,0.000
4271,0.070,-0.070
4272,0.130,-0.130
4273,0.010,-0.190
4274,-0.320,0.040
4275,-0.720,0.360
4276,-1.000,0.590
4277,-1.250,0.660
4278,-1.390,0.820
4279,-1.520,1.010
4280,-1.640,1.400
4281,-1.470,1.550
4282,-1.510,1.470
4283,-1.310,1.360
4284,-0.870,1.200
4285,-0.530,1.430
4286,-0.590,1.520
4287,-0.470,1.410
4288,-0.270,1.170
4289,-0.200,0.660
4290,-0.060,0.100
4291,0.180,-0.160
4292,0.260,-0.230
4293,0.240,-0.240
4294,0.340,-0.190
4295,0.410,-0.190
4296,0.500,-0.310
4297,0.500,-0.340
4298,0.540,-0.390
4299,0.570,-0.450
4300,0.620,-0.510
4301,0.730,-0.570
4302,0.750,-0.550
4303,0.830,-0.630
4304,0.940,-0.780
4305,1.160,-0.800
4306,1.240,-0.820
4307,1.200,-0.900
4308,1.320,-0.970
4309,1.210,-0.960
4310,1.420,-1.030
4311,1.110,-0.890
4312,0.940,-0.880
4313,0.820,-0.860
4314,0.660,-0.810
4315,0.600,-0.690
4316,0.450,-0.590
4317,0.330,-0.490
4318,0.270,-0.410
4319,0.200,-0.310
4320,0.150,-0.230
4321,0.040,-0.070
4322,0.040,-0.180
4323,0.090,-0.100
4324,-0.020,-0.100
4325,0.410,-0.080
4326,-0.230,0.140
4327,-0.180,0.060
4328,-0.140,0.070
4329,-0.080,-0.030
4330,-0.010,-0.050
4331,-0.080,0.000
4332,-0.030,-0.020
4333,-0.020,-0.020
4334,-0.030,-0.010
4335,-0.060,-0.010
4336,-0.050,-0.030
4337,-0.050,-0.070
4338,-0.080,-0.030
4339,-0.080,-0.030
4340,-0.080,-0.030
4341,-0.070,-0.060
4342,-0.100,-0.040
4343,-0.070,0.010
4344,-0.120,0.020
4345,-0.180,0.120
4346,-0.150,0.110
4347,-0.130,-0.140
4348,-0.180,0.290
4349,-0.170,0.000
4350,-0.100,0.020
4351,-0.120,-0.130
4352,-0.050,-0.230
4353,0.070,-0.160
4354,-0.160,-0.060
4355,-0.040,-0.060
4356,-0.060,0.000
4357,-0.240,-0.060
4358,0.290,-0.120
4359,-0.260,0.150
4360,-0.300,0.090
4361,-0.160,0.040
4362,-0.090,0.010
4363,-0.060,0.000
4364,-0.070,-0.060
4365,-0.040,0.000
4366,-0.040,-0.030
4367,0.010,-0.030
4368,-0.050,-0.040
4369,-0.040,-0.030
4370,-0.050,-0.020
4371,0.010,-0.050
4372,-0.050,-0.050
4373,-0.050,-0.040
4374,-0.060,-0.060
4375,0.050,-0.080
4376,-0.030,0.020
4377,-0.130,-0.050
4378,-0.060,-0.040
4379,0.030,0.020
4380,-0.230,0.170
4381,-0.290,0.150
4382,-0.120,-0.040
4383,-0.170,0.220
4384,-0.160,0.080
4385,-0.060,-0.140
4386,-0.090,-0.040
4387,-0.090,0.010
4388,-0.060,0.000
4389,-0.070,0.010
4390,-0.060,0.030
4391,-0.030,0.010
4392,-0.070,0.020
4393,-0.080,0.010
4394,-0.020,0.030
4395,0.000,0.140
4396,0.000,0.100
4397,0.100,0.060
4398,-0.020,0.000
4399,0.040,0.000
4400,-0.010,-0.040
4401,0.060,-0.070
4402,-0.120,-0.020
4403,-0.070,-0.030
4404,-0.110,-0.060
4405,-0.150,-0.110
4406,-0.050,-0.140
4407,-0.090,-0.040
4408,-0.190,-0.120
4409,-0.160,-0.110
4410,-0.090,-0.160
4411,0.060,-0.080
4412,-0.270,0.130
4413,-0.340,0.070
4414,-0.280,0.090
4415,-0.250,-0.020
4416,-0.220,-0.050
4417,-0.250,-0.090
4418,-0.250,-0.010
4419,-0.210,-0.060
4420,-0.100,-0.170
4421,-0.040,-0.120
4422,0.040,-0.260
4423,0.240,-0.570
4424,0.570,-1.210
4425,-0.070,-1.480
4426,-0.710,-1.030
4427,-0.620,-0.790
4428,-0.560,-0.260
4429,-0.530,-0.160
4430,-0.400,-0.040
4431,-0.340,0.060
4432,-0.300,0.050
4433,-0.320,0.030
4434,-0.250,0.100
4435,-0.370,-0.060
4436,-0.020,0.070
4437,-0.300,0.050
4438,-0.350,-0.010
4439,-0.350,0.090
4440,-0.270,0.070
4441,-0.280,0.040
4442,-0.270,0.050
4443,-0.260,0.080
4444,-0.250,0.060
4445,-0.260,0.060
4446,-0.250,0.110
4447,-0.220,0.080
4448,-0.250,0.120
4449,-0.180,0.090
4450,-0.230,0.180
4451,-0.150,0.100
4452,-0.200,0.210
4453,-0.130,0.100
4454,-0.070,0.080
4455,0.200,0.200
4456,-0.350,0.170
4457,0.220,-0.020
4458,0.300,0.240
4459,-0.270,0.330
4460,-0.130,0.190
4461,0.020,0.070
4462,0.040,0.040
4463,0.020,0.000
4464,-0.020,-0.040
4465,-0.050,0.000
4466,-0.110,-0.080
4467,-0.120,-0.070
4468,-0.100,-0.040
4469,-0.140,-0.050
4470,-0.150,-0.080
4471,-0.140,-0.080
4472,-0.160,-0.060
4473,-0.140,-0.030
4474,-0.160,-0.070
4475,-0.160,-0.090
4476,-0.220,0.000
4477,-0.170,-0.060
4478,-0.190,-0.030
4479,-0.210,-0.010
4480,-0.200,-0.080
4481,-0.200,-0.040
4482,-0.170,-0.030
4483,-0.160,-0.080
4484,-0.190,0.020
4485,-0.150,0.000
4486,-0.230,0.000
4487,-0.220,-0.010
4488,-0.170,0.000
4489,-0.190,-0.040
4490,-0.140,-0.010
4491,-0.180,0.050
4492,-0.100,0.010
4493,-0.030,0.050
4494,-0.050,-0.020
4495,0.000,-0.040
4496,-0.050,-0.050
4497,-0.140,-0.220
4498,0.190,-0.180
4499,0.060,-0.130
4500,-0.310,-0.070
4501,-0.040,-0.170
4502,-0.260,-0.050
4503,-0.300,-0.060
4504,-0.250,-0.020
4505,-0.160,-0.130
4506,-0.140,-0.130
4507,-0.120,-0.040
4508,-0.140,-0.050
4509,-0.170,-0.060
4510,-0.140,-0.040
4511,-0.160,0.000
4512,-0.140,0.050
4513,-0.130,-0.110
4514,-0.130,-0.050
4515,-0.150,-0.040
4516,-0.100,-0.080
4517,-0.170,-0.030
4518,-0.140,-0.120
4519,-0.030,-0.110
4520,0.070,-0.170
4521,0.310,-0.350
4522,0.510,-0.700
4523,0.780,-1.280
4524,0.140,-1.490
4525,-0.500,-0.910
4526,-0.290,-0.450
4527,-0.370,-0.310
4528,-0.290,0.000
4529,-0.220,0.010
4530,-0.180,-0.010
4531,-0.140,-0.040
4532,-0.160,0.070
4533,-0.150,0.000
4534,-0.130,0.050
4535,-0.130,0.080
4536,-0.160,0.110
4537,-0.140,0.120
4538,-0.110,0.060
4539,-0.180,0.130
4540,-0.100,0.110
4541,-0.120,0.140
4542,-0.010,0.110
4543,-0.200,0.280
4544,-0.250,0.240
4545,-0.120,0.140
4546,0.020,0.240
4547,-0.330,0.380
4548,-0.130,0.300
4549,-0.110,0.310
4550,-0.070,0.290
4551,-0.060,0.280
4552,-0.030,0.340
4553,-0.010,0.330
4554,0.030,0.310
4555,0.070,0.280
4556,0.130,0.300
4557,0.150,0.230
4558,0.180,0.170
4559,0.090,0.200
4560,0.130,0.080
4561,0.040,0.100
4562,-0.030,0.040
4563,-0.050,0.100
4564,-0.040,0.020
4565,-0.120,0.070
4566,-0.100,0.070
4567,-0.120,0.130
4568,-0.100,0.180
4569,0.000,0.020
4570,0.010,-0.130
4571,0.060,-0.110
4572,-0.010,-0.230
4573,-0.430,-0.030
4574,-0.700,0.410
4575,-1.090,0.700
4576,-1.250,0.740
4577,-1.320,0.790
4578,-1.430,1.060
4579,-1.510,1.490
4580,-1.590,1.570
4581,-1.520,1.450
4582,-1.300,1.180
4583,-0.670,1.240
4584,-0.640,1.430
4585,-0.640,1.330
4586,-0.400,1.220
4587,-0.330,1.080
4588,-0.180,0.440
4589,-0.040,0.120
4590,0.120,-0.140
4591,0.200,-0.160
4592,0.210,-0.060
4593,0.320,-0.170
4594,0.370,-0.270
4595,0.350,-0.300
4596,0.410,-0.320
4597,0.360,-0.290
4598,0.430,-0.260
4599,0.430,-0.370
4600,0.580,-0.670
4601,0.620,-0.550
4602,0.750,-0.820
4603,0.830,-0.740
4604,0.950,-0.790
4605,1.100,-0.870
4606,1.170,-0.970
4607,1.310,-0.920
4608,1.150,-0.960
4609,1.170,-0.890
4610,0.850,-0.840
4611,0.700,-0.810
4612,0.720,-0.810
4613,0.630,-0.770
4614,0.380,-0.580
4615,0.330,-0.500
4616,0.250,-0.440
4617,0.160,-0.300
4618,0.120,-0.240
4619,0.050,-0.110
4620,-0.010,-0.060
4621,-0.020,-0.020
4622,-0.060,0.000
4623,-0.030,0.030
4624,-0.060,0.040
4625,-0.070,0.040
4626,-0.050,0.010
4627,-0.070,0.070
4628,-0.110,0.090
4629,0.110,-0.060
4630,-0.180,0.140
4631,-0.130,0.020
4632,-0.010,0.050
4633,-0.090,0.140
4634,-0.240,0.070
4635,-0.030,0.070
4636,-0.120,0.100
4637,-0.110,0.050
4638,-0.090,0.020
4639,-0.060,-0.030
4640,-0.060,0.010
4641,-0.060,-0.040
4642,-0.060,0.020
4643,-0.060,0.010
4644,-0.030,0.020
4645,-0.080,0.060
4646,-0.060,-0.040
4647,0.020,0.010
4648,-0.060,0.070
4649,-0.090,-0.010
4650,-0.030,-0.090
4651,-0.030,0.160
4652,-0.250,0.150
4653,-0.150,0.060
4654,-0.120,0.030
4655,-0.050,0.040
4656,-0.100,0.060
4657,-0.060,0.030
4658,-0.070,0.030
4659,-0.060,0.050
4660,-0.060,0.080
4661,-0.080,0.040
4662,-0.060,0.010
4663,-0.070,0.190
4664,-0.040,-0.070
4665,-0.100,0.010
4666,-0.090,0.120
4667,0.010,-0.100
4668,-0.110,0.060
4669,-0.040,-0.070
4670,-0.080,0.050
4671,-0.050,0.010
4672,-0.010,0.010
4673,-0.040,-0.080
4674,0.030,-0.010
4675,-0.080,0.050
4676,-0.160,0.020
4677,0.090,-0.040
4678,-0.070,0.110
4679,-0.180,0.060
4680,-0.150,0.030
4681,-0.080,0.030
4682,-0.130,0.080
4683,-0.100,0.150
4684,-0.080,-0.010
4685,-0.050,0.080
4686,-0.150,-0.010
4687,-0.040,-0.110
4688,-0.060,-0.010
4689,-0.080,-0.030
4690,-0.090,0.040
4691,-0.070,0.090
4692,-0.050,0.140
4693,-0.010,0.090
4694,0.010,0.070
4695,-0.050,0.020
4696,-0.030,0.040
4697,-0.060,-0.010
4698,-0.080,0.020
4699,-0.110,-0.050
4700,-0.020,-0.040
4701,-0.180,-0.090
4702,0.020,-0.140
4703,-0.260,0.060
4704,-0.200,-0.080
4705,-0.160,-0.030
4706,-0.160,0.010
4707,-0.170,0.040
4708,-0.160,0.110
4709,-0.120,-0.050
4710,-0.180,0.060
4711,-0.130,0.040
4712,-0.140,0.010
4713,-0.110,-0.060
4714,-0.090,-0.170
4715,-0.110,-0.070
4716,-0.080,-0.140
4717,0.070,-0.170
4718,0.040,-0.130
4719,0.280,-0.390
4720,0.510,-0.690
4721,0.430,-1.330
4722,-0.210,-1.570
4723,-0.420,-0.960
4724,-0.210,-0.580
4725,-0.370,-0.100
4726,-0.340,-0.030
4727,-0.200,0.050
4728,-0.150,0.040
4729,-0.160,0.130
4730,-0.250,0.140
4731,-0.150,0.070
4732,-0.180,0.140
4733,-0.110,0.120
4734,-0.170,0.210
4735,-0.160,0.340
4736,-0.170,0.250
4737,-0.160,0.470
4738,-0.090,0.140
4739,-0.040,-0.050
4740,-0.160,0.230
4741,-0.110,-0.030
4742,-0.070,0.150
4743,-0.140,0.220
4744,-0.110,0.240
4745,-0.150,0.300
4746,-0.110,0.280
4747,-0.070,0.310
4748,-0.130,0.360
4749,-0.050,0.390
4750,-0.040,0.340
4751,-0.040,0.430
4752,-0.060,0.460
4753,0.000,0.430
4754,0.060,0.340
4755,0.120,0.340
4756,0.140,0.350
4757,0.010,0.340
4758,0.130,0.190
4759,0.210,0.130
4760,-0.110,0.230
4761,-0.020,0.120
4762,-0.040,0.120
4763,-0.090,0.080
4764,-0.060,0.130
4765,-0.110,0.200
4766,-0.150,0.040
4767,-0.110,0.080
4768,-0.110,0.420
4769,-0.070,-0.220
4770,-0.090,0.140
4771,-0.090,-0.050
4772,-0.070,-0.020
4773,-0.050,-0.040
4774,-0.100,0.040
4775,-0.130,0.010
4776,-0.110,0.060
4777,-0.040,0.020
4778,-0.140,0.090
4779,-0.040,-0.050
4780,-0.080,0.070
4781,-0.180,0.080
4782,-0.110,0.050
4783,-0.040,-0.050
4784,-0.180,0.080
4785,-0.080,0.030
4786,-0.110,0.050
4787,-0.100,0.030
4788,-0.110,0.020
4789,-0.070,0.040
4790,-0.060,0.070
4791,-0.040,0.130
4792,0.030,0.130
4793,0.020,0.080
4794,-0.040,0.040
4795,0.000,0.180
4796,0.040,0.130
4797,-0.130,-0.260
4798,-0.010,0.190
4799,-0.110,-0.060
4800,-0.120,-0.230
4801,-0.120,-0.170
4802,-0.030,-0.190
4803,-0.080,-0.060
4804,-0.070,-0.120
4805,-0.080,-0.040
4806,-0.120,-0.020
4807,-0.070,-0.050
4808,-0.040,0.000
4809,-0.150,0.030
4810,-0.080,-0.060
4811,-0.120,0.010
4812,-0.110,0.010
4813,-0.060,0.020
4814,-0.140,0.030
4815,-0.140,0.010
4816,-0.100,0.040
4817,-0.040,-0.070
4818,0.030,-0.120
4819,0.100,-0.190
4820,0.240,-0.500
4821,0.560,-1.090
4822,-0.080,-1.550
4823,-0.590,-1.000
4824,-0.370,-0.770
4825,-0.260,-0.135
4826,-0.220,-0.030
4827,-0.160,-0.240
4828,-0.030,0.090
4829,-0.050,0.050
4830,-0.140,0.140
4831,-0.060,0.130
4832,0.000,0.050
4833,-0.050,0.170
4834,-0.060,0.140
4835,-0.170,0.170
4836,0.050,0.160
4837,-0.130,0.180
4838,-0.100,0.170
4839,-0.060,0.100
4840,0.020,0.220
4841,-0.200,0.190
4842,-0.080,0.530
4843,-0.110,0.150
4844,-0.070,0.090
4845,0.030,0.080
4846,-0.100,0.240
4847,-0.010,0.130
4848,0.020,0.230
4849,0.020,0.210
4850,-0.010,0.310
4851,0.060,0.270
4852,0.100,0.290
4853,0.140,0.270
4854,0.170,0.270
4855,0.210,0.220
4856,0.220,0.170
4857,0.190,0.160
4858,0.130,0.050
4859,0.140,0.040
4860,0.030,0.040
4861,0.090,0.030
4862,-0.010,0.020
4863,0.000,0.020
4864,-0.010,0.050
4865,-0.020,-0.010
4866,-0.050,0.070
4867,-0.030,0.080
4868,-0.030,0.100
4869,-0.050,0.040
4870,0.020,0.030
4871,-0.020,0.020
4872,0.030,-0.150
4873,-0.040,0.120
4874,0.010,-0.180
4875,-0.010,0.040
4876,0.010,-0.010
4877,-0.030,0.040
4878,0.070,-0.010
4879,0.030,0.020
4880,-0.040,0.110
4881,-0.110,0.060
4882,0.050,-0.010
4883,-0.040,0.040
4884,0.030,0.070
4885,-0.050,0.090
4886,-0.030,0.010
4887,0.010,0.090
4888,0.020,0.070
4889,0.020,0.060
4890,0.030,0.170
4891,0.050,0.260
4892,0.110,0.360
4893,0.090,0.030
4894,0.110,-0.230
4895,0.130,-0.010
4896,-0.060,0.070
4897,-0.120,-0.080
4898,0.060,0.000
4899,-0.040,-0.110
4900,-0.040,-0.120
4901,0.000,-0.090
4902,-0.010,-0.090
4903,-0.010,-0.080
4904,0.010,-0.130
4905,-0.030,0.000
4906,-0.010,-0.060
4907,-0.020,-0.020
4908,-0.030,-0.040
4909,-0.060,-0.020
4910,0.030,-0.070
4911,-0.020,-0.060
4912,-0.040,-0.090
4913,-0.040,-0.040
4914,0.030,-0.090
4915,0.020,-0.140
4916,0.010,-0.230
4917,0.240,-0.210
4918,0.100,-0.260
4919,0.370,-0.620
4920,0.620,-1.260
4921,-0.020,-1.680
4922,-0.410,-1.190
4923,-0.270,-1.020
4924,-0.250,-0.385
4925,-0.190,-0.120
4926,-0.110,-0.040
4927,-0.010,-0.110
4928,-0.070,-0.020
4929,0.020,0.000
4930,-0.030,0.040
4931,-0.050,0.120
4932,-0.010,0.080
4933,-0.020,0.120
4934,-0.030,0.180
4935,-0.020,0.150
4936,0.030,0.130
4937,-0.030,0.190
4938,-0.010,0.170
4939,-0.020,0.220
4940,0.000,0.170
4941,-0.090,0.300
4942,0.020,0.220
4943,-0.010,0.220
4944,0.000,0.280
4945,0.120,0.250
4946,-0.040,0.580
4947,0.000,0.290
4948,0.140,0.120
4949,0.050,0.550
4950,0.090,0.260
4951,0.100,0.320
4952,0.210,0.250
4953,0.200,0.300
4954,0.270,0.320
4955,0.280,0.240
4956,0.260,0.210
4957,0.250,0.160
4958,0.250,0.090
4959,0.110,0.060
4960,0.070,0.070
4961,0.080,0.010
4962,0.040,0.060
4963,0.050,0.040
4964,-0.070,0.080
4965,0.040,0.020
4966,0.020,0.050
4967,0.010,-0.030
4968,0.070,-0.060
4969,0.100,-0.110
4970,0.020,-0.180
4971,-0.230,0.220
4972,-0.470,0.440
4973,-0.660,1.050
4974,-0.810,0.950
4975,-0.930,1.110
4976,-1.270,1.320
4977,-1.150,1.810
4978,-1.290,1.870
4979,-1.150,1.670
4980,-1.070,1.480
4981,-0.630,1.360
4982,-0.450,1.570
4983,-0.550,1.520
4984,-0.360,1.510
4985,-0.340,1.370
4986,-0.180,0.730
4987,-0.040,0.170
4988,0.140,-0.070
4989,0.260,-0.130
4990,0.330,-0.260
4991,0.310,-0.320
4992,0.300,-0.430
4993,0.330,-0.450
4994,0.380,-0.480
4995,0.350,-0.520
4996,0.360,-0.600
4997,0.420,-0.550
4998,0.450,-0.600
4999,0.570,-0.750
5000,0.660,-0.880
5001,0.720,-0.920
5002,0.890,-0.910
5003,0.970,-1.060
5004,0.990,-1.050
5005,1.060,-1.080
5006,1.060,-1.140
5007,1.050,-1.130
5008,0.960,-1.110
5009,0.840,-1.090
5010,0.740,-1.040
5011,0.570,-0.970
5012,0.450,-0.820
5013,0.360,-0.750
5014,0.220,-0.580
5015,0.190,-0.510
5016,0.080,-0.370
5017,0.040,-0.270
5018,0.010,-0.110
5019,0.030,-0.140
5020,-0.030,-0.150
5021,-0.090,0.080
5022,-0.020,-0.050
5023,-0.120,0.050
5024,-0.040,-0.020
5025,-0.020,-0.070
5026,-0.040,0.000
5027,-0.020,-0.030
5028,0.010,-0.010
5029,-0.040,0.040
5030,-0.010,0.020
5031,-0.020,-0.010
5032,-0.010,0.020
5033,-0.020,0.010
5034,0.000,0.020
5035,-0.020,0.010
5036,-0.010,0.010
5037,0.030,0.010
5038,-0.030,0.050
5039,-0.040,0.050
5040,-0.040,-0.010
5041,0.040,0.020
5042,-0.020,0.010
5043,0.010,0.020
5044,-0.100,0.030
5045,0.000,0.020
5046,0.040,0.030
5047,-0.100,0.080
5048,-0.040,0.090
5049,-0.070,0.220
5050,-0.010,0.020
5051,-0.010,0.050
5052,0.010,-0.090
5053,-0.010,0.030
5054,0.000,0.040
5055,0.000,-0.020
5056,0.020,-0.010
5057,-0.060,0.090
5058,-0.020,0.030
5059,0.000,0.000
5060,0.050,0.040
5061,-0.050,0.030
5062,-0.020,0.070
5063,-0.030,0.070
5064,-0.050,0.040
5065,0.050,0.050
5066,-0.120,0.080
5067,-0.030,0.060
5068,-0.020,0.070
5069,-0.050,0.250
5070,0.000,-0.050
5071,0.030,-0.060
5072,0.060,0.160
5073,-0.020,-0.110
5074,-0.020,0.020
5075,0.010,0.010
5076,0.040,-0.020
5077,-0.010,-0.030
5078,0.030,0.070
5079,-0.010,-0.080
5080,-0.010,0.160
5081,-0.030,-0.100
5082,0.030,-0.050
5083,-0.040,0.030
5084,-0.010,0.020
5085,0.020,0.010
5086,-0.010,0.000
5087,-0.010,0.100
5088,0.000,0.090
5089,0.060,0.110
5090,0.100,0.090
5091,0.060,0.040
5092,0.060,0.020
5093,-0.010,-0.010
5094,0.020,-0.010
5095,-0.020,-0.020
5096,-0.060,0.030
5097,-0.130,-0.040
5098,0.020,-0.110
5099,-0.070,-0.070
5100,-0.020,-0.140
5101,-0.140,0.040
5102,0.030,-0.180
5103,-0.130,0.110
5104,-0.130,0.050
5105,-0.070,-0.020
5106,-0.020,-0.060
5107,-0.140,0.150
5108,0.010,-0.060
5109,-0.090,-0.030
5110,-0.040,0.080
5111,-0.040,-0.060
5112,-0.060,0.000
5113,0.040,-0.100
5114,0.140,-0.120
5115,0.200,-0.210
5116,0.300,-0.630
5117,0.510,-1.220
5118,-0.130,-1.530
5119,-0.350,-1.190
5120,-0.230,-0.710
5121,-0.250,-0.290
5122,-0.230,-0.050
5123,-0.120,-0.070
5124,-0.080,0.080
5125,-0.110,0.050
5126,0.190,0.090
5127,-0.270,0.250
5128,-0.070,0.110
5129,-0.100,0.160
5130,-0.110,0.210
5131,-0.070,0.190
5132,-0.080,0.120
5133,-0.040,0.140
5134,-0.070,0.160
5135,-0.050,0.200
5136,-0.060,0.220
5137,-0.090,0.210
5138,-0.040,0.190
5139,-0.050,0.140
5140,-0.070,0.160
5141,-0.010,0.200
5142,-0.070,0.310
5143,0.000,0.200
5144,0.030,0.170
5145,-0.050,0.270
5146,-0.100,0.510
5147,0.030,0.200
5148,0.060,0.290
5149,0.090,0.300
5150,0.090,0.330
5151,0.150,0.330
5152,0.170,0.300
5153,0.190,0.170
5154,0.190,0.190
5155,0.090,0.020
5156,0.400,-0.110
5157,-0.090,0.120
5158,-0.050,-0.030
5159,-0.030,-0.050
5160,-0.040,-0.020
5161,0.020,0.080
5162,-0.160,-0.060
5163,-0.110,0.000
5164,-0.090,0.080
5165,-0.060,-0.120
5166,-0.080,0.050
5167,-0.080,0.030
5168,-0.040,-0.030
5169,-0.110,0.010
5170,-0.070,-0.010
5171,-0.110,0.040
5172,-0.090,-0.050
5173,-0.130,0.020
5174,-0.120,0.160
5175,-0.070,-0.060
5176,-0.190,0.050
5177,-0.170,0.060
5178,-0.080,0.140
5179,-0.170,-0.060
5180,-0.140,0.020
5181,-0.120,-0.080
5182,-0.120,0.120
5183,-0.130,0.050
5184,-0.090,-0.030
5185,-0.080,0.090
5186,-0.060,0.130
5187,0.010,0.100
5188,0.010,0.060
5189,0.000,-0.030
5190,-0.060,-0.010
5191,-0.070,-0.080
5192,0.130,-0.100
5193,-0.190,-0.180
5194,0.440,-0.220
5195,-0.200,0.090
5196,-0.230,-0.050
5197,-0.190,-0.100
5198,0.030,-0.160
5199,-0.200,-0.030
5200,-0.160,-0.010
5201,-0.130,-0.020
5202,-0.130,0.020
5203,-0.120,-0.050
5204,-0.090,0.010
5205,-0.070,-0.080
5206,-0.110,-0.050
5207,-0.070,0.130
5208,-0.060,-0.170
5209,-0.050,-0.050
5210,-0.090,-0.110
5211,-0.020,-0.070
5212,0.100,-0.250
5213,0.170,-0.290
5214,0.150,-0.470
5215,0.440,-0.990
5216,0.500,-1.630
5217,-0.140,-1.260
5218,-0.370,-1.050
5219,-0.160,-0.650
5220,-0.220,-0.320
5221,-0.290,-0.050
5222,-0.120,0.290
5223,-0.100,-0.080
5224,-0.110,0.170
5225,-0.030,-0.100
5226,-0.060,0.060
5227,-0.020,0.080
5228,-0.050,-0.100
5229,-0.050,0.090
5230,0.020,0.070
5231,0.040,0.070
5232,-0.020,0.110
5233,0.030,0.090
5234,-0.010,0.140
5235,0.020,0.130
5236,-0.030,0.170
5237,0.000,0.320
5238,-0.060,0.280
5239,0.000,0.090
5240,-0.040,0.090
5241,0.260,0.300
5242,-0.070,0.090
5243,0.080,0.190
5244,0.220,0.240
5245,-0.090,0.340
5246,0.230,0.290
5247,0.040,0.400
5248,0.090,0.350
5249,0.230,0.300
5250,0.300,0.260
5251,0.260,0.210
5252,0.300,0.140
5253,0.180,0.120
5254,0.160,0.070
5255,0.100,0.060
5256,0.060,0.060
5257,0.050,0.060
5258,0.020,0.050
5259,0.010,0.110
5260,0.010,0.060
5261,0.040,-0.040
5262,0.010,-0.030
5263,0.100,-0.080
5264,0.080,-0.220
5265,-0.080,0.170
5266,-0.440,0.805
5267,-0.590,0.820
5268,-0.640,0.980
5269,-0.890,1.250
5270,-1.170,1.450
5271,-1.060,1.900
5272,-1.190,2.020
5273,-1.180,1.910
5274,-1.040,1.630
5275,-0.670,1.340
5276,-0.480,1.630
5277,-0.570,1.670
5278,-0.450,1.630
5279,-0.280,1.470
5280,-0.240,0.830
5281,-0.060,0.190
5282,0.200,-0.210
5283,0.080,-0.160
5284,0.390,-0.230
5285,0.300,-0.430
5286,0.340,-0.460
5287,0.290,-0.490
5288,0.330,-0.500
5289,0.400,-0.670
5290,0.350,-0.460
5291,0.430,-0.780
5292,0.460,-0.700
5293,0.540,-0.890
5294,0.620,-0.940
5295,0.690,-1.010
5296,0.840,-1.130
5297,0.870,-1.230
5298,1.010,-1.150
5299,0.980,-1.250
5300,1.010,-1.270
5301,0.980,-1.240
5302,0.910,-1.420
5303,0.780,-1.140
5304,0.610,-1.320
5305,0.540,-1.140
5306,0.400,-1.090
5307,0.250,-0.910
5308,0.130,-0.740
5309,0.290,-0.680
5310,0.010,-0.440
5311,-0.390,-0.210
5312,-0.130,-0.290
5313,-0.140,-0.340
5314,-0.090,-0.290
5315,-0.110,-0.240
5316,-0.160,-0.170
5317,-0.130,-0.170
5318,-0.160,-0.270
5319,-0.160,0.020
5320,-0.120,-0.300
5321,-0.140,-0.280
5322,-0.170,-0.150
5323,-0.110,-0.240
5324,-0.100,-0.280
5325,-0.140,-0.240
5326,-0.120,-0.230
5327,-0.110,-0.200
5328,-0.130,-0.200
5329,-0.140,-0.240
5330,-0.190,-0.170
5331,-0.120,-0.150
5332,0.010,-0.050
5333,-0.110,-0.530
5334,0.100,-0.280
5335,-0.270,-0.260
5336,0.010,-0.160
5337,-0.260,-0.120
5338,-0.170,-0.070
5339,-0.040,-0.290
5340,-0.090,-0.180
5341,-0.070,-0.150
5342,-0.110,-0.140
5343,-0.120,-0.110
5344,-0.050,-0.090
5345,-0.080,-0.090
5346,-0.100,-0.080
5347,-0.100,-0.090
5348,-0.080,-0.070
5349,-0.090,-0.090
5350,-0.090,-0.090
5351,-0.060,-0.060
5352,-0.070,-0.080
5353,-0.070,-0.100
5354,-0.030,-0.190
5355,0.150,-0.120
5356,-0.250,0.030
5357,-0.050,-0.150
5358,0.220,-0.170
5359,-0.040,0.030
5360,-0.160,-0.020
5361,-0.150,-0.100
5362,-0.050,0.080
5363,-0.010,-0.120
5364,-0.010,-0.160
5365,0.010,-0.180
5366,0.030,0.030
5367,-0.020,-0.240
5368,0.020,-0.140
5369,0.010,-0.110
5370,0.020,-0.110
5371,0.000,-0.080
5372,0.010,-0.090
5373,-0.020,-0.080
5374,0.030,-0.060
5375,0.030,-0.060
5376,0.010,-0.050
5377,-0.030,0.000
5378,0.020,-0.030
5379,0.000,-0.030
5380,0.040,-0.010
5381,-0.010,0.060
5382,0.090,0.090
5383,0.050,0.060
5384,0.240,-0.120
5385,0.100,0.010
5386,0.030,-0.030
5387,-0.030,0.040
5388,0.040,-0.050
5389,0.020,0.020
5390,-0.040,-0.090
5391,-0.070,0.000
5392,-0.060,-0.140
5393,0.010,-0.120
5394,-0.050,-0.040
5395,-0.010,-0.140
5396,0.010,-0.050
5397,-0.020,0.050
5398,-0.060,0.010
5399,0.020,-0.020
5400,0.070,0.050
5401,-0.160,0.110
5402,-0.080,0.100
5403,-0.070,-0.030
5404,0.030,0.070
5405,-0.060,0.030
5406,-0.010,-0.040
5407,0.080,-0.060
5408,0.080,0.160
5409,0.260,-0.460
5410,0.400,-0.650
5411,0.530,-1.100
5412,-0.110,-1.240
5413,-0.110,-1.040
5414,-0.240,-0.720
5415,-0.200,-0.360
5416,-0.230,-0.110
5417,-0.080,-0.010
5418,-0.020,0.090
5419,-0.020,0.080
5420,-0.020,0.130
5421,0.000,0.130
5422,-0.020,0.180
5423,-0.030,0.150
5424,0.020,0.180
5425,-0.070,0.170
5426,0.060,0.140
5427,-0.040,0.180
5428,0.010,0.160
5429,0.000,0.200
5430,0.020,0.170
5431,-0.010,0.200
5432,0.020,0.170
5433,0.010,0.210
5434,-0.010,0.280
5435,0.020,0.150
5436,0.060,0.190
5437,0.020,0.230
5438,0.040,0.220
5439,0.090,0.200
5440,0.100,0.290
5441,0.030,0.330
5442,0.040,0.350
5443,0.100,0.330
5444,0.110,0.350
5445,0.150,0.090
5446,0.190,0.160
5447,0.270,0.050
5448,0.220,0.120
5449,0.160,0.160
5450,0.140,0.010
5451,0.110,-0.040
5452,0.090,0.130
5453,0.060,-0.020
5454,0.060,-0.020
5455,0.000,0.000
5456,0.020,-0.040
5457,0.010,-0.010
5458,0.030,-0.040
5459,0.020,-0.010
5460,0.030,-0.080
5461,0.000,0.060
5462,-0.060,-0.030
5463,-0.020,0.030
5464,-0.070,0.040
5465,-0.030,0.030
5466,0.010,0.010
5467,0.010,0.050
5468,-0.050,-0.020
5469,0.000,0.050
5470,-0.050,-0.020
5471,-0.050,0.010
5472,-0.040,-0.020
5473,-0.030,-0.030
5474,-0.010,-0.110
5475,-0.060,-0.040
5476,-0.020,-0.010
5477,0.090,-0.060
5478,-0.080,0.050
5479,0.130,-0.030
5480,0.030,-0.080
5481,-0.020,-0.030
5482,-0.050,-0.090
5483,0.010,-0.140
5484,-0.020,-0.120
5485,-0.040,-0.160
5486,-0.050,-0.180
5487,-0.130,-0.250
5488,-0.150,0.040
5489,-0.080,-0.310
5490,-0.040,-0.300
5491,-0.110,-0.150
5492,-0.070,-0.240
5493,-0.110,-0.160
5494,-0.090,-0.150
5495,-0.090,-0.190
5496,-0.090,-0.230
5497,-0.130,-0.120
5498,-0.150,-0.130
5499,-0.120,-0.240
5500,-0.120,-0.110
5501,-0.170,-0.090
5502,-0.120,-0.200
5503,-0.090,-0.180
5504,0.040,-0.330
5505,0.100,-0.300
5506,0.230,-0.490
5507,0.550,-0.860
5508,0.200,-1.000
5509,-0.400,-0.720
5510,-0.260,-0.850
5511,-0.590,-0.840
5512,-0.530,-0.360
5513,-0.190,-0.190
5514,-0.240,-0.130
5515,-0.110,-0.060
5516,-0.100,-0.030
5517,-0.110,0.020
5518,-0.090,-0.070
5519,-0.010,-0.040
5520,-0.060,-0.120
5521,0.050,-0.040
5522,-0.090,0.020
5523,0.010,-0.070
5524,-0.050,-0.040
5525,-0.040,-0.010
5526,-0.030,0.010
5527,0.020,-0.060
5528,-0.010,-0.030
5529,0.010,-0.020
5530,0.020,-0.010
5531,0.010,-0.020
5532,0.190,-0.010
5533,-0.060,0.110
5534,0.000,0.060
5535,0.050,0.060
5536,0.080,0.090
5537,0.110,0.050
5538,0.150,0.060
5539,0.170,0.020
5540,0.230,0.100
5541,0.200,-0.010
5542,0.250,-0.010
5543,0.230,0.010
5544,0.270,-0.170
5545,0.120,-0.020
5546,0.030,0.110
5547,0.000,-0.250
5548,0.010,-0.020
5549,0.030,-0.110
5550,-0.160,-0.070
5551,0.050,-0.130
5552,-0.140,-0.050
5553,-0.020,-0.070
5554,-0.030,-0.170
5555,0.030,-0.250
5556,-0.150,-0.280
5557,-0.500,0.090
5558,-0.810,0.400
5559,-1.050,0.670
5560,-1.140,0.560
5561,-1.390,0.850
5562,-1.630,1.020
5563,-1.500,1.250
5564,-1.580,1.470
5565,-1.340,1.270
5566,-0.990,1.010
5567,-0.730,1.050
5568,-0.560,1.190
5569,-0.470,1.250
5570,-0.330,1.250
5571,-0.400,1.090
5572,-0.200,0.450
5573,0.130,0.060
5574,0.270,-0.180
5575,0.320,-0.260
5576,0.320,-0.360
5577,0.320,-0.310
5578,0.360,-0.450
5579,0.370,-0.420
5580,0.380,-0.390
5581,0.430,-0.610
5582,0.480,-0.490
5583,0.540,-0.710
5584,0.630,-0.650
5585,0.730,-0.690
5586,0.880,-0.740
5587,1.000,-0.820
5588,1.040,-0.790
5589,1.220,-0.880
5590,1.260,-0.930
5591,1.370,-1.000
5592,1.250,-1.020
5593,1.350,-1.030
5594,0.970,-0.930
5595,0.970,-0.940
5596,0.780,-0.900
5597,0.680,-0.800
5598,0.540,-0.730
5599,0.450,-0.650
5600,0.370,-0.530
5601,0.270,-0.410
5602,0.220,-0.300
5603,0.160,-0.220
5604,0.130,-0.180
5605,0.090,-0.090
5606,0.100,-0.090
5607,0.040,-0.090
5608,0.050,-0.040
5609,0.060,-0.040
5610,0.050,-0.060
5611,0.040,-0.030
5612,0.030,-0.060
5613,0.020,-0.030
5614,0.030,-0.050
5615,0.020,-0.030
5616,0.010,-0.040
5617,0.060,-0.080
5618,0.030,-0.070
5619,0.120,-0.060
5620,-0.130,-0.040
5621,0.070,-0.030
5622,0.020,-0.040
5623,-0.040,-0.180
5624,-0.040,-0.060
5625,-0.050,-0.050
5626,-0.060,0.030
5627,-0.080,-0.300
5628,-0.140,-0.060
5629,-0.030,-0.060
5630,-0.020,-0.220
5631,-0.040,-0.100
5632,-0.050,-0.050
5633,-0.070,-0.060
5634,-0.090,-0.040
5635,-0.070,-0.060
5636,-0.070,-0.060
5637,-0.060,-0.040
5638,-0.050,-0.020
5639,0.000,-0.020
5640,-0.100,-0.030
5641,0.000,-0.050
5642,-0.030,0.000
5643,-0.090,-0.020
5644,-0.030,-0.090
5645,0.200,0.130
5646,-0.090,0.020
5647,-0.130,0.000
5648,-0.030,0.050
5649,0.000,-0.110
5650,0.000,0.090
5651,0.000,-0.070
5652,0.000,0.010
5653,0.010,0.020
5654,-0.020,0.020
5655,-0.010,0.000
5656,-0.010,0.060
5657,-0.040,-0.010
5658,-0.020,0.060
5659,-0.040,0.060
5660,-0.050,0.070
5661,-0.050,0.050
5662,-0.050,0.050
5663,-0.050,0.000
5664,-0.020,0.030
5665,-0.110,0.030
5666,0.080,0.030
5667,-0.140,0.100
5668,-0.080,0.060
5669,-0.140,0.050
5670,-0.060,0.070
5671,-0.090,0.110
5672,-0.040,0.140
5673,-0.020,0.160
5674,0.030,0.130
5675,-0.010,0.120
5676,0.000,0.040
5677,-0.040,0.060
5678,-0.090,0.120
5679,-0.020,-0.080
5680,-0.080,0.120
5681,-0.040,-0.260
5682,-0.080,-0.140
5683,-0.080,-0.170
5684,-0.090,-0.090
5685,-0.100,-0.100
5686,-0.070,-0.100
5687,-0.040,-0.010
5688,-0.140,0.020
5689,-0.100,0.020
5690,-0.060,0.020
5691,-0.090,0.030
5692,-0.080,0.020
5693,-0.060,0.020
5694,-0.060,0.020
5695,-0.030,0.020
5696,-0.070,-0.010
5697,0.000,-0.050
5698,0.130,-0.080
5699,0.150,-0.120
5700,0.340,-0.380
5701,0.670,-0.820
5702,0.370,-1.390
5703,-0.270,-1.280
5704,-0.290,-0.780
5705,-0.270,-0.400
5706,-0.310,-0.050
5707,-0.190,0.030
5708,-0.140,0.140
5709,-0.090,0.160
5710,-0.150,0.130
5711,-0.140,0.290
5712,-0.100,0.050
5713,-0.070,0.030
5714,-0.100,0.140
5715,-0.090,0.160
5716,-0.090,0.190
5717,-0.100,0.200
5718,-0.110,0.220
5719,-0.100,0.220
5720,-0.090,0.190
5721,-0.120,0.240
5722,-0.090,0.240
5723,-0.100,0.250
5724,-0.080,0.240
5725,-0.090,0.290
5726,-0.090,0.300
5727,-0.100,0.290
5728,-0.070,0.280
5729,-0.040,0.340
5730,-0.080,0.390
5731,-0.070,0.370
5732,0.010,0.410
5733,0.070,0.350
5734,-0.030,0.420
5735,0.050,0.380
5736,0.030,0.370
5737,0.080,0.300
5738,0.100,0.220
5739,0.080,0.310
5740,0.040,0.300
5741,0.050,-0.060
5742,-0.030,0.100
5743,-0.070,0.100
5744,-0.090,0.070
5745,-0.110,0.060
5746,-0.100,0.080
5747,-0.130,0.090
5748,-0.130,0.100
5749,-0.160,0.090
5750,-0.120,0.080
5751,-0.150,0.090
5752,-0.130,0.090
5753,-0.160,0.110
5754,-0.140,0.120
5755,-0.130,0.110
5756,-0.190,0.020
5757,-0.130,0.120
5758,-0.090,0.060
5759,-0.190,0.130
5760,-0.180,0.110
5761,-0.160,0.120
5762,-0.150,0.070
5763,-0.140,0.130
5764,-0.160,0.050
5765,-0.110,0.100
5766,-0.170,0.130
5767,-0.130,0.130
5768,-0.140,0.080
5769,-0.100,0.160
5770,-0.040,0.160
5771,-0.060,0.220
5772,-0.030,0.100
5773,-0.010,0.070
5774,-0.110,0.100
5775,-0.080,0.040
5776,-0.100,0.070
5777,-0.120,0.010
5778,-0.160,0.020
5779,-0.180,-0.030
5780,-0.130,-0.070
5781,-0.150,0.000
5782,-0.140,-0.040
5783,-0.140,-0.090
5784,-0.140,0.010
5785,-0.170,0.030
5786,-0.150,0.010
5787,-0.160,-0.010
5788,-0.140,0.030
5789,-0.160,0.040
5790,-0.170,-0.010
5791,-0.200,-0.030
5792,-0.090,0.050
5793,-0.220,0.020
5794,-0.230,0.040
5795,-0.200,-0.020
5796,-0.050,-0.040
5797,0.000,-0.120
5798,0.110,-0.140
5799,0.190,-0.420
5800,0.410,-1.060
5801,-0.230,-1.290
5802,-0.480,-0.820
5803,-0.360,-0.770
5804,-0.340,-0.180
5805,-0.320,-0.050
5806,-0.220,0.030
5807,-0.140,0.140
5808,-0.170,0.170
5809,-0.150,0.160
5810,-0.150,0.190
5811,-0.130,0.190
5812,-0.140,0.220
5813,-0.120,0.210
5814,-0.130,0.180
5815,-0.110,0.210
5816,-0.070,0.210
5817,-0.140,0.220
5818,-0.070,0.230
5819,-0.180,0.270
5820,-0.100,0.250
5821,-0.020,0.230
5822,-0.150,0.310
5823,-0.160,0.330
5824,-0.050,0.300
5825,-0.100,0.420
5826,-0.080,0.400
5827,0.010,0.270
5828,-0.040,0.470
5829,-0.070,0.410
5830,0.050,0.530
5831,0.070,0.280
5832,0.130,0.330
5833,0.150,0.290
5834,0.150,0.260
5835,0.180,0.270
5836,0.140,0.190
5837,0.190,0.180
5838,0.010,0.200
5839,-0.060,0.180
5840,-0.060,0.170
5841,-0.120,0.200
5842,-0.120,0.150
5843,-0.080,0.150
5844,-0.110,0.150
5845,-0.020,0.120
5846,-0.050,0.050
5847,0.040,0.040
5848,0.010,-0.120
5849,-0.280,0.210
5850,-0.630,0.520
5851,-0.900,0.820
5852,-0.990,0.930
5853,-1.200,1.360
5854,-1.470,1.140
5855,-1.320,1.670
5856,-1.500,1.970
5857,-1.440,1.790
5858,-1.370,1.800
5859,-0.960,1.410
5860,-0.700,1.740
5861,-0.680,1.710
5862,-0.510,1.630
5863,-0.420,1.510
5864,-0.370,1.220
5865,-0.230,0.580
5866,-0.030,0.120
5867,0.130,0.030
5868,0.210,-0.010
5869,0.290,-0.160
5870,0.270,-0.210
5871,0.300,-0.280
5872,0.300,-0.300
5873,0.330,-0.390
5874,0.330,-0.390
5875,0.340,-0.410
5876,0.380,-0.520
5877,0.460,-0.660
5878,0.450,-0.500
5879,0.530,-0.730
5880,0.890,-0.880
5881,0.780,-0.850
5882,0.920,-0.820
5883,0.960,-0.910
5884,1.000,-0.920
5885,0.970,-0.960
5886,0.910,-0.990
5887,0.820,-0.970
5888,0.660,-0.890
5889,0.560,-0.920
5890,0.420,-0.760
5891,0.300,-0.670
5892,0.160,-0.540
5893,0.060,-0.380
5894,0.030,-0.310
5895,-0.080,-0.230
5896,-0.110,-0.090
5897,-0.040,-0.050
5898,-0.200,-0.020
5899,-0.180,-0.040
5900,0.050,0.030
5901,-0.330,0.140
5902,-0.260,0.020
5903,-0.220,0.140
5904,-0.200,0.040
5905,-0.190,0.040
5906,-0.220,0.050
5907,-0.150,0.010
5908,-0.170,-0.010
5909,-0.120,0.070
5910,-0.180,0.080
5911,-0.080,-0.110
5912,-0.100,0.010
5913,-0.130,-0.030
5914,-0.110,0.030
5915,-0.110,0.010
5916,-0.110,0.000
5917,-0.110,0.000
5918,-0.110,0.020
5919,-0.140,0.020
5920,-0.070,-0.010
5921,-0.090,0.010
5922,-0.100,0.040
5923,-0.170,0.020
5924,0.020,0.020
5925,-0.200,0.110
5926,-0.190,0.060
5927,-0.110,0.030
5928,-0.120,-0.100
5929,-0.030,-0.010
5930,-0.150,0.010
5931,-0.110,0.020
5932,-0.050,-0.050
5933,-0.130,-0.010
5934,-0.110,0.000
5935,-0.110,0.010
5936,-0.090,-0.040
5937,-0.120,0.000
5938,-0.140,-0.010
5939,-0.120,0.110
5940,0.020,-0.130
5941,-0.120,-0.060
5942,-0.110,0.050
5943,-0.130,-0.060
5944,-0.120,0.080
5945,-0.130,-0.040
5946,-0.130,-0.050
5947,-0.090,0.010
5948,-0.130,0.030
5949,-0.140,0.000
5950,-0.120,-0.010
5951,-0.090,0.080
5952,-0.150,-0.020
5953,-0.100,0.020
5954,-0.090,0.000
5955,-0.090,0.060
5956,-0.100,0.080
5957,-0.060,-0.070
5958,-0.090,0.100
5959,-0.110,-0.060
5960,-0.080,0.110
5961,-0.060,-0.070
5962,-0.140,0.000
5963,-0.160,-0.010
5964,-0.070,0.080
5965,-0.100,-0.070
5966,-0.090,0.020
5967,0.010,0.070
5968,0.040,0.080
5969,0.040,0.080
5970,-0.110,0.020
5971,-0.010,0.040
5972,-0.100,-0.060
5973,-0.020,-0.070
5974,-0.020,-0.020
5975,-0.160,-0.010
5976,-0.110,-0.080
5977,-0.090,-0.090
5978,-0.090,-0.080
5979,-0.090,-0.110
5980,-0.080,-0.080
5981,-0.040,-0.080
5982,-0.120,-0.010
5983,-0.060,0.030
5984,-0.070,-0.020
5985,-0.080,0.010
5986,-0.080,0.010
5987,-0.080,-0.060
5988,-0.090,0.100
5989,-0.090,0.120
5990,-0.130,-0.170
5991,-0.020,-0.140
5992,-0.010,-0.050
5993,0.170,-0.200
5994,0.280,-0.280
5995,0.490,-0.920
5996,0.320,-1.560
5997,-0.320,-1.710
5998,-0.360,-1.075
5999,-0.210,-0.650
6000,-0.350,-0.150
6001,-0.200,-0.070
6002,-0.170,-0.020
6003,0.040,0.080
6004,-0.160,0.160
6005,-0.120,0.160
6006,-0.140,0.170
6007,-0.090,0.200
6008,-0.080,0.160
6009,-0.060,0.210
6010,-0.060,0.200
6011,-0.110,0.270
6012,-0.030,0.430
6013,-0.090,-0.020
6014,0.070,0.210
6015,-0.090,0.250
6016,-0.100,0.380
6017,-0.040,0.150
6018,-0.030,0.280
6019,-0.020,0.270
6020,-0.020,0.290
6021,-0.020,0.340
6022,-0.010,0.350
6023,0.080,0.330
6024,0.040,0.410
6025,0.010,0.440
6026,0.010,0.450
6027,0.060,0.360
6028,0.210,0.460
6029,0.100,0.450
6030,0.180,0.280
6031,0.190,0.300
6032,0.230,0.220
6033,0.190,0.230
6034,0.190,0.050
6035,0.080,0.030
6036,0.100,0.080
6037,-0.020,0.080
6038,-0.040,0.140
6039,0.010,-0.040
6040,-0.020,0.000
6041,-0.070,0.010
6042,0.020,0.050
6043,-0.110,0.090
6044,0.060,-0.030
6045,-0.030,-0.050
6046,-0.060,0.100
6047,-0.080,-0.040
6048,0.080,0.030
6049,-0.090,0.110
6050,-0.080,0.040
6051,-0.070,0.050
6052,-0.020,0.100
6053,-0.080,0.070
6054,-0.030,-0.080
6055,-0.010,0.010
6056,-0.070,0.050
6057,-0.040,0.050
6058,-0.040,0.050
6059,-0.060,0.060
6060,-0.060,0.080
6061,0.000,0.050
6062,-0.070,0.070
6063,0.090,0.150
6064,0.120,0.170
6065,0.070,0.120
6066,0.080,0.050
6067,0.070,0.020
6068,0.040,-0.010
6069,0.070,-0.030
6070,0.020,-0.010
6071,0.020,-0.020
6072,-0.090,-0.020
6073,-0.050,-0.090
6074,-0.050,-0.100
6075,0.030,0.020
6076,-0.010,-0.190
6077,0.020,-0.100
6078,-0.030,0.030
6079,-0.070,-0.010
6080,-0.030,0.120
6081,-0.040,-0.030
6082,-0.060,-0.040
6083,-0.060,-0.040
6084,0.010,-0.050
6085,-0.130,-0.030
6086,0.120,0.000
6087,-0.180,0.100
6088,-0.020,-0.160
6089,-0.010,-0.040
6090,0.090,-0.130
6091,0.130,-0.350
6092,0.200,-0.330
6093,0.450,-0.970
6094,-0.190,-1.610
6095,-0.560,-1.100
6096,-0.250,-0.720
6097,-0.200,-0.200
6098,-0.210,-0.080
6099,-0.090,0.080
6100,-0.040,0.080
6101,-0.020,0.090
6102,-0.080,0.100
6103,0.010,0.160
6104,-0.010,0.180
6105,-0.120,0.220
6106,-0.050,0.190
6107,-0.050,0.230
6108,-0.030,0.290
6109,-0.050,0.120
6110,0.020,0.200
6111,-0.030,0.310
6112,0.050,0.020
6113,-0.020,0.240
6114,0.030,0.220
6115,-0.060,0.220
6116,-0.050,0.260
6117,0.080,0.320
6118,-0.080,0.190
6119,0.080,0.350
6120,-0.050,0.440
6121,0.050,0.360
6122,0.050,0.280
6123,0.100,0.450
6124,0.140,0.270
6125,0.170,0.350
6126,0.220,0.310
6127,0.240,0.270
6128,0.280,0.190
6129,0.230,0.180
6130,0.190,0.120
6131,0.120,0.140
6132,0.090,0.100
6133,0.050,0.090
6134,0.000,0.100
6135,0.050,0.070
6136,0.010,0.070
6137,-0.020,0.060
6138,0.030,0.030
6139,0.090,-0.010
6140,0.110,-0.040
6141,0.040,-0.230
6142,-0.110,0.180
6143,-0.380,0.600
6144,-0.440,0.910
6145,-0.650,1.020
6146,-0.760,1.210
6147,-1.110,1.530
6148,-0.930,1.890
6149,-1.130,2.280
6150,-1.240,2.060
6151,-1.050,1.890
6152,-0.720,1.500
6153,-0.460,1.830
6154,-0.600,1.820
6155,-0.440,1.750
6156,-0.300,1.660
6157,-0.240,1.020
6158,-0.060,0.380
6159,0.120,0.070
6160,0.240,-0.250
6161,0.290,-0.150
6162,0.360,-0.110
6163,0.430,-0.330
6164,0.440,-0.200
6165,0.470,-0.610
6166,0.470,-0.280
6167,0.500,-0.590
6168,0.480,-0.520
6169,0.580,-0.580
6170,0.640,-0.710
6171,0.740,-0.740
6172,0.730,-0.800
6173,0.880,-0.890
6174,0.980,-0.980
6175,1.110,-1.070
6176,1.070,-1.000
6177,1.130,-1.130
6178,1.150,-0.990
6179,1.120,-1.240
6180,0.890,-1.060
6181,0.790,-1.090
6182,0.780,-1.080
6183,0.560,-0.730
6184,0.420,-0.800
6185,0.270,-0.540
6186,0.260,-0.450
6187,0.180,-0.430
6188,0.120,-0.230
6189,0.100,-0.150
6190,0.070,-0.030
6191,-0.010,0.000
6192,-0.020,0.040
6193,-0.040,0.070
6194,0.050,0.070
6195,-0.050,0.050
6196,-0.060,0.120
6197,-0.030,0.130
6198,-0.060,0.110
6199,-0.060,0.220
6200,-0.080,0.060
6201,-0.010,0.010
6202,-0.060,0.050
6203,-0.030,-0.020
6204,-0.080,0.060
6205,-0.050,0.090
6206,-0.060,0.070
6207,-0.080,0.010
6208,0.000,0.150
6209,-0.010,0.050
6210,-0.030,0.070
6211,0.010,0.010
6212,-0.020,0.270
6213,-0.060,-0.060
6214,0.100,0.090
6215,-0.130,0.010
6216,-0.010,0.040
6217,-0.060,0.060
6218,-0.020,0.020
6219,-0.010,0.150
6220,-0.050,-0.030
6221,0.030,-0.030
6222,0.010,0.030
6223,0.000,0.000
6224,0.010,0.060
6225,0.020,0.030
6226,0.010,0.020
6227,0.020,0.020
6228,0.030,0.080
6229,-0.010,0.050
6230,0.060,-0.060
6231,-0.030,-0.040
6232,-0.030,0.060
6233,-0.060,0.170
6234,0.010,-0.190
6235,0.050,0.000
6236,-0.120,-0.020
6237,0.060,0.060
6238,-0.030,0.030
6239,-0.030,0.020
6240,0.110,0.060
6241,-0.050,0.050
6242,0.080,0.020
6243,-0.110,0.090
6244,-0.020,0.040
6245,0.000,0.100
6246,-0.030,-0.010
6247,-0.010,0.040
6248,0.020,0.050
6249,0.030,0.050
6250,-0.010,0.040
6251,0.010,0.040
6252,0.050,0.020
6253,0.010,0.080
6254,0.050,0.080
6255,0.070,-0.020
6256,0.040,0.020
6257,0.010,0.000
6258,0.060,0.060
6259,0.060,0.010
6260,0.070,0.130
6261,0.100,0.120
6262,0.180,0.160
6263,0.120,0.000
6264,0.060,0.030
6265,0.040,-0.040
6266,0.110,0.020
6267,0.040,-0.070
6268,-0.030,-0.030
6269,0.120,-0.060
6270,0.100,-0.200
6271,-0.050,-0.060
6272,0.050,-0.030
6273,0.060,-0.160
6274,0.060,-0.030
6275,0.020,-0.060
6276,-0.010,0.020
6277,0.000,0.080
6278,-0.020,0.020
6279,0.040,0.010
6280,0.060,0.000
6281,-0.030,0.060
6282,0.040,-0.030
6283,0.030,0.080
6284,-0.010,-0.080
6285,0.170,-0.090
6286,0.180,-0.080
6287,0.300,-0.360
6288,0.470,-0.770
6289,0.350,-1.410
6290,-0.290,-1.670
6291,-0.210,-1.035
6292,-0.220,-0.550
6293,-0.190,-0.160
6294,-0.110,-0.020
6295,-0.010,0.030
6296,-0.010,0.230
6297,0.010,0.120
6298,-0.010,0.140
6299,-0.020,0.200
6300,0.080,0.110
6301,0.010,0.120
6302,-0.010,0.260
6303,0.010,0.150
6304,0.030,0.170
6305,0.110,0.170
6306,0.060,0.270
6307,0.020,0.240
6308,0.020,0.210
6309,0.050,0.220
6310,0.040,0.310
6311,0.020,0.290
6312,0.060,0.400
6313,0.090,0.200
6314,0.070,0.300
6315,0.090,0.330
6316,0.080,0.340
6317,0.090,0.410
6318,0.110,0.490
6319,0.160,0.290
6320,0.210,0.410
6321,0.170,0.390
6322,0.220,0.430
6323,0.250,0.450
6324,0.250,0.250
6325,0.300,0.280
6326,0.260,0.170
6327,0.230,0.260
6328,0.160,0.050
6329,0.100,0.060
6330,0.080,0.060
6331,0.080,0.010
6332,0.040,0.020
6333,0.020,0.130
6334,-0.020,0.020
6335,0.050,-0.070
6336,-0.100,0.340
6337,0.020,-0.240
6338,-0.020,0.020
6339,-0.030,0.040
6340,0.000,-0.020
6341,-0.040,0.030
6342,-0.030,0.050
6343,-0.040,0.060
6344,-0.010,0.010
6345,-0.040,0.020
6346,-0.020,0.040
6347,-0.030,0.080
6348,-0.040,0.020
6349,-0.040,0.050
6350,-0.020,0.050
6351,-0.040,-0.060
6352,-0.030,0.010
6353,-0.070,0.040
6354,0.060,-0.050
6355,-0.040,0.200
6356,0.010,0.140
6357,0.030,0.100
6358,0.070,-0.060
6359,0.040,0.060
6360,0.020,-0.090
6361,-0.010,-0.050
6362,-0.040,-0.110
6363,-0.040,-0.040
6364,-0.080,-0.100
6365,-0.090,-0.140
6366,-0.070,-0.140
6367,-0.060,-0.110
6368,-0.070,-0.140
6369,-0.060,-0.150
6370,-0.040,-0.050
6371,-0.070,-0.020
6372,-0.080,-0.040
6373,-0.080,-0.020
6374,-0.070,-0.030
6375,-0.080,-0.020
6376,-0.080,0.030
6377,-0.030,-0.020
6378,-0.150,-0.030
6379,-0.060,-0.060
6380,-0.070,-0.100
6381,-0.060,-0.140
6382,0.090,-0.140
6383,0.080,-0.280
6384,0.230,-0.510
6385,0.460,-1.060
6386,-0.020,-1.580
6387,-0.480,-1.340
6388,-0.230,-0.760
6389,-0.450,-0.750
6390,-0.140,-0.240
6391,-0.160,-0.090
6392,-0.180,0.020
6393,-0.060,-0.040
6394,-0.020,0.090
6395,0.000,-0.130
6396,0.040,0.010
6397,-0.040,0.040
6398,-0.030,0.040
6399,0.010,0.030
6400,0.030,0.040
6401,-0.020,0.060
6402,0.010,0.030
6403,0.000,0.040
6404,0.020,0.020
6405,0.020,0.080
6406,-0.010,0.080
6407,-0.030,0.170
6408,0.040,0.120
6409,0.010,-0.060
6410,0.030,0.090
6411,0.030,0.070
6412,0.110,0.030
6413,0.050,0.110
6414,0.120,0.170
6415,0.140,0.080
6416,0.170,0.170
6417,0.260,0.120
6418,0.260,0.150
6419,0.290,0.310
6420,0.360,0.120
6421,0.360,0.030
6422,0.320,0.050
6423,0.080,-0.110
6424,0.090,-0.230
6425,0.040,-0.240
6426,0.050,-0.130
6427,0.020,-0.300
6428,-0.010,-0.170
6429,-0.030,-0.210
6430,-0.070,-0.200
6431,-0.020,-0.230
6432,-0.030,-0.310
6433,-0.010,-0.410
6434,-0.210,-0.270
6435,-0.430,-0.020
6436,-0.650,0.440
6437,-0.930,0.630
6438,-1.060,0.700
6439,-1.230,0.870
6440,-1.500,1.290
6441,-1.370,1.410
6442,-1.180,1.250
6443,-1.040,1.030
6444,-0.880,0.790
6445,-0.630,0.720
6446,-0.590,1.020
6447,-0.570,1.030
6448,-0.460,1.140
6449,-0.230,0.880
6450,-0.250,0.640
6451,-0.030,0.000
6452,0.100,-0.370
6453,0.230,-0.410
6454,0.230,-0.440
6455,0.300,-0.520
6456,0.340,-0.540
6457,0.360,-0.570
6458,0.400,-0.560
6459,0.440,-0.620
6460,0.490,-0.640
6461,0.560,-0.720
6462,0.670,-0.710
6463,0.780,-0.760
6464,0.810,-0.810
6465,1.040,-1.010
6466,1.020,-0.910
6467,1.180,-1.210
6468,1.140,-1.050
6469,1.280,-1.180
6470,1.220,-1.240
6471,1.170,-1.230
6472,1.070,-1.240
6473,0.930,-1.210
6474,0.830,-1.120
6475,0.720,-1.130
6476,0.570,-1.020
6477,0.480,-0.950
6478,0.360,-0.850
6479,0.270,-0.740
6480,0.210,-0.670
6481,0.140,-0.520
6482,0.100,-0.480
6483,0.080,-0.410
6484,0.080,-0.330
6485,0.050,-0.350
6486,0.050,-0.370
6487,0.010,-0.230
6488,0.040,-0.270
6489,0.040,-0.250
6490,-0.010,-0.300
6491,0.030,-0.140
6492,0.030,-0.280
6493,0.050,-0.170
6494,-0.030,-0.210
6495,-0.010,-0.250
6496,0.000,-0.110
6497,0.010,-0.240
6498,0.000,-0.200
6499,-0.010,-0.100
6500,-0.030,-0.140
6501,-0.020,-0.240
6502,0.020,-0.190
6503,0.010,-0.210
6504,0.010,-0.060
6505,-0.090,-0.170
6506,-0.110,-0.160
6507,-0.020,-0.130
6508,-0.110,-0.150
6509,-0.070,-0.120
6510,-0.010,-0.230
6511,-0.060,-0.130
6512,-0.050,-0.120
6513,-0.050,-0.140
6514,-0.030,-0.130
6515,-0.040,-0.160
6516,-0.030,-0.130
6517,-0.050,-0.110
6518,-0.030,-0.150
6519,-0.040,-0.140
6520,-0.030,-0.140
6521,-0.030,-0.090
6522,-0.020,-0.210
6523,-0.050,-0.030
6524,0.000,-0.230
6525,-0.020,-0.160
6526,-0.020,-0.220
6527,0.000,-0.170
6528,-0.040,-0.130
6529,0.050,-0.090
6530,0.040,-0.040
6531,0.000,-0.040
6532,0.090,-0.100
6533,0.050,-0.090
6534,0.020,-0.110
6535,0.010,-0.130
6536,-0.010,-0.120
6537,-0.040,-0.170
6538,-0.050,-0.150
6539,-0.060,-0.190
6540,-0.090,-0.180
6541,-0.070,-0.170
6542,-0.060,-0.170
6543,-0.050,-0.130
6544,-0.060,-0.120
6545,-0.090,-0.120
6546,-0.060,-0.120
6547,-0.070,-0.050
6548,-0.080,-0.070
6549,-0.040,-0.210
6550,-0.050,-0.150
6551,-0.070,-0.140
6552,-0.060,-0.090
6553,-0.070,-0.130
6554,-0.060,-0.100
6555,0.030,-0.160
6556,0.150,-0.190
6557,0.250,-0.250
6558,0.470,-0.450
6559,0.940,-0.820
6560,0.300,-1.210
6561,-0.340,-1.210
6562,-0.320,-0.800
6563,-0.310,-0.220
6564,-0.310,-0.180
6565,-0.160,-0.090
6566,-0.140,-0.020
6567,-0.120,0.030
6568,-0.130,-0.020
6569,-0.120,0.010
6570,-0.120,0.000
6571,-0.090,0.040
6572,-0.110,0.010
6573,-0.100,0.010
6574,-0.140,0.090
6575,-0.100,0.020
6576,-0.090,0.030
6577,-0.100,0.020
6578,-0.100,0.040
6579,-0.070,0.020
6580,-0.090,0.050
6581,-0.080,0.080
6582,-0.080,0.100
6583,-0.080,0.100
6584,-0.070,0.150
6585,-0.080,0.170
6586,-0.080,0.200
6587,-0.050,0.220
6588,-0.030,0.240
6589,-0.020,0.220
6590,-0.010,0.520
6591,0.060,0.140
6592,0.100,0.160
6593,0.100,0.230
6594,0.150,0.200
6595,0.210,0.030
6596,0.200,0.060
6597,0.110,0.100
6598,0.110,-0.060
6599,0.140,0.020
6600,-0.020,0.110
6601,-0.080,0.030
6602,-0.040,-0.040
6603,-0.060,0.040
6604,-0.020,-0.020
6605,-0.050,-0.090
6606,-0.050,-0.020
6607,-0.040,-0.020
6608,-0.060,-0.110
6609,-0.060,0.030
6610,-0.040,-0.130
6611,-0.080,-0.070
6612,-0.050,-0.010
6613,-0.070,-0.080
6614,-0.060,-0.060
6615,-0.090,-0.060
6616,-0.060,-0.040
6617,-0.080,-0.050
6618,-0.090,-0.050
6619,-0.060,-0.030
6620,-0.080,-0.080
6621,-0.080,-0.050
6622,-0.090,-0.050
6623,-0.090,-0.040
6624,-0.110,-0.020
6625,-0.060,-0.050
6626,-0.090,0.060
6627,-0.050,0.060
6628,0.010,-0.070
6629,0.040,-0.050
6630,0.000,-0.090
6631,-0.010,-0.150
6632,-0.030,-0.130
6633,-0.060,-0.080
6634,-0.060,-0.130
6635,-0.100,-0.110
6636,-0.120,-0.060
6637,-0.130,-0.260
6638,-0.130,-0.040
6639,-0.110,-0.150
6640,-0.110,-0.100
6641,-0.180,-0.060
6642,0.060,-0.040
6643,-0.190,0.020
6644,-0.200,0.010
6645,-0.140,0.030
6646,-0.150,0.000
6647,-0.160,0.070
6648,-0.160,0.140
6649,-0.150,0.020
6650,-0.110,0.050
6651,-0.130,0.030
6652,-0.110,-0.040
6653,-0.010,-0.130
6654,0.080,-0.040
6655,0.140,-0.140
6656,0.330,-0.340
6657,0.800,-0.910
6658,0.160,-1.160
6659,-0.480,-1.130
6660,-0.340,-0.730
6661,-0.310,-0.240
6662,-0.350,-0.100
6663,-0.220,0.050
6664,-0.170,0.100
6665,-0.160,0.130
6666,-0.150,0.120
6667,-0.160,0.150
6668,-0.140,0.150
6669,-0.160,0.190
6670,-0.150,0.140
6671,-0.140,0.200
6672,-0.130,0.110
6673,-0.150,0.170
6674,-0.160,0.190
6675,-0.160,0.250
6676,-0.150,0.190
6677,-0.130,0.170
6678,-0.130,0.160
6679,-0.190,0.170
6680,0.000,0.240
6681,-0.180,0.310
6682,-0.180,0.320
6683,-0.130,0.280
6684,-0.090,0.330
6685,-0.060,0.370
6686,-0.040,0.390
6687,-0.020,0.320
6688,0.030,0.420
6689,0.060,0.370
6690,0.100,0.370
6691,0.160,0.200
6692,0.170,0.360
6693,0.160,0.320
6694,0.160,0.030
6695,0.080,0.160
