'sample interval','ECG1','ECG2'
'0.0078125 sec','mV','mV'
0,-0.505,0.615
1,-0.495,0.755
2,-0.545,0.805
3,-0.445,0.865
4,-0.275,0.815
5,-0.145,0.395
6,-0.135,-0.035
7,-0.125,-0.105
8,-0.135,-0.145
9,-0.125,-0.155
10,-0.125,-0.135
11,-0.115,-0.215
12,-0.115,-0.215
13,-0.115,-0.215
14,-0.095,-0.205
15,-0.105,-0.195
16,-0.095,-0.185
17,-0.095,-0.185
18,-0.095,-0.185
19,-0.085,-0.185
20,-0.095,-0.155
21,-0.055,-0.055
22,-0.045,-0.205
23,-0.055,-0.225
24,-0.045,-0.205
25,-0.045,-0.215
26,-0.045,-0.185
27,-0.025,-0.165
28,-0.005,-0.145
29,0.005,-0.135
30,0.015,-0.115
31,0.025,-0.135
32,0.065,0.015
33,0.125,-0.085
34,0.135,-0.135
35,0.165,-0.065
36,0.195,-0.035
37,0.235,0.005
38,0.275,0.015
39,0.285,0.015
40,0.305,0.045
41,0.305,0.095
42,0.285,0.025
43,0.255,0.005
44,0.185,-0.005
45,0.125,0.005
46,0.065,-0.055
47,-0.025,-0.095
48,-0.055,-0.095
49,-0.115,-0.135
50,-0.145,-0.165
51,-0.185,-0.195
52,-0.165,-0.085
53,-0.155,-0.135
54,-0.185,-0.235
55,-0.195,-0.265
56,-0.195,-0.245
57,-0.185,-0.175
58,-0.205,-0.195
59,-0.195,-0.185
60,-0.175,-0.165
61,-0.185,-0.165
62,-0.175,-0.175
63,-0.175,-0.165
64,-0.165,-0.165
65,-0.145,-0.155
66,-0.185,-0.155
67,-0.155,-0.145
68,-0.135,-0.135
69,-0.135,-0.155
70,-0.125,-0.125
71,-0.115,-0.195
72,-0.125,-0.185
73,-0.135,-0.165
74,-0.145,-0.165
75,-0.115,-0.165
76,-0.135,-0.175
77,-0.135,-0.055
78,-0.125,-0.175
79,-0.135,-0.215
80,-0.135,-0.195
81,-0.145,-0.135
82,-0.135,-0.095
83,-0.135,-0.225
84,-0.145,-0.205
85,-0.135,-0.175
86,-0.145,-0.185
87,-0.135,-0.075
88,-0.125,-0.195
89,-0.145,-0.225
90,-0.155,-0.175
91,-0.135,-0.175
92,-0.155,-0.165
93,-0.155,-0.155
94,-0.145,-0.155
95,-0.135,-0.145
96,-0.145,-0.175
97,-0.145,-0.155
98,-0.155,-0.145
99,-0.125,-0.115
100,-0.145,-0.205
101,-0.125,-0.125
102,-0.135,-0.235
103,-0.135,-0.205
104,-0.135,-0.175
105,-0.135,-0.145
106,-0.145,-0.155
107,-0.135,-0.145
108,-0.135,-0.155
109,-0.125,-0.125
110,-0.125,-0.155
111,-0.145,-0.155
112,-0.125,-0.085
113,-0.125,-0.155
114,-0.145,-0.145
115,-0.135,-0.185
116,-0.125,-0.095
117,-0.125,-0.155
118,-0.115,-0.135
119,-0.125,-0.175
120,-0.135,-0.155
121,-0.115,-0.135
122,-0.135,-0.115
123,-0.115,-0.165
124,-0.115,-0.145
125,-0.135,-0.125
126,-0.115,-0.075
127,-0.135,-0.155
128,-0.105,-0.055
129,-0.105,-0.185
130,-0.125,-0.215
131,-0.125,-0.165
132,-0.115,-0.145
133,-0.115,-0.125
134,-0.115,-0.125
135,-0.125,-0.115
136,-0.105,-0.105
137,-0.105,-0.145
138,-0.125,-0.115
139,-0.125,-0.115
140,-0.075,-0.085
141,-0.085,-0.135
142,-0.095,-0.115
143,-0.105,-0.095
144,-0.095,-0.025
145,-0.095,-0.095
146,-0.105,-0.215
147,-0.095,-0.205
148,-0.095,-0.185
149,-0.095,-0.155
150,-0.085,-0.165
151,-0.105,-0.165
152,-0.105,-0.065
153,-0.105,-0.155
154,-0.115,-0.165
155,-0.105,-0.145
156,-0.105,-0.125
157,-0.105,-0.095
158,-0.085,-0.095
159,-0.135,-0.115
160,-0.045,-0.105
161,0.175,-0.065
162,0.705,-0.015
163,1.315,-0.055
164,1.415,-0.175
165,0.975,-0.005
166,0.335,0.305
167,-0.305,0.485
168,-0.545,0.665
169,-0.515,0.695
170,-0.555,0.785
171,-0.575,0.915
172,-0.495,0.945
173,-0.355,0.935
174,-0.175,0.585
175,-0.155,0.025
176,-0.155,-0.105
177,-0.155,-0.125
178,-0.165,-0.145
179,-0.115,-0.105
180,-0.145,-0.205
181,-0.145,-0.215
182,-0.115,-0.185
183,-0.125,-0.205
184,-0.115,-0.205
185,-0.105,-0.205
186,-0.115,-0.185
187,-0.115,-0.155
188,-0.095,-0.175
189,-0.095,-0.085
190,-0.075,-0.185
191,-0.085,-0.225
192,-0.065,-0.165
193,-0.065,-0.165
194,-0.065,-0.175
195,-0.065,-0.175
196,-0.045,-0.155
197,-0.035,-0.135
198,-0.035,-0.145
199,-0.015,-0.135
200,0.015,-0.105
201,0.025,-0.085
202,0.045,-0.075
203,0.085,-0.065
204,0.095,-0.045
205,0.175,0.085
206,0.205,-0.085
207,0.215,-0.005
208,0.245,0.015
209,0.275,0.035
210,0.265,-0.005
211,0.255,0.025
212,0.245,0.065
213,0.185,0.045
214,0.135,0.005
215,0.055,-0.025
216,0.015,-0.025
217,-0.055,-0.125
218,-0.095,-0.065
219,-0.125,-0.215
220,-0.135,-0.205
221,-0.165,-0.185
222,-0.165,-0.145
223,-0.165,-0.195
224,-0.175,-0.175
225,-0.165,-0.165
226,-0.185,-0.205
227,-0.185,-0.185
228,-0.175,-0.135
229,-0.165,-0.125
230,-0.155,-0.175
231,-0.155,-0.185
232,-0.165,-0.195
233,-0.135,-0.045
234,-0.155,-0.195
235,-0.125,-0.155
236,-0.125,-0.185
237,-0.115,-0.175
238,-0.115,-0.155
239,-0.135,-0.145
240,-0.105,-0.145
241,-0.115,-0.145
242,-0.125,-0.145
243,-0.125,-0.135
244,-0.105,-0.135
245,-0.115,-0.145
246,-0.105,-0.175
247,-0.125,-0.045
248,-0.105,-0.175
249,-0.105,-0.195
250,-0.125,-0.235
251,-0.125,-0.215
252,-0.105,-0.165
253,-0.115,-0.165
254,-0.115,-0.165
255,-0.125,-0.175
256,-0.115,-0.135
257,-0.115,-0.155
258,-0.125,-0.165
259,-0.115,-0.165
260,-0.115,-0.155
261,-0.125,-0.155
262,-0.115,-0.135
263,-0.125,-0.095
264,-0.095,-0.145
265,-0.115,-0.195
266,-0.115,-0.205
267,-0.105,-0.205
268,-0.135,-0.185
269,-0.115,-0.125
270,-0.105,-0.165
271,-0.105,-0.155
272,-0.115,-0.155
273,-0.115,-0.145
274,-0.115,-0.145
275,-0.105,-0.145
276,-0.105,-0.145
277,-0.135,-0.135
278,-0.085,-0.045
279,-0.085,-0.165
280,-0.085,-0.225
281,-0.105,-0.185
282,-0.105,-0.155
283,-0.095,-0.095
284,-0.085,-0.155
285,-0.105,-0.175
286,-0.095,-0.145
287,-0.095,-0.145
288,-0.095,-0.145
289,-0.085,-0.125
290,-0.105,-0.045
291,-0.085,-0.155
292,-0.085,-0.185
293,-0.095,-0.155
294,-0.075,-0.105
295,-0.085,-0.135
296,-0.085,-0.125
297,-0.085,-0.145
298,-0.085,-0.125
299,-0.085,-0.155
300,-0.075,-0.135
301,-0.085,-0.105
302,-0.075,-0.145
303,-0.075,-0.155
304,-0.065,-0.135
305,-0.065,-0.125
306,-0.075,-0.135
307,-0.075,-0.085
308,-0.025,-0.085
309,-0.025,-0.105
310,-0.065,-0.135
311,-0.055,-0.115
312,-0.065,-0.125
313,-0.055,-0.125
314,-0.075,-0.165
315,-0.055,-0.175
316,-0.045,-0.165
317,-0.065,-0.165
318,-0.055,-0.155
319,-0.055,-0.145
320,-0.065,-0.155
321,-0.085,-0.155
322,-0.105,-0.125
323,-0.075,-0.085
324,-0.045,-0.065
325,-0.045,-0.235
326,-0.045,-0.195
327,-0.045,-0.135
328,-0.075,-0.115
329,0.065,-0.095
330,0.355,-0.025
331,0.985,-0.035
332,1.355,-0.115
333,1.305,-0.235
334,0.785,-0.125
335,0.145,0.275
336,-0.495,0.565
337,-0.455,0.675
338,-0.435,0.695
339,-0.445,0.765
340,-0.465,0.895
341,-0.395,0.925
342,-0.265,0.885
343,-0.115,0.485
344,-0.095,0.085
345,-0.105,-0.145
346,-0.115,-0.175
347,-0.095,-0.185
348,-0.085,-0.205
349,-0.075,-0.185
350,-0.095,-0.185
351,-0.075,-0.175
352,-0.075,-0.215
353,-0.075,-0.215
354,-0.075,-0.205
355,-0.065,-0.195
356,-0.055,-0.175
357,-0.055,-0.175
358,-0.055,-0.175
359,-0.045,-0.185
360,-0.055,-0.115
361,-0.025,-0.125
362,-0.035,-0.205
363,-0.015,-0.195
364,-0.015,-0.215
365,-0.005,-0.175
366,0.015,-0.135
367,0.035,-0.195
368,0.035,-0.165
369,0.065,-0.145
370,0.085,-0.105
371,0.115,-0.095
372,0.155,-0.095
373,0.185,-0.055
374,0.225,-0.065
375,0.255,-0.035
376,0.275,-0.015
377,0.305,0.015
378,0.305,0.015
379,0.325,0.005
380,0.295,0.045
381,0.275,0.025
382,0.225,-0.005
383,0.175,-0.055
384,0.075,-0.025
385,0.035,-0.085
386,-0.025,-0.185
387,-0.055,-0.165
388,-0.075,-0.165
389,-0.115,-0.185
390,-0.135,-0.175
391,-0.135,-0.215
392,-0.135,-0.195
393,-0.145,-0.185
394,-0.155,-0.175
395,-0.155,-0.185
396,-0.135,-0.145
397,-0.145,-0.195
398,-0.135,-0.195
399,-0.135,-0.175
400,-0.145,-0.165
401,-0.115,-0.115
402,-0.135,-0.195
403,-0.115,-0.175
404,-0.095,-0.185
405,-0.095,-0.185
406,-0.085,-0.185
407,-0.085,-0.185
408,-0.075,-0.165
409,-0.085,-0.165
410,-0.085,-0.155
411,-0.075,-0.165
412,-0.075,-0.145
413,-0.065,-0.135
414,-0.095,-0.215
415,-0.065,-0.115
416,-0.075,-0.215
417,-0.065,-0.195
418,-0.085,-0.205
419,-0.085,-0.165
420,-0.085,-0.185
421,-0.075,-0.195
422,-0.085,-0.185
423,-0.095,-0.175
424,-0.095,-0.165
425,-0.105,-0.165
426,-0.085,-0.135
427,-0.095,-0.175
428,-0.085,-0.205
429,-0.095,-0.195
430,-0.105,-0.105
431,-0.085,-0.125
432,-0.085,-0.265
433,-0.075,-0.225
434,-0.105,-0.205
435,-0.105,-0.155
436,-0.095,-0.165
437,-0.085,-0.175
438,-0.095,-0.175
439,-0.095,-0.175
440,-0.105,-0.165
441,-0.085,-0.105
442,-0.095,-0.185
443,-0.095,-0.195
444,-0.105,-0.175
445,-0.085,-0.165
446,-0.085,-0.125
447,-0.085,-0.155
448,-0.105,-0.165
449,-0.085,-0.175
450,-0.095,-0.175
451,-0.115,-0.175
452,-0.075,-0.055
453,-0.085,-0.205
454,-0.095,-0.175
455,-0.075,-0.175
456,-0.075,-0.165
457,-0.075,-0.155
458,-0.095,-0.145
459,-0.085,-0.145
460,-0.085,-0.115
461,-0.095,-0.145
462,-0.085,-0.135
463,-0.085,-0.165
464,-0.095,-0.055
465,-0.085,-0.145
466,-0.085,-0.205
467,-0.085,-0.145
468,-0.065,-0.105
469,-0.085,-0.165
470,-0.075,-0.155
471,-0.085,-0.155
472,-0.065,-0.155
473,-0.075,-0.155
474,-0.075,-0.145
475,-0.055,-0.135
476,-0.065,-0.115
477,-0.085,-0.075
478,-0.035,-0.045
479,-0.075,-0.175
480,-0.085,-0.185
481,-0.085,-0.145
482,-0.065,-0.145
483,-0.055,-0.175
484,-0.075,-0.135
485,-0.075,-0.205
486,-0.055,-0.185
487,-0.075,-0.175
488,-0.095,-0.175
489,-0.085,-0.135
490,-0.095,-0.135
491,-0.085,-0.115
492,-0.075,-0.135
493,-0.105,-0.115
494,-0.045,-0.035
495,-0.075,-0.165
496,0.035,-0.095
497,0.335,-0.075
498,0.970,-0.075
499,1.425,-0.125
500,1.325,-0.215
501,0.685,-0.005
502,0.045,0.335
503,-0.575,0.545
504,-0.495,0.575
505,-0.485,0.615
506,-0.515,0.745
507,-0.515,0.865
508,-0.405,0.895
509,-0.245,0.725
510,-0.135,0.245
511,-0.125,-0.075
512,-0.145,-0.145
513,-0.145,-0.145
514,-0.135,-0.165
515,-0.125,-0.205
516,-0.115,-0.175
517,-0.125,-0.205
518,-0.115,-0.155
519,-0.115,-0.195
520,-0.105,-0.125
521,-0.085,-0.175
522,-0.105,-0.265
523,-0.095,-0.235
524,-0.085,-0.195
525,-0.085,-0.185
526,-0.085,-0.175
527,-0.085,-0.175
528,-0.075,-0.165
529,-0.055,-0.145
530,-0.075,-0.145
531,-0.055,-0.115
532,-0.025,-0.175
533,-0.025,-0.175
534,-0.005,-0.135
535,0.015,-0.055
536,0.065,-0.025
537,0.075,-0.125
538,0.105,-0.145
539,0.125,-0.105
540,0.175,-0.055
541,0.205,-0.005
542,0.245,-0.005
543,0.255,0.025
544,0.275,0.035
545,0.285,0.055
546,0.285,0.065
547,0.275,0.035
548,0.225,0.035
549,0.165,0.005
550,0.095,-0.005
551,0.025,-0.045
552,-0.025,-0.045
553,-0.055,-0.115
554,-0.105,-0.155
555,-0.145,-0.185
556,-0.155,-0.185
557,-0.165,-0.125
558,-0.165,-0.205
559,-0.185,-0.205
560,-0.185,-0.095
561,-0.175,-0.145
562,-0.195,-0.235
563,-0.175,-0.195
564,-0.185,-0.185
565,-0.185,-0.155
566,-0.185,-0.165
567,-0.165,-0.135
568,-0.155,-0.115
569,-0.155,-0.155
570,-0.165,-0.155
571,-0.135,-0.155
572,-0.155,-0.175
573,-0.125,-0.055
574,-0.105,-0.155
575,-0.115,-0.225
576,-0.115,-0.175
577,-0.105,-0.145
578,-0.115,-0.145
579,-0.095,-0.135
580,-0.115,-0.135
581,-0.115,-0.165
582,-0.105,-0.145
583,-0.115,-0.135
584,-0.125,-0.145
585,-0.115,-0.155
586,-0.125,-0.165
587,-0.125,-0.165
588,-0.115,-0.065
589,-0.115,-0.165
590,-0.115,-0.215
591,-0.125,-0.185
592,-0.125,-0.165
593,-0.135,-0.165
594,-0.115,-0.115
595,-0.115,-0.165
596,-0.115,-0.115
597,-0.125,-0.155
598,-0.115,-0.165
599,-0.115,-0.155
600,-0.115,-0.165
601,-0.125,-0.125
602,-0.105,-0.115
603,-0.115,-0.215
604,-0.105,-0.165
605,-0.115,-0.145
606,-0.125,-0.155
607,-0.105,-0.095
608,-0.115,-0.155
609,-0.105,-0.115
610,-0.105,-0.135
611,-0.095,-0.155
612,-0.095,-0.135
613,-0.105,-0.125
614,-0.105,-0.125
615,-0.095,-0.035
616,-0.105,-0.075
617,-0.105,-0.185
618,-0.105,-0.165
619,-0.115,-0.155
620,-0.095,-0.065
621,-0.085,-0.125
622,-0.095,-0.135
623,-0.085,-0.125
624,-0.085,-0.115
625,-0.095,-0.105
626,-0.105,-0.105
627,-0.095,-0.065
628,-0.085,-0.095
629,-0.095,-0.105
630,-0.075,-0.045
631,-0.065,-0.105
632,-0.085,-0.145
633,-0.095,-0.135
634,-0.095,-0.135
635,-0.075,-0.115
636,-0.065,-0.085
637,-0.075,-0.135
638,-0.085,-0.105
639,-0.075,-0.095
640,-0.065,-0.085
641,-0.065,-0.105
642,-0.065,-0.105
643,-0.055,-0.105
644,-0.035,-0.075
645,-0.065,-0.085
646,-0.035,0.075
647,-0.045,-0.115
648,-0.045,-0.125
649,-0.065,-0.145
650,-0.065,-0.085
651,-0.055,-0.135
652,-0.045,-0.145
653,-0.055,-0.145
654,-0.045,-0.135
655,-0.055,-0.115
656,-0.055,-0.115
657,-0.085,-0.125
658,-0.075,-0.075
659,-0.065,-0.095
660,-0.055,-0.105
661,-0.075,-0.065
662,-0.025,-0.045
663,-0.045,-0.145
664,-0.065,-0.095
665,0.035,-0.005
666,0.295,-0.025
667,0.930,-0.035
668,1.405,-0.065
669,1.385,-0.175
670,0.815,-0.025
671,0.175,0.355
672,-0.465,0.635
673,-0.475,0.745
674,-0.475,0.735
675,-0.465,0.825
676,-0.545,0.895
677,-0.435,0.955
678,-0.265,0.995
679,-0.115,0.535
680,-0.105,0.015
681,-0.105,-0.065
682,-0.105,-0.095
683,-0.085,-0.115
684,-0.095,-0.175
685,-0.095,-0.175
686,-0.075,-0.165
687,-0.075,-0.135
688,-0.065,-0.185
689,-0.065,-0.165
690,-0.065,-0.165
691,-0.075,-0.135
692,-0.055,-0.105
693,-0.065,-0.205
694,-0.045,-0.145
695,-0.035,-0.155
696,-0.035,-0.165
697,-0.035,-0.145
698,-0.025,-0.135
699,-0.015,-0.145
700,-0.015,-0.125
701,0.005,-0.075
702,0.005,-0.135
703,0.025,-0.115
704,0.045,-0.045
705,0.075,-0.025
706,0.105,-0.065
707,0.125,-0.105
708,0.165,-0.045
709,0.195,-0.025
710,0.225,0.015
711,0.255,0.025
712,0.275,0.065
713,0.305,0.085
714,0.305,0.065
715,0.305,0.065
716,0.295,0.075
717,0.225,0.115
718,0.195,0.125
719,0.135,-0.045
720,0.065,-0.095
721,0.005,-0.085
722,-0.045,-0.095
723,-0.075,-0.115
724,-0.105,-0.135
725,-0.115,-0.145
726,-0.115,-0.145
727,-0.135,-0.145
728,-0.125,-0.145
729,-0.135,-0.155
730,-0.145,-0.165
731,-0.145,-0.145
732,-0.145,-0.115
733,-0.125,-0.105
734,-0.115,-0.185
735,-0.115,-0.205
736,-0.105,-0.145
737,-0.125,-0.135
738,-0.135,-0.125
739,-0.115,-0.125
740,-0.095,-0.085
741,-0.085,-0.125
742,-0.085,-0.125
743,-0.065,-0.095
744,-0.075,-0.145
745,-0.075,-0.155
746,-0.085,-0.135
747,-0.075,-0.125
748,-0.085,-0.145
749,-0.055,-0.005
750,-0.065,-0.185
751,-0.075,-0.195
752,-0.075,-0.155
753,-0.095,-0.145
754,-0.085,-0.115
755,-0.085,-0.135
756,-0.095,-0.145
757,-0.075,-0.125
758,-0.075,-0.115
759,-0.085,-0.145
760,-0.085,-0.155
761,-0.095,-0.145
762,-0.105,-0.165
763,-0.085,-0.125
764,-0.095,-0.165
765,-0.085,-0.165
766,-0.085,-0.145
767,-0.085,-0.145
768,-0.085,-0.125
769,-0.075,-0.145
770,-0.105,-0.165
771,-0.075,-0.045
772,-0.075,-0.175
773,-0.075,-0.165
774,-0.075,-0.155
775,-0.075,-0.145
776,-0.085,-0.125
777,-0.075,-0.125
778,-0.075,-0.125
779,-0.075,-0.175
780,-0.065,-0.145
781,-0.075,-0.135
782,-0.065,-0.135
783,-0.065,-0.105
784,-0.055,-0.145
785,-0.055,-0.135
786,-0.065,-0.125
787,-0.075,-0.125
788,-0.055,-0.025
789,-0.055,-0.145
790,-0.055,-0.165
791,-0.055,-0.135
792,-0.055,-0.105
793,-0.055,-0.095
794,-0.055,-0.145
795,-0.055,-0.135
796,-0.035,-0.095
797,-0.065,-0.165
798,-0.035,-0.105
799,-0.045,-0.185
800,-0.055,-0.135
801,-0.065,-0.145
802,-0.055,-0.125
803,-0.045,-0.125
804,-0.055,-0.105
805,-0.045,-0.105
806,-0.055,-0.115
807,-0.055,-0.125
808,-0.045,-0.095
809,-0.045,-0.095
810,-0.045,-0.095
811,-0.045,-0.145
812,-0.025,-0.045
813,-0.005,-0.175
814,-0.015,-0.085
815,-0.025,-0.135
816,-0.005,-0.105
817,-0.045,-0.095
818,-0.055,-0.125
819,-0.045,-0.145
820,-0.035,-0.135
821,-0.025,-0.145
822,-0.025,-0.135
823,-0.025,-0.125
824,-0.025,-0.155
825,-0.035,-0.095
826,-0.065,-0.165
827,-0.055,-0.025
828,-0.025,-0.095
829,-0.035,-0.175
830,-0.025,-0.165
831,-0.025,-0.135
832,-0.025,-0.115
833,-0.035,-0.115
834,-0.025,-0.085
835,0.135,-0.075
836,0.485,-0.015
837,1.115,0.025
838,1.375,-0.095
839,1.205,-0.285
840,0.565,-0.045
841,-0.075,0.405
842,-0.485,0.615
843,-0.435,0.715
844,-0.375,0.765
845,-0.415,0.745
846,-0.435,0.845
847,-0.355,0.935
848,-0.225,0.885
849,-0.075,0.445
850,-0.085,-0.005
851,-0.095,-0.085
852,-0.085,-0.135
853,-0.065,-0.135
854,-0.055,-0.155
855,-0.065,-0.195
856,-0.075,-0.175
857,-0.045,-0.215
858,-0.085,-0.165
859,-0.045,-0.165
860,-0.055,-0.235
861,-0.035,-0.175
862,-0.035,-0.235
863,-0.035,-0.195
864,-0.025,-0.205
865,-0.015,-0.215
866,-0.035,-0.175
867,-0.015,-0.175
868,-0.015,-0.165
869,0.005,-0.155
870,0.005,-0.145
871,0.035,-0.145
872,0.035,-0.075
873,0.055,-0.025
874,0.055,-0.195
875,0.085,-0.175
876,0.115,-0.115
877,0.145,-0.065
878,0.195,-0.035
879,0.215,-0.065
880,0.255,-0.075
881,0.275,-0.035
882,0.295,-0.005
883,0.325,0.015
884,0.345,0.015
885,0.315,0.065
886,0.345,0.095
887,0.285,-0.025
888,0.225,-0.035
889,0.165,-0.035
890,0.085,-0.075
891,0.035,-0.095
892,-0.005,-0.125
893,-0.065,-0.155
894,-0.055,-0.085
895,-0.095,-0.195
896,-0.095,-0.215
897,-0.105,-0.225
898,-0.125,-0.205
899,-0.115,-0.195
900,-0.125,-0.195
901,-0.125,-0.075
902,-0.115,-0.195
903,-0.115,-0.225
904,-0.115,-0.185
905,-0.105,-0.155
906,-0.115,-0.165
907,-0.095,-0.155
908,-0.085,-0.175
909,-0.085,-0.185
910,-0.085,-0.165
911,-0.085,-0.165
912,-0.075,-0.155
913,-0.065,-0.145
914,-0.075,-0.175
915,-0.055,-0.055
916,-0.025,-0.165
917,-0.055,-0.225
918,-0.045,-0.175
919,-0.055,-0.175
920,-0.055,-0.185
921,-0.065,-0.205
922,-0.055,-0.175
923,-0.055,-0.175
924,-0.055,-0.175
925,-0.065,-0.175
926,-0.065,-0.155
927,-0.065,-0.185
928,-0.075,-0.185
929,-0.065,-0.065
930,-0.075,-0.215
931,-0.065,-0.225
932,-0.065,-0.185
933,-0.075,-0.155
934,-0.065,-0.095
935,-0.055,-0.205
936,-0.075,-0.215
937,-0.065,-0.205
938,-0.075,-0.145
939,-0.065,-0.185
940,-0.065,-0.175
941,-0.085,-0.175
942,-0.075,-0.165
943,-0.065,-0.165
944,-0.075,-0.175
945,-0.045,-0.065
946,-0.055,-0.195
947,-0.075,-0.185
948,-0.065,-0.175
949,-0.065,-0.125
950,-0.055,-0.175
951,-0.055,-0.105
952,-0.045,-0.195
953,-0.065,-0.205
954,-0.065,-0.185
955,-0.055,-0.165
956,-0.055,-0.155
957,-0.085,-0.165
958,-0.045,-0.065
959,-0.045,-0.195
960,-0.055,-0.155
961,-0.055,-0.175
962,-0.055,-0.115
963,-0.045,-0.155
964,-0.035,-0.165
965,-0.065,-0.175
966,-0.055,-0.155
967,-0.045,-0.135
968,-0.045,-0.135
969,-0.045,-0.145
970,-0.075,-0.105
971,-0.035,-0.085
972,-0.045,-0.225
973,-0.045,-0.185
974,-0.055,-0.155
975,-0.045,-0.145
976,-0.035,-0.115
977,-0.045,-0.165
978,-0.045,-0.145
979,-0.035,-0.135
980,-0.025,-0.145
981,-0.025,-0.115
982,-0.035,-0.125
983,-0.025,-0.015
984,-0.035,-0.185
985,-0.055,-0.175
986,-0.045,-0.155
987,-0.045,-0.195
988,-0.015,-0.135
989,-0.035,-0.195
990,-0.045,-0.185
991,-0.045,-0.165
992,-0.055,-0.165
993,-0.065,-0.155
994,-0.095,-0.115
995,-0.045,-0.085
996,-0.035,-0.195
997,-0.035,-0.175
998,-0.035,-0.155
999,-0.075,-0.145
1000,-0.005,0.015
1001,0.145,-0.125
1002,0.545,-0.095
1003,1.180,-0.085
1004,1.505,-0.145
1005,1.255,-0.215
1006,0.615,0.055
1007,-0.025,0.365
1008,-0.555,0.525
1009,-0.465,0.585
1010,-0.485,0.595
1011,-0.455,0.785
1012,-0.455,0.775
1013,-0.395,0.825
1014,-0.235,0.705
1015,-0.115,0.265
1016,-0.115,-0.085
1017,-0.105,-0.075
1018,-0.105,-0.165
1019,-0.105,-0.205
1020,-0.095,-0.185
1021,-0.095,-0.195
1022,-0.105,-0.195
1023,-0.095,-0.155
1024,-0.065,-0.205
1025,-0.075,-0.215
1026,-0.085,-0.205
1027,-0.085,-0.205
1028,-0.075,-0.185
1029,-0.075,-0.185
1030,-0.075,-0.115
1031,-0.055,-0.095
1032,-0.025,-0.195
1033,-0.055,-0.245
1034,-0.055,-0.215
1035,-0.035,-0.195
1036,-0.025,-0.175
1037,-0.015,-0.155
1038,0.005,-0.155
1039,0.015,-0.145
1040,0.035,-0.125
1041,0.045,-0.105
1042,0.085,-0.075
1043,0.095,-0.085
1044,0.135,-0.065
1045,0.175,-0.055
1046,0.215,-0.055
1047,0.235,0.015
1048,0.285,-0.025
1049,0.305,0.025
1050,0.305,0.005
1051,0.305,0.025
1052,0.275,0.035
1053,0.275,0.105
1054,0.235,-0.025
1055,0.155,-0.065
1056,0.085,-0.035
1057,0.015,-0.065
1058,-0.045,-0.105
1059,-0.085,-0.165
1060,-0.135,-0.175
1061,-0.135,-0.155
1062,-0.155,-0.155
1063,-0.155,-0.225
1064,-0.165,-0.215
1065,-0.175,-0.195
1066,-0.185,-0.185
1067,-0.185,-0.175
1068,-0.185,-0.195
1069,-0.175,-0.185
1070,-0.185,-0.185
1071,-0.165,-0.135
1072,-0.165,-0.185
1073,-0.165,-0.195
1074,-0.165,-0.175
1075,-0.165,-0.185
1076,-0.145,-0.065
1077,-0.125,-0.165
1078,-0.115,-0.215
1079,-0.125,-0.185
1080,-0.115,-0.165
1081,-0.115,-0.185
1082,-0.115,-0.175
1083,-0.115,-0.175
1084,-0.105,-0.175
1085,-0.115,-0.175
1086,-0.105,-0.165
1087,-0.115,-0.155
1088,-0.125,-0.175
1089,-0.115,-0.175
1090,-0.125,-0.165
1091,-0.125,-0.175
1092,-0.125,-0.165
1093,-0.125,-0.185
1094,-0.115,-0.165
1095,-0.125,-0.185
1096,-0.125,-0.185
1097,-0.135,-0.165
1098,-0.135,-0.165
1099,-0.115,-0.185
1100,-0.135,-0.195
1101,-0.145,-0.175
1102,-0.125,-0.165
1103,-0.135,-0.185
1104,-0.115,-0.165
1105,-0.135,-0.185
1106,-0.145,-0.185
1107,-0.125,-0.165
1108,-0.125,-0.115
1109,-0.135,-0.145
1110,-0.115,-0.215
1111,-0.125,-0.255
1112,-0.125,-0.215
1113,-0.135,-0.185
1114,-0.135,-0.175
1115,-0.125,-0.185
1116,-0.135,-0.165
1117,-0.125,-0.155
1118,-0.115,-0.165
1119,-0.135,-0.185
1120,-0.135,-0.145
1121,-0.125,-0.165
1122,-0.135,-0.165
1123,-0.125,-0.165
1124,-0.115,-0.155
1125,-0.145,-0.165
1126,-0.125,-0.145
1127,-0.125,-0.185
1128,-0.135,-0.155
1129,-0.135,-0.135
1130,-0.115,-0.135
1131,-0.125,-0.185
1132,-0.125,-0.175
1133,-0.125,-0.155
1134,-0.115,-0.155
1135,-0.135,-0.055
1136,-0.105,-0.175
1137,-0.115,-0.215
1138,-0.135,-0.185
1139,-0.125,-0.155
1140,-0.115,-0.165
1141,-0.125,-0.145
1142,-0.105,-0.145
1143,-0.105,-0.155
1144,-0.115,-0.145
1145,-0.115,-0.175
1146,-0.115,-0.165
1147,-0.125,-0.155
1148,-0.105,-0.145
1149,-0.075,-0.145
1150,-0.085,-0.145
1151,-0.105,-0.085
1152,-0.095,-0.145
1153,-0.105,-0.105
1154,-0.095,-0.135
1155,-0.095,-0.245
1156,-0.085,-0.235
1157,-0.095,-0.205
1158,-0.095,-0.195
1159,-0.085,-0.205
1160,-0.095,-0.175
1161,-0.115,-0.185
1162,-0.125,-0.135
1163,-0.105,-0.165
1164,-0.115,-0.155
1165,-0.105,-0.135
1166,-0.095,-0.145
1167,-0.085,-0.155
1168,-0.115,-0.145
1169,-0.095,-0.125
1170,0.085,-0.015
1171,0.505,-0.015
1172,1.140,-0.095
1173,1.395,-0.225
1174,1.115,-0.275
1175,0.475,0.075
1176,-0.165,0.505
1177,-0.595,0.695
1178,-0.515,0.705
1179,-0.515,0.745
1180,-0.565,0.845
1181,-0.555,0.895
1182,-0.445,0.945
1183,-0.235,0.815
1184,-0.135,0.255
1185,-0.145,-0.055
1186,-0.155,-0.125
1187,-0.125,-0.185
1188,-0.135,-0.195
1189,-0.125,-0.175
1190,-0.125,-0.225
1191,-0.125,-0.235
1192,-0.105,-0.105
1193,-0.095,-0.195
1194,-0.125,-0.295
1195,-0.105,-0.255
1196,-0.095,-0.205
1197,-0.095,-0.225
1198,-0.095,-0.215
1199,-0.095,-0.205
1200,-0.095,-0.175
1201,-0.055,-0.145
1202,-0.075,-0.215
1203,-0.065,-0.225
1204,-0.045,-0.205
1205,-0.045,-0.175
1206,-0.025,-0.175
1207,-0.025,-0.165
1208,-0.015,-0.135
1209,-0.005,-0.125
1210,0.015,-0.035
1211,0.055,-0.115
1212,0.095,-0.095
1213,0.125,-0.095
1214,0.155,-0.085
1215,0.195,-0.025
1216,0.215,-0.005
1217,0.235,0.005
1218,0.245,0.025
1219,0.275,0.025
1220,0.275,0.045
1221,0.255,0.045
1222,0.215,0.045
1223,0.165,0.005
1224,0.105,-0.025
1225,0.035,-0.055
1226,-0.025,-0.075
1227,-0.055,-0.165
1228,-0.105,-0.165
1229,-0.125,-0.185
1230,-0.135,-0.165
1231,-0.135,-0.205
1232,-0.155,-0.205
1233,-0.145,-0.195
1234,-0.175,-0.195
1235,-0.165,-0.185
1236,-0.155,-0.175
1237,-0.185,-0.195
1238,-0.155,-0.075
1239,-0.135,-0.145
1240,-0.125,-0.265
1241,-0.145,-0.275
1242,-0.145,-0.215
1243,-0.135,-0.195
1244,-0.125,-0.175
1245,-0.135,-0.165
1246,-0.115,-0.135
1247,-0.095,-0.155
1248,-0.105,-0.175
1249,-0.105,-0.165
1250,-0.105,-0.155
1251,-0.105,-0.165
1252,-0.095,-0.155
1253,-0.115,-0.155
1254,-0.085,-0.065
1255,-0.085,-0.205
1256,-0.105,-0.215
1257,-0.095,-0.185
1258,-0.105,-0.175
1259,-0.105,-0.175
1260,-0.105,-0.175
1261,-0.115,-0.175
1262,-0.115,-0.145
1263,-0.105,-0.165
1264,-0.115,-0.175
1265,-0.115,-0.165
1266,-0.115,-0.165
1267,-0.115,-0.165
1268,-0.105,-0.155
1269,-0.115,-0.165
1270,-0.105,-0.155
1271,-0.105,-0.175
1272,-0.105,-0.165
1273,-0.105,-0.155
1274,-0.115,-0.175
1275,-0.105,-0.165
1276,-0.115,-0.115
1277,-0.075,-0.025
1278,-0.085,-0.235
1279,-0.105,-0.235
1280,-0.085,-0.205
1281,-0.105,-0.175
1282,-0.095,-0.155
1283,-0.085,-0.175
1284,-0.105,-0.155
1285,-0.095,-0.155
1286,-0.095,-0.145
1287,-0.095,-0.145
1288,-0.095,-0.145
1289,-0.085,-0.135
1290,-0.085,-0.095
1291,-0.085,-0.175
1292,-0.095,-0.165
1293,-0.095,-0.145
1294,-0.075,-0.115
1295,-0.075,-0.155
1296,-0.075,-0.135
1297,-0.085,-0.155
1298,-0.095,-0.145
1299,-0.075,-0.135
1300,-0.085,-0.115
1301,-0.075,-0.125
1302,-0.085,-0.135
1303,-0.095,-0.135
1304,-0.085,-0.125
1305,-0.075,-0.115
1306,-0.085,-0.125
1307,-0.105,-0.155
1308,-0.065,0.025
1309,-0.045,-0.165
1310,-0.065,-0.215
1311,-0.065,-0.165
1312,-0.065,-0.125
1313,-0.055,-0.135
1314,-0.045,-0.165
1315,-0.045,-0.165
1316,-0.055,-0.115
1317,-0.055,-0.095
1318,-0.055,-0.095
1319,-0.065,-0.145
1320,-0.075,-0.155
1321,-0.065,-0.155
1322,-0.055,-0.165
1323,-0.075,-0.145
1324,-0.045,-0.165
1325,-0.055,-0.155
1326,-0.065,-0.145
1327,-0.085,-0.155
1328,-0.055,-0.035
1329,-0.075,-0.175
1330,-0.065,-0.085
1331,-0.055,-0.155
1332,-0.025,-0.165
1333,-0.045,-0.145
1334,-0.055,-0.095
1335,0.055,-0.125
1336,0.335,-0.065
1337,0.970,-0.045
1338,1.445,-0.105
1339,1.415,-0.205
1340,0.815,-0.045
1341,0.175,0.335
1342,-0.465,0.535
1343,-0.525,0.595
1344,-0.495,0.595
1345,-0.455,0.705
1346,-0.505,0.805
1347,-0.405,0.855
1348,-0.305,0.825
1349,-0.115,0.465
1350,-0.075,-0.045
1351,-0.095,-0.155
1352,-0.105,-0.195
1353,-0.075,-0.165
1354,-0.095,-0.215
1355,-0.075,-0.225
1356,-0.075,-0.195
1357,-0.075,-0.195
1358,-0.065,-0.185
1359,-0.065,-0.185
1360,-0.065,-0.185
1361,-0.055,-0.195
1362,-0.055,-0.185
1363,-0.045,-0.185
1364,-0.045,-0.185
1365,-0.055,-0.175
1366,-0.025,-0.135
1367,-0.015,-0.195
1368,-0.015,-0.165
1369,-0.005,-0.155
1370,0.005,-0.175
1371,0.005,-0.175
1372,0.035,-0.165
1373,0.045,-0.145
1374,0.085,-0.125
1375,0.095,-0.105
1376,0.125,-0.055
1377,0.145,-0.005
1378,0.185,0.025
1379,0.275,-0.025
1380,0.295,-0.115
1381,0.325,-0.055
1382,0.325,0.005
1383,0.345,0.025
1384,0.345,0.035
1385,0.335,0.035
1386,0.305,0.035
1387,0.255,0.025
1388,0.185,0.015
1389,0.105,-0.025
1390,0.045,-0.065
1391,-0.025,-0.105
1392,-0.075,-0.125
1393,-0.095,-0.105
1394,-0.155,-0.195
1395,-0.155,-0.205
1396,-0.175,-0.225
1397,-0.205,-0.165
1398,-0.165,-0.175
1399,-0.175,-0.245
1400,-0.185,-0.215
1401,-0.195,-0.195
1402,-0.215,-0.185
1403,-0.205,-0.175
1404,-0.175,-0.175
1405,-0.195,-0.175
1406,-0.175,-0.175
1407,-0.165,-0.175
1408,-0.165,-0.155
1409,-0.145,-0.165
1410,-0.165,-0.165
1411,-0.145,-0.175
1412,-0.155,-0.165
1413,-0.135,-0.165
1414,-0.125,-0.175
1415,-0.135,-0.185
1416,-0.115,-0.155
1417,-0.145,-0.175
1418,-0.145,-0.175
1419,-0.125,-0.175
1420,-0.125,-0.175
1421,-0.135,-0.175
1422,-0.125,-0.165
1423,-0.135,-0.165
1424,-0.145,-0.175
1425,-0.135,-0.155
1426,-0.145,-0.195
1427,-0.145,-0.215
1428,-0.155,-0.195
1429,-0.145,-0.175
1430,-0.135,-0.175
1431,-0.155,-0.175
1432,-0.155,-0.175
1433,-0.135,-0.155
1434,-0.165,-0.195
1435,-0.155,-0.195
1436,-0.135,-0.185
1437,-0.145,-0.165
1438,-0.145,-0.165
1439,-0.155,-0.165
1440,-0.145,-0.155
1441,-0.135,-0.165
1442,-0.165,-0.175
1443,-0.155,-0.165
1444,-0.125,-0.155
1445,-0.145,-0.175
1446,-0.135,-0.115
1447,-0.145,-0.185
1448,-0.155,-0.185
1449,-0.145,-0.185
1450,-0.145,-0.165
1451,-0.145,-0.175
1452,-0.135,-0.145
1453,-0.125,-0.165
1454,-0.135,-0.165
1455,-0.145,-0.145
1456,-0.135,-0.145
1457,-0.125,-0.155
1458,-0.145,-0.145
1459,-0.135,-0.045
1460,-0.125,-0.185
1461,-0.125,-0.215
1462,-0.125,-0.185
1463,-0.135,-0.165
1464,-0.135,-0.145
1465,-0.135,-0.135
1466,-0.145,-0.135
1467,-0.125,-0.145
1468,-0.095,-0.145
1469,-0.115,-0.135
1470,-0.105,-0.135
1471,-0.095,-0.145
1472,-0.085,-0.135
1473,-0.145,-0.135
1474,-0.135,-0.135
1475,-0.115,-0.135
1476,-0.115,-0.125
1477,-0.095,-0.135
1478,-0.085,-0.105
1479,-0.075,-0.075
1480,-0.045,-0.085
1481,-0.055,-0.145
1482,-0.075,-0.125
1483,-0.075,-0.135
1484,-0.115,-0.185
1485,-0.135,-0.155
1486,-0.075,-0.135
1487,-0.085,-0.215
1488,-0.085,-0.195
1489,-0.075,-0.175
1490,-0.095,-0.155
1491,-0.115,-0.165
1492,-0.115,-0.155
1493,-0.115,-0.135
1494,-0.115,-0.135
1495,-0.105,-0.105
1496,-0.095,-0.135
1497,-0.075,-0.105
1498,-0.085,-0.155
1499,-0.085,-0.155
1500,0.005,-0.115
1501,0.315,-0.045
1502,0.950,-0.035
1503,1.395,-0.115
1504,1.325,-0.215
1505,0.685,-0.025
1506,0.045,0.385
1507,-0.525,0.555
1508,-0.475,0.635
1509,-0.465,0.615
1510,-0.495,0.735
1511,-0.485,0.835
1512,-0.395,0.875
1513,-0.255,0.755
1514,-0.145,0.325
1515,-0.155,-0.055
1516,-0.145,-0.125
1517,-0.085,-0.145
1518,-0.095,-0.175
1519,-0.125,-0.165
1520,-0.125,-0.185
1521,-0.105,-0.205
1522,-0.125,-0.205
1523,-0.105,-0.175
1524,-0.105,-0.155
1525,-0.095,-0.205
1526,-0.065,-0.205
1527,-0.095,-0.215
1528,-0.085,-0.195
1529,-0.075,-0.185
1530,-0.065,-0.175
1531,-0.065,-0.195
1532,-0.045,-0.065
1533,-0.035,-0.205
1534,-0.035,-0.225
1535,0.065,-0.195
1536,-0.015,-0.175
1537,0.065,-0.145
1538,-0.065,-0.155
1539,0.025,-0.105
1540,0.065,-0.115
1541,0.045,-0.085
1542,0.085,-0.065
1543,0.145,-0.105
1544,0.185,-0.065
1545,0.255,-0.035
1546,0.225,-0.025
1547,0.275,-0.015
1548,0.315,0.085
1549,0.295,-0.005
1550,0.295,-0.015
1551,0.285,-0.005
1552,0.235,0.025
1553,0.175,-0.015
1554,0.085,-0.075
1555,0.025,-0.095
1556,-0.035,-0.115
1557,-0.075,-0.135
1558,-0.105,-0.185
1559,-0.185,-0.185
1560,-0.175,-0.125
1561,-0.155,-0.225
1562,-0.195,-0.255
1563,-0.215,-0.225
1564,-0.185,-0.165
1565,-0.185,-0.245
1566,-0.155,-0.255
1567,-0.205,-0.235
1568,-0.205,-0.215
1569,-0.205,-0.195
1570,-0.175,-0.205
1571,-0.105,-0.195
1572,-0.185,-0.185
1573,-0.225,-0.195
1574,-0.165,-0.175
1575,-0.125,-0.185
1576,-0.125,-0.165
1577,-0.155,-0.165
1578,-0.155,-0.165
1579,-0.125,-0.175
1580,-0.095,-0.175
1581,-0.135,-0.185
1582,-0.105,-0.145
1583,-0.105,-0.205
1584,-0.025,-0.205
1585,-0.125,-0.115
1586,-0.165,-0.215
1587,-0.185,-0.115
1588,-0.125,-0.145
1589,-0.115,-0.275
1590,-0.105,-0.245
1591,-0.125,-0.215
1592,-0.085,-0.185
1593,-0.115,-0.175
1594,-0.135,-0.175
1595,-0.065,-0.185
1596,-0.105,-0.195
1597,-0.215,-0.185
1598,-0.205,-0.165
1599,-0.135,-0.155
1600,-0.145,-0.175
1601,-0.125,-0.135
1602,-0.125,-0.185
1603,-0.115,-0.225
1604,-0.125,-0.195
1605,-0.115,-0.185
1606,-0.065,-0.155
1607,-0.165,-0.175
1608,-0.055,-0.185
1609,-0.195,-0.185
1610,-0.145,-0.175
1611,-0.135,-0.165
1612,-0.115,-0.165
1613,-0.135,-0.155
1614,-0.115,-0.155
1615,-0.125,-0.175
1616,-0.165,-0.165
1617,-0.145,-0.135
1618,-0.135,-0.165
1619,-0.085,-0.165
1620,-0.135,-0.125
1621,-0.145,-0.185
1622,-0.135,-0.155
1623,-0.115,-0.155
1624,-0.095,-0.145
1625,-0.105,-0.145
1626,-0.145,-0.145
1627,-0.135,-0.145
1628,-0.115,-0.145
1629,-0.095,-0.155
1630,-0.065,-0.105
1631,-0.115,-0.175
1632,-0.145,-0.135
1633,-0.045,-0.115
1634,-0.115,-0.105
1635,-0.145,-0.195
1636,-0.115,-0.165
1637,-0.065,-0.125
1638,-0.065,-0.095
1639,-0.045,-0.065
1640,-0.035,-0.075
1641,-0.025,-0.125
1642,-0.035,-0.175
1643,-0.055,-0.185
1644,-0.005,-0.175
1645,-0.125,-0.185
1646,-0.065,-0.185
1647,-0.025,-0.085
1648,-0.075,-0.095
1649,-0.085,-0.145
1650,-0.115,-0.225
1651,-0.115,-0.195
1652,-0.055,-0.165
1653,-0.135,-0.145
1654,-0.125,-0.125
1655,-0.115,-0.115
1656,-0.105,-0.105
1657,-0.015,-0.085
1658,0.265,-0.045
1659,0.900,-0.045
1660,1.405,-0.075
1661,1.415,-0.175
1662,0.805,-0.035
1663,0.165,0.415
1664,-0.475,0.625
1665,-0.535,0.755
1666,-0.545,0.705
1667,-0.515,0.685
1668,-0.535,0.815
1669,-0.425,0.925
1670,-0.285,0.835
1671,-0.105,0.335
1672,-0.185,-0.035
1673,-0.155,-0.105
1674,-0.155,-0.145
1675,-0.155,-0.165
1676,-0.135,-0.175
1677,-0.115,-0.195
1678,-0.115,-0.205
1679,-0.105,-0.195
1680,-0.095,-0.205
1681,-0.055,-0.195
1682,-0.075,-0.205
1683,-0.105,-0.195
1684,-0.125,-0.175
1685,-0.115,-0.185
1686,-0.085,-0.175
1687,-0.085,-0.165
1688,-0.045,-0.165
1689,-0.065,-0.175
1690,-0.035,-0.165
1691,-0.045,-0.155
1692,-0.025,-0.125
1693,-0.045,-0.135
1694,-0.025,-0.145
1695,0.025,-0.125
1696,0.065,-0.125
1697,0.055,-0.105
1698,0.075,-0.085
1699,0.105,-0.065
1700,0.115,-0.035
1701,0.175,-0.015
1702,0.195,0.025
1703,0.235,0.005
1704,0.285,0.045
1705,0.285,0.045
1706,0.315,0.045
1707,0.315,0.045
1708,0.295,0.045
1709,0.245,0.055
1710,0.235,0.065
1711,0.155,-0.005
1712,0.105,-0.045
1713,0.015,-0.075
1714,-0.015,-0.105
1715,-0.075,-0.145
1716,-0.105,-0.165
1717,-0.145,-0.155
1718,-0.125,-0.175
1719,-0.135,-0.175
1720,-0.125,-0.185
1721,-0.125,-0.165
1722,-0.185,-0.185
1723,-0.155,-0.155
1724,-0.145,-0.175
1725,-0.145,-0.165
1726,-0.155,-0.165
1727,-0.145,-0.155
1728,-0.135,-0.155
1729,-0.125,-0.155
1730,-0.125,-0.155
1731,-0.075,-0.155
1732,-0.115,-0.145
1733,-0.145,-0.155
1734,-0.125,-0.155
1735,-0.125,-0.145
1736,-0.095,-0.155
1737,-0.105,-0.165
1738,-0.125,-0.155
1739,-0.105,-0.165
1740,-0.085,-0.155
1741,-0.035,-0.165
1742,-0.105,-0.175
1743,-0.105,-0.165
1744,-0.055,-0.175
1745,-0.155,-0.175
1746,-0.165,-0.165
1747,-0.125,-0.165
1748,-0.105,-0.165
1749,-0.105,-0.175
1750,-0.095,-0.175
1751,-0.105,-0.165
1752,-0.105,-0.175
1753,-0.105,-0.175
1754,-0.095,-0.175
1755,-0.095,-0.185
1756,-0.125,-0.175
1757,-0.085,-0.165
1758,-0.155,-0.205
1759,-0.135,-0.165
1760,-0.105,-0.165
1761,-0.105,-0.175
1762,-0.115,-0.175
1763,-0.115,-0.175
1764,-0.105,-0.155
1765,-0.105,-0.175
1766,-0.095,-0.175
1767,-0.095,-0.175
1768,-0.115,-0.175
1769,-0.065,-0.165
1770,-0.105,-0.185
1771,-0.115,-0.185
1772,-0.145,-0.165
1773,-0.115,-0.165
1774,-0.085,-0.145
1775,-0.085,-0.175
1776,-0.095,-0.165
1777,-0.085,-0.165
1778,-0.115,-0.165
1779,-0.095,-0.145
1780,-0.065,-0.155
1781,-0.085,-0.165
1782,-0.075,-0.155
1783,-0.095,-0.155
1784,-0.075,-0.135
1785,-0.105,-0.155
1786,-0.115,-0.165
1787,-0.095,-0.145
1788,-0.035,-0.135
1789,-0.015,-0.105
1790,-0.005,-0.095
1791,-0.025,-0.095
1792,-0.005,-0.125
1793,-0.005,-0.175
1794,-0.045,-0.205
1795,0.005,-0.165
1796,-0.055,-0.195
1797,-0.075,-0.175
1798,-0.075,-0.165
1799,-0.075,-0.165
1800,-0.085,-0.125
1801,-0.075,-0.145
1802,-0.115,-0.155
1803,-0.105,-0.155
1804,-0.105,-0.135
1805,-0.075,-0.135
1806,-0.055,-0.135
1807,-0.095,-0.105
1808,0.015,-0.105
1809,0.255,-0.045
1810,0.890,-0.045
1811,1.385,-0.105
1812,1.365,-0.235
1813,0.815,-0.075
1814,0.175,0.385
1815,-0.465,0.645
1816,-0.535,0.725
1817,-0.515,0.715
1818,-0.535,0.825
1819,-0.545,0.935
1820,-0.415,0.965
1821,-0.235,0.895
1822,-0.085,0.395
1823,-0.125,-0.025
1824,-0.145,-0.115
1825,-0.135,-0.145
1826,-0.145,-0.155
1827,-0.125,-0.195
1828,-0.105,-0.195
1829,-0.095,-0.205
1830,-0.075,-0.215
1831,-0.095,-0.215
1832,-0.055,-0.205
1833,-0.075,-0.225
1834,-0.095,-0.205
1835,0.025,-0.205
1836,-0.105,-0.225
1837,-0.145,-0.205
1838,-0.105,-0.185
1839,-0.065,-0.205
1840,-0.055,-0.195
1841,-0.045,-0.195
1842,-0.055,-0.195
1843,-0.025,-0.185
1844,-0.015,-0.165
1845,-0.015,-0.165
1846,0.035,-0.155
1847,-0.005,-0.145
1848,0.045,-0.125
1849,0.075,-0.115
1850,0.095,-0.105
1851,0.135,-0.085
1852,0.165,-0.065
1853,0.185,-0.055
1854,0.265,-0.045
1855,0.255,-0.035
1856,0.255,-0.015
1857,0.225,0.005
1858,0.225,0.015
1859,0.235,0.005
1860,0.215,0.015
1861,0.145,-0.005
1862,0.155,-0.035
1863,0.075,-0.075
1864,-0.005,-0.105
1865,-0.065,-0.135
1866,-0.085,-0.145
1867,-0.095,-0.175
1868,-0.135,-0.185
1869,-0.125,-0.195
1870,-0.145,-0.195
1871,-0.135,-0.205
1872,-0.135,-0.195
1873,-0.115,-0.185
1874,-0.165,-0.195
1875,-0.155,-0.185
1876,-0.055,-0.165
1877,-0.105,-0.165
1878,-0.165,-0.175
1879,-0.135,-0.155
1880,-0.115,-0.165
1881,-0.105,-0.155
1882,-0.095,-0.165
1883,-0.105,-0.165
1884,-0.085,-0.155
1885,-0.075,-0.165
1886,-0.085,-0.155
1887,-0.065,-0.165
1888,-0.065,-0.155
1889,-0.065,-0.165
1890,-0.075,-0.155
1891,-0.055,-0.175
1892,-0.075,-0.165
1893,-0.045,-0.155
1894,-0.055,-0.155
1895,-0.075,-0.175
1896,-0.065,-0.165
1897,-0.065,-0.165
1898,-0.065,-0.165
1899,-0.055,-0.175
1900,-0.065,-0.175
1901,-0.115,-0.165
1902,-0.085,-0.165
1903,-0.075,-0.165
1904,-0.075,-0.165
1905,-0.065,-0.155
1906,-0.055,-0.165
1907,-0.065,-0.165
1908,-0.055,-0.165
1909,-0.075,-0.165
1910,-0.045,-0.165
1911,-0.055,-0.165
1912,-0.065,-0.155
1913,-0.065,-0.155
1914,-0.055,-0.165
1915,-0.045,-0.165
1916,0.025,-0.155
1917,-0.045,-0.165
1918,-0.105,-0.165
1919,-0.045,-0.155
1920,-0.135,-0.155
1921,-0.065,-0.145
1922,-0.055,-0.145
1923,-0.025,-0.135
1924,-0.015,-0.105
1925,0.025,-0.095
1926,0.025,-0.095
1927,0.035,-0.125
1928,0.015,-0.175
1929,0.045,-0.205
1930,0.005,-0.185
1931,-0.005,-0.185
1932,0.005,-0.195
1933,0.005,-0.165
1934,-0.025,-0.175
1935,-0.065,-0.155
1936,-0.055,-0.145
1937,-0.055,-0.155
1938,-0.055,-0.155
1939,-0.055,-0.155
1940,-0.035,-0.145
1941,-0.025,-0.135
1942,-0.045,-0.135
1943,0.005,-0.125
1944,0.215,-0.095
1945,0.795,-0.065
1946,1.395,-0.105
1947,1.465,-0.255
1948,0.875,-0.185
1949,0.235,0.225
1950,-0.405,0.435
1951,-0.435,0.495
1952,-0.415,0.505
1953,-0.375,0.645
1954,-0.395,0.795
1955,-0.305,0.885
1956,-0.225,0.835
1957,-0.085,0.435
1958,-0.065,-0.035
1959,-0.065,-0.145
1960,-0.055,-0.165
1961,-0.045,-0.185
1962,-0.045,-0.205
1963,-0.035,-0.215
1964,-0.015,-0.205
1965,-0.035,-0.215
1966,-0.025,-0.215
1967,0.015,-0.225
1968,0.025,-0.225
1969,-0.015,-0.215
1970,-0.015,-0.215
1971,0.005,-0.205
1972,0.035,-0.205
1973,0.015,-0.195
1974,0.045,-0.205
1975,0.045,-0.205
1976,0.065,-0.205
1977,0.065,-0.195
1978,0.095,-0.185
1979,0.085,-0.185
1980,0.115,-0.195
1981,0.125,-0.175
1982,0.175,-0.155
1983,0.185,-0.155
1984,0.235,-0.145
1985,0.265,-0.125
1986,0.295,-0.115
1987,0.355,-0.115
1988,0.395,-0.085
1989,0.425,-0.075
1990,0.465,-0.075
1991,0.485,-0.065
1992,0.475,-0.045
1993,0.455,-0.035
1994,0.435,-0.015
1995,0.405,-0.035
1996,0.305,-0.045
1997,0.255,-0.065
1998,0.165,-0.085
1999,0.085,-0.125
2000,0.045,-0.145
2001,0.005,-0.165
2002,-0.045,-0.185
2003,-0.085,-0.185
2004,-0.055,-0.185
2005,-0.075,-0.185
2006,-0.085,-0.185
2007,-0.105,-0.185
2008,-0.105,-0.185
2009,-0.105,-0.175
2010,-0.125,-0.175
2011,-0.105,-0.175
2012,-0.095,-0.175
2013,-0.075,-0.165
2014,-0.085,-0.175
2015,-0.075,-0.175
2016,-0.055,-0.165
2017,-0.045,-0.165
2018,-0.055,-0.165
2019,-0.055,-0.165
2020,-0.075,-0.165
2021,-0.065,-0.155
2022,-0.035,-0.155
2023,-0.045,-0.175
2024,-0.035,-0.165
2025,-0.045,-0.165
2026,-0.055,-0.165
2027,-0.045,-0.175
2028,-0.065,-0.165
2029,-0.045,-0.175
2030,-0.065,-0.175
2031,-0.065,-0.175
2032,-0.075,-0.175
2033,-0.075,-0.175
2034,-0.085,-0.175
2035,-0.065,-0.165
2036,-0.065,-0.155
2037,-0.095,-0.175
2038,-0.095,-0.175
2039,-0.095,-0.175
2040,-0.065,-0.165
2041,-0.095,-0.165
2042,-0.095,-0.165
2043,-0.105,-0.165
2044,-0.095,-0.155
2045,-0.095,-0.165
2046,-0.085,-0.175
2047,-0.095,-0.165
2048,-0.105,-0.165
2049,-0.125,-0.155
2050,-0.115,-0.175
2051,-0.095,-0.175
2052,-0.085,-0.165
2053,-0.075,-0.165
2054,-0.065,-0.145
2055,-0.055,-0.125
2056,-0.015,-0.095
2057,-0.015,-0.095
2058,-0.015,-0.125
2059,-0.045,-0.175
2060,-0.045,-0.195
2061,-0.025,-0.205
2062,-0.045,-0.195
2063,-0.035,-0.195
2064,-0.055,-0.185
2065,-0.055,-0.165
2066,-0.085,-0.165
2067,-0.095,-0.145
2068,-0.105,-0.145
2069,-0.115,-0.145
2070,-0.105,-0.145
2071,-0.075,-0.135
2072,-0.075,-0.145
2073,-0.085,-0.145
2074,-0.095,-0.135
2075,-0.005,-0.115
2076,0.185,-0.075
2077,0.705,-0.045
2078,1.340,-0.075
2079,1.515,-0.205
2080,1.115,-0.225
2081,0.475,0.115
2082,-0.165,0.375
2083,-0.515,0.455
2084,-0.485,0.485
2085,-0.425,0.545
2086,-0.415,0.705
2087,-0.375,0.835
2088,-0.325,0.845
2089,-0.185,0.655
2090,-0.125,0.155
2091,-0.095,-0.105
2092,-0.105,-0.145
2093,-0.095,-0.155
2094,-0.075,-0.175
2095,-0.085,-0.185
2096,-0.085,-0.195
2097,-0.075,-0.195
2098,-0.075,-0.205
2099,-0.065,-0.205
2100,-0.065,-0.205
2101,-0.055,-0.195
2102,-0.055,-0.205
2103,-0.065,-0.205
2104,-0.065,-0.195
2105,-0.055,-0.195
2106,-0.045,-0.195
2107,-0.055,-0.195
2108,-0.035,-0.195
2109,-0.035,-0.185
2110,-0.015,-0.185
2111,0.005,-0.185
2112,0.025,-0.175
2113,0.025,-0.165
2114,0.005,-0.165
2115,0.085,-0.165
2116,0.125,-0.155
2117,0.135,-0.145
2118,0.165,-0.125
2119,0.225,-0.115
2120,0.275,-0.105
2121,0.295,-0.085
2122,0.315,-0.075
2123,0.345,-0.055
2124,0.355,-0.035
2125,0.355,-0.035
2126,0.335,-0.025
2127,0.285,-0.015
2128,0.225,-0.025
2129,0.145,-0.035
2130,0.055,-0.065
2131,0.005,-0.085
2132,-0.065,-0.095
2133,-0.115,-0.125
2134,-0.125,-0.135
2135,-0.165,-0.145
2136,-0.165,-0.155
2137,-0.195,-0.155
2138,-0.195,-0.155
2139,-0.195,-0.155
2140,-0.195,-0.145
2141,-0.215,-0.145
2142,-0.205,-0.145
2143,-0.195,-0.145
2144,-0.195,-0.135
2145,-0.205,-0.125
2146,-0.195,-0.115
2147,-0.195,-0.135
2148,-0.165,-0.125
2149,-0.165,-0.135
2150,-0.175,-0.125
2151,-0.165,-0.135
2152,-0.155,-0.125
2153,-0.145,-0.135
2154,-0.145,-0.135
2155,-0.145,-0.135
2156,-0.135,-0.125
2157,-0.125,-0.135
2158,-0.135,-0.135
2159,-0.145,-0.125
2160,-0.145,-0.135
2161,-0.175,-0.145
2162,-0.185,-0.125
2163,-0.135,-0.125
2164,-0.115,-0.135
2165,-0.165,-0.145
2166,-0.175,-0.135
2167,-0.155,-0.125
2168,-0.165,-0.115
2169,-0.155,-0.135
2170,-0.155,-0.145
2171,-0.165,-0.125
2172,-0.155,-0.125
2173,-0.165,-0.135
2174,-0.155,-0.135
2175,-0.165,-0.135
2176,-0.155,-0.135
2177,-0.145,-0.125
2178,-0.145,-0.115
2179,-0.135,-0.095
2180,-0.095,-0.065
2181,-0.095,-0.065
2182,-0.085,-0.075
2183,-0.105,-0.145
2184,-0.115,-0.195
2185,-0.085,-0.195
2186,-0.135,-0.165
2187,-0.125,-0.175
2188,-0.125,-0.175
2189,-0.115,-0.145
2190,-0.145,-0.135
2191,-0.165,-0.115
2192,-0.175,-0.135
2193,-0.175,-0.135
2194,-0.175,-0.135
2195,-0.145,-0.135
2196,-0.135,-0.125
2197,-0.135,-0.125
2198,-0.135,-0.115
2199,-0.125,-0.105
2200,0.045,-0.075
2201,0.505,-0.015
2202,1.140,-0.035
2203,1.455,-0.145
2204,1.175,-0.185
2205,0.535,0.175
2206,-0.105,0.495
2207,-0.645,0.595
2208,-0.565,0.615
2209,-0.555,0.665
2210,-0.585,0.765
2211,-0.555,0.855
2212,-0.465,0.895
2213,-0.285,0.735
2214,-0.175,0.255
2215,-0.155,-0.075
2216,-0.205,-0.135
2217,-0.185,-0.155
2218,-0.165,-0.185
2219,-0.155,-0.205
2220,-0.155,-0.205
2221,-0.165,-0.205
2222,-0.145,-0.215
2223,-0.155,-0.215
2224,-0.135,-0.205
2225,-0.135,-0.215
2226,-0.145,-0.205
2227,-0.125,-0.215
2228,-0.125,-0.215
2229,-0.115,-0.215
2230,-0.065,-0.195
2231,-0.085,-0.205
2232,-0.085,-0.205
2233,-0.095,-0.185
2234,-0.095,-0.185
2235,-0.075,-0.185
2236,-0.055,-0.175
2237,-0.045,-0.165
2238,-0.005,-0.145
2239,0.015,-0.125
2240,0.065,-0.145
2241,0.075,-0.125
2242,0.105,-0.095
2243,0.145,-0.095
2244,0.185,-0.065
2245,0.225,-0.055
2246,0.245,-0.045
2247,0.265,-0.025
2248,0.265,-0.005
2249,0.255,0.005
2250,0.225,0.015
2251,0.205,0.005
2252,0.145,-0.015
2253,0.075,-0.045
2254,-0.005,-0.075
2255,-0.065,-0.105
2256,-0.105,-0.115
2257,-0.125,-0.155
2258,-0.175,-0.175
2259,-0.185,-0.185
2260,-0.175,-0.185
2261,-0.175,-0.195
2262,-0.195,-0.205
2263,-0.225,-0.195
2264,-0.215,-0.185
2265,-0.225,-0.185
2266,-0.215,-0.185
2267,-0.195,-0.185
2268,-0.205,-0.185
2269,-0.225,-0.175
2270,-0.205,-0.185
2271,-0.205,-0.175
2272,-0.145,-0.175
2273,-0.195,-0.175
2274,-0.215,-0.175
2275,-0.215,-0.175
2276,-0.175,-0.175
2277,-0.175,-0.175
2278,-0.165,-0.185
2279,-0.175,-0.185
2280,-0.155,-0.175
2281,-0.155,-0.185
2282,-0.175,-0.185
2283,-0.165,-0.185
2284,-0.165,-0.185
2285,-0.155,-0.185
2286,-0.165,-0.195
2287,-0.155,-0.185
2288,-0.155,-0.175
2289,-0.165,-0.175
2290,-0.165,-0.185
2291,-0.165,-0.185
2292,-0.155,-0.175
2293,-0.155,-0.175
2294,-0.145,-0.175
2295,-0.145,-0.175
2296,-0.135,-0.165
2297,-0.135,-0.145
2298,-0.115,-0.135
2299,-0.075,-0.125
2300,-0.065,-0.105
2301,-0.085,-0.135
2302,-0.085,-0.195
2303,-0.075,-0.205
2304,-0.075,-0.205
2305,-0.115,-0.205
2306,-0.095,-0.215
2307,-0.105,-0.185
2308,-0.115,-0.185
2309,-0.145,-0.175
2310,-0.185,-0.155
2311,-0.175,-0.155
2312,-0.145,-0.165
2313,-0.155,-0.165
2314,-0.135,-0.165
2315,-0.115,-0.155
2316,-0.155,-0.145
2317,-0.155,-0.135
2318,-0.075,-0.095
2319,0.105,-0.045
2320,0.685,-0.075
2321,1.265,-0.085
2322,1.345,-0.225
2323,0.885,-0.205
2324,0.245,0.235
2325,-0.395,0.555
2326,-0.555,0.685
2327,-0.555,0.655
2328,-0.545,0.725
2329,-0.585,0.835
2330,-0.495,0.905
2331,-0.345,0.855
2332,-0.175,0.475
2333,-0.165,0.005
2334,-0.165,-0.145
2335,-0.175,-0.165
2336,-0.145,-0.205
2337,-0.155,-0.225
2338,-0.155,-0.225
2339,-0.135,-0.225
2340,-0.125,-0.235
2341,-0.115,-0.235
2342,-0.125,-0.205
2343,-0.115,-0.215
2344,-0.105,-0.225
2345,-0.095,-0.225
2346,-0.115,-0.195
2347,-0.065,-0.225
2348,-0.065,-0.215
2349,-0.055,-0.205
2350,-0.065,-0.195
2351,-0.035,-0.205
2352,-0.045,-0.195
2353,-0.005,-0.195
2354,0.015,-0.175
2355,0.025,-0.185
2356,0.025,-0.165
2357,0.085,-0.135
2358,0.105,-0.145
2359,0.155,-0.145
2360,0.165,-0.135
2361,0.225,-0.095
2362,0.275,-0.115
2363,0.325,-0.105
2364,0.355,-0.085
2365,0.395,-0.055
2366,0.415,-0.065
2367,0.395,-0.045
2368,0.375,-0.035
2369,0.335,-0.035
2370,0.285,-0.045
2371,0.215,-0.045
2372,0.125,-0.065
2373,0.065,-0.085
2374,0.005,-0.095
2375,-0.045,-0.135
2376,-0.095,-0.145
2377,-0.125,-0.135
2378,-0.125,-0.165
2379,-0.105,-0.195
2380,-0.135,-0.175
2381,-0.135,-0.135
2382,-0.135,-0.155
2383,-0.125,-0.135
2384,-0.115,-0.185
2385,-0.115,-0.165
2386,-0.135,-0.145
2387,-0.135,-0.165
2388,-0.125,-0.135
2389,-0.105,-0.145
2390,-0.105,-0.165
2391,-0.085,-0.145
2392,-0.075,-0.135
2393,-0.095,-0.125
2394,-0.075,-0.135
2395,-0.075,-0.155
2396,-0.065,-0.145
2397,-0.075,-0.145
2398,-0.075,-0.145
2399,-0.065,-0.165
2400,-0.065,-0.155
2401,-0.065,-0.145
2402,-0.075,-0.155
2403,-0.075,-0.175
2404,-0.075,-0.175
2405,-0.065,-0.165
2406,-0.075,-0.155
2407,-0.075,-0.165
2408,-0.075,-0.175
2409,-0.075,-0.185
2410,-0.085,-0.185
2411,-0.085,-0.185
2412,-0.075,-0.175
2413,-0.085,-0.175
2414,-0.095,-0.145
2415,-0.075,-0.175
2416,-0.065,-0.175
2417,-0.075,-0.175
2418,-0.095,-0.165
2419,-0.075,-0.185
2420,-0.075,-0.175
2421,-0.065,-0.165
2422,-0.045,-0.135
2423,-0.035,-0.115
2424,-0.015,-0.095
2425,-0.015,-0.115
2426,-0.025,-0.175
2427,-0.045,-0.215
2428,-0.015,-0.225
2429,-0.035,-0.215
2430,-0.055,-0.225
2431,-0.055,-0.215
2432,-0.065,-0.195
2433,-0.075,-0.185
2434,-0.115,-0.165
2435,-0.135,-0.165
2436,-0.135,-0.165
2437,-0.125,-0.185
2438,-0.115,-0.175
2439,-0.115,-0.165
2440,-0.115,-0.165
2441,-0.125,-0.165
2442,-0.135,-0.155
2443,0.025,-0.115
2444,0.385,-0.065
2445,1.020,-0.085
2446,1.385,-0.165
2447,1.195,-0.265
2448,0.555,-0.005
2449,-0.085,0.365
2450,-0.585,0.535
2451,-0.515,0.595
2452,-0.505,0.625
2453,-0.545,0.735
2454,-0.525,0.835
2455,-0.445,0.855
2456,-0.265,0.695
2457,-0.185,0.205
2458,-0.165,-0.135
2459,-0.155,-0.185
2460,-0.155,-0.185
2461,-0.155,-0.205
2462,-0.135,-0.225
2463,-0.155,-0.225
2464,-0.145,-0.235
2465,-0.145,-0.215
2466,-0.145,-0.245
2467,-0.135,-0.245
2468,-0.115,-0.245
2469,-0.115,-0.235
2470,-0.125,-0.245
2471,-0.115,-0.235
2472,-0.115,-0.225
2473,-0.105,-0.225
2474,-0.105,-0.245
2475,-0.105,-0.235
2476,-0.085,-0.225
2477,-0.085,-0.225
2478,-0.085,-0.185
2479,-0.045,-0.195
2480,-0.025,-0.205
2481,-0.015,-0.215
2482,-0.015,-0.205
2483,0.025,-0.185
2484,0.045,-0.155
2485,0.075,-0.135
2486,0.105,-0.105
2487,0.135,-0.105
2488,0.155,-0.085
2489,0.155,-0.055
2490,0.185,-0.035
2491,0.225,-0.035
2492,0.235,-0.025
2493,0.225,0.005
2494,0.215,-0.005
2495,0.165,-0.015
2496,0.115,-0.035
2497,0.065,-0.045
2498,-0.005,-0.085
2499,-0.055,-0.135
2500,-0.095,-0.155
2501,-0.115,-0.175
2502,-0.135,-0.205
2503,-0.155,-0.185
2504,-0.155,-0.185
2505,-0.165,-0.245
2506,-0.185,-0.215
2507,-0.175,-0.225
2508,-0.175,-0.215
2509,-0.175,-0.185
2510,-0.175,-0.185
2511,-0.175,-0.205
2512,-0.165,-0.205
2513,-0.155,-0.195
2514,-0.165,-0.195
2515,-0.165,-0.195
2516,-0.145,-0.195
2517,-0.145,-0.185
2518,-0.135,-0.185
2519,-0.135,-0.205
2520,-0.135,-0.195
2521,-0.125,-0.195
2522,-0.125,-0.185
2523,-0.115,-0.205
2524,-0.115,-0.205
2525,-0.135,-0.205
2526,-0.115,-0.205
2527,-0.125,-0.205
2528,-0.115,-0.195
2529,-0.115,-0.185
2530,-0.115,-0.195
2531,-0.125,-0.205
2532,-0.125,-0.205
2533,-0.125,-0.195
2534,-0.125,-0.185
2535,-0.125,-0.195
2536,-0.135,-0.195
2537,-0.125,-0.185
2538,-0.115,-0.195
2539,-0.095,-0.195
2540,-0.095,-0.185
2541,-0.105,-0.185
2542,-0.085,-0.145
2543,-0.055,-0.145
2544,-0.035,-0.115
2545,-0.025,-0.125
2546,-0.035,-0.165
2547,-0.065,-0.225
2548,-0.035,-0.245
2549,-0.035,-0.225
2550,-0.055,-0.225
2551,-0.055,-0.225
2552,-0.065,-0.175
2553,-0.075,-0.215
2554,-0.115,-0.205
2555,-0.135,-0.195
2556,-0.135,-0.185
2557,-0.125,-0.185
2558,-0.105,-0.175
2559,-0.095,-0.185
2560,-0.075,-0.135
2561,-0.115,-0.175
2562,-0.105,-0.165
2563,0.045,-0.135
2564,0.385,-0.075
2565,1.020,-0.065
2566,1.425,-0.145
2567,1.255,-0.235
2568,0.615,-0.005
2569,-0.025,0.365
2570,-0.575,0.495
2571,-0.505,0.535
2572,-0.485,0.565
2573,-0.465,0.695
2574,-0.425,0.815
2575,-0.375,0.855
2576,-0.205,0.675
2577,-0.145,0.185
2578,-0.145,-0.105
2579,-0.125,-0.145
2580,-0.125,-0.185
2581,-0.115,-0.215
2582,-0.125,-0.225
2583,-0.105,-0.235
2584,-0.115,-0.225
2585,-0.105,-0.225
2586,-0.095,-0.235
2587,-0.105,-0.245
2588,-0.085,-0.235
2589,-0.065,-0.235
2590,-0.095,-0.235
2591,-0.095,-0.225
2592,-0.065,-0.225
2593,-0.055,-0.225
2594,-0.045,-0.215
2595,-0.035,-0.215
2596,-0.015,-0.215
2597,-0.005,-0.205
2598,-0.005,-0.205
2599,0.025,-0.195
2600,0.075,-0.185
2601,0.095,-0.175
2602,0.105,-0.175
2603,0.145,-0.155
2604,0.175,-0.155
2605,0.235,-0.125
2606,0.275,-0.125
2607,0.325,-0.125
2608,0.345,-0.115
2609,0.385,-0.105
2610,0.405,-0.085
2611,0.405,-0.075
2612,0.385,-0.045
2613,0.375,-0.055
2614,0.335,-0.065
2615,0.255,-0.055
2616,0.175,-0.065
2617,0.095,-0.085
2618,0.015,-0.105
2619,-0.025,-0.125
2620,-0.085,-0.145
2621,-0.105,-0.145
2622,-0.125,-0.155
2623,-0.135,-0.165
2624,-0.145,-0.175
2625,-0.135,-0.165
2626,-0.155,-0.155
2627,-0.155,-0.165
2628,-0.135,-0.165
2629,-0.155,-0.155
2630,-0.145,-0.165
2631,-0.125,-0.165
2632,-0.085,-0.155
2633,-0.105,-0.145
2634,-0.095,-0.145
2635,-0.095,-0.155
2636,-0.085,-0.155
2637,-0.065,-0.145
2638,-0.045,-0.145
2639,-0.045,-0.145
2640,-0.065,-0.165
2641,-0.055,-0.145
2642,-0.055,-0.145
2643,-0.055,-0.155
2644,-0.045,-0.155
2645,-0.055,-0.165
2646,-0.055,-0.155
2647,-0.045,-0.155
2648,-0.065,-0.155
2649,-0.065,-0.155
2650,-0.075,-0.145
2651,-0.075,-0.155
2652,-0.065,-0.155
2653,-0.075,-0.165
2654,-0.065,-0.165
2655,-0.075,-0.175
2656,-0.075,-0.165
2657,-0.075,-0.155
2658,-0.075,-0.155
2659,-0.045,-0.145
2660,-0.035,-0.115
2661,-0.015,-0.085
2662,0.005,-0.085
2663,-0.025,-0.135
2664,-0.035,-0.185
2665,-0.045,-0.215
2666,-0.025,-0.205
2667,-0.045,-0.185
2668,-0.045,-0.215
2669,-0.045,-0.185
2670,-0.065,-0.165
2671,-0.085,-0.155
2672,-0.105,-0.185
2673,-0.125,-0.175
2674,-0.125,-0.145
2675,-0.115,-0.165
2676,-0.095,-0.145
2677,-0.095,-0.145
2678,-0.105,-0.135
2679,-0.125,-0.145
2680,0.015,-0.125
2681,0.315,-0.075
2682,0.950,-0.045
2683,1.495,-0.095
2684,1.505,-0.175
2685,0.865,-0.055
2686,0.225,0.275
2687,-0.415,0.465
2688,-0.635,0.515
2689,-0.595,0.535
2690,-0.555,0.635
2691,-0.545,0.775
2692,-0.475,0.865
2693,-0.395,0.835
2694,-0.245,0.475
2695,-0.195,0.025
2696,-0.175,-0.155
2697,-0.175,-0.175
2698,-0.175,-0.185
2699,-0.175,-0.195
2700,-0.165,-0.205
2701,-0.175,-0.215
2702,-0.155,-0.215
2703,-0.155,-0.215
2704,-0.155,-0.225
2705,-0.155,-0.215
2706,-0.155,-0.215
2707,-0.145,-0.225
2708,-0.125,-0.175
2709,-0.135,-0.195
2710,-0.145,-0.205
2711,-0.115,-0.205
2712,-0.115,-0.215
2713,-0.105,-0.195
2714,-0.095,-0.205
2715,-0.075,-0.195
2716,-0.065,-0.175
2717,-0.045,-0.175
2718,-0.025,-0.165
2719,-0.005,-0.155
2720,0.025,-0.145
2721,0.055,-0.135
2722,0.075,-0.115
2723,0.115,-0.065
2724,0.165,-0.095
2725,0.205,-0.075
2726,0.225,-0.075
2727,0.245,-0.055
2728,0.265,-0.025
2729,0.255,0.005
2730,0.235,-0.015
2731,0.195,-0.005
2732,0.125,0.005
2733,0.075,-0.035
2734,0.025,-0.055
2735,-0.045,-0.075
2736,-0.105,-0.095
2737,-0.145,-0.125
2738,-0.185,-0.155
2739,-0.195,-0.155
2740,-0.185,-0.165
2741,-0.215,-0.155
2742,-0.225,-0.175
2743,-0.235,-0.175
2744,-0.215,-0.145
2745,-0.225,-0.165
2746,-0.215,-0.135
2747,-0.195,-0.145
2748,-0.195,-0.115
2749,-0.195,-0.175
2750,-0.185,-0.165
2751,-0.175,-0.155
2752,-0.165,-0.145
2753,-0.155,-0.125
2754,-0.145,-0.155
2755,-0.125,-0.145
2756,-0.135,-0.145
2757,-0.135,-0.135
2758,-0.125,-0.135
2759,-0.135,-0.165
2760,-0.115,-0.155
2761,-0.145,-0.155
2762,-0.145,-0.155
2763,-0.125,-0.135
2764,-0.135,-0.165
2765,-0.155,-0.135
2766,-0.145,-0.135
2767,-0.125,-0.125
2768,-0.115,-0.185
2769,-0.115,-0.155
2770,-0.155,-0.145
2771,-0.165,-0.145
2772,-0.125,-0.135
2773,-0.125,-0.165
2774,-0.125,-0.155
2775,-0.115,-0.155
2776,-0.095,-0.125
2777,-0.075,-0.105
2778,-0.055,-0.055
2779,-0.035,-0.085
2780,-0.045,-0.095
2781,-0.045,-0.135
2782,-0.075,-0.165
2783,-0.065,-0.195
2784,-0.065,-0.195
2785,-0.065,-0.165
2786,-0.045,-0.175
2787,-0.065,-0.155
2788,-0.085,-0.115
2789,-0.115,-0.145
2790,-0.135,-0.135
2791,-0.135,-0.135
2792,-0.135,-0.145
2793,-0.125,-0.135
2794,-0.115,-0.125
2795,-0.095,-0.115
2796,-0.085,-0.105
2797,-0.135,-0.095
2798,-0.035,-0.075
2799,0.215,-0.045
2800,0.795,-0.015
2801,1.415,-0.015
2802,1.505,-0.135
2803,1.115,-0.105
2804,0.475,0.235
2805,-0.165,0.485
2806,-0.595,0.585
2807,-0.525,0.595
2808,-0.485,0.635
2809,-0.475,0.775
2810,-0.425,0.915
2811,-0.345,0.915
2812,-0.225,0.745
2813,-0.135,0.205
2814,-0.125,-0.095
2815,-0.135,-0.125
2816,-0.145,-0.135
2817,-0.095,-0.145
2818,-0.125,-0.205
2819,-0.115,-0.195
2820,-0.105,-0.195
2821,-0.095,-0.195
2822,-0.085,-0.185
2823,-0.085,-0.175
2824,-0.095,-0.195
2825,-0.075,-0.175
2826,-0.075,-0.175
2827,-0.075,-0.185
2828,-0.035,-0.175
2829,-0.045,-0.165
2830,-0.005,-0.175
2831,0.005,-0.175
2832,-0.005,-0.175
2833,0.025,-0.145
2834,0.035,-0.145
2835,0.065,-0.145
2836,0.095,-0.135
2837,0.125,-0.125
2838,0.165,-0.125
2839,0.205,-0.105
2840,0.225,-0.095
2841,0.265,-0.085
2842,0.325,-0.065
2843,0.385,-0.065
2844,0.415,-0.035
2845,0.405,-0.035
2846,0.415,-0.015
2847,0.415,-0.015
2848,0.365,0.005
2849,0.315,-0.005
2850,0.235,-0.025
2851,0.125,-0.035
2852,0.065,-0.065
2853,0.025,-0.085
2854,-0.025,-0.105
2855,-0.045,-0.135
2856,-0.095,-0.125
2857,-0.115,-0.125
2858,-0.115,-0.145
2859,-0.125,-0.155
2860,-0.115,-0.135
2861,-0.135,-0.135
2862,-0.115,-0.155
2863,-0.115,-0.135
2864,-0.115,-0.145
2865,-0.105,-0.135
2866,-0.085,-0.115
2867,-0.095,-0.145
2868,-0.115,-0.125
2869,-0.065,-0.135
2870,-0.035,-0.145
2871,-0.045,-0.135
2872,-0.025,-0.105
2873,-0.025,-0.135
2874,-0.045,-0.135
2875,-0.035,-0.135
2876,-0.035,-0.125
2877,-0.035,-0.125
2878,-0.015,-0.115
2879,-0.045,-0.135
2880,-0.045,-0.125
2881,-0.045,-0.125
2882,-0.045,-0.135
2883,-0.045,-0.145
2884,-0.035,-0.135
2885,-0.065,-0.145
2886,-0.055,-0.135
2887,-0.045,-0.145
2888,-0.045,-0.115
2889,-0.055,-0.115
2890,-0.065,-0.125
2891,-0.065,-0.135
2892,-0.065,-0.145
2893,-0.035,-0.115
2894,-0.015,-0.125
2895,-0.005,-0.105
2896,0.005,-0.075
2897,0.015,-0.065
2898,-0.005,-0.085
2899,-0.005,-0.145
2900,-0.025,-0.185
2901,0.015,-0.185
2902,0.035,-0.185
2903,0.005,-0.165
2904,-0.005,-0.175
2905,-0.005,-0.165
2906,-0.045,-0.145
2907,-0.055,-0.145
2908,-0.075,-0.135
2909,-0.085,-0.155
2910,-0.075,-0.125
2911,-0.045,-0.135
2912,-0.055,-0.135
2913,-0.055,-0.145
2914,-0.065,-0.105
2915,-0.055,-0.115
2916,0.095,-0.085
2917,0.495,-0.055
2918,1.130,-0.045
2919,1.565,-0.065
2920,1.525,-0.135
2921,0.885,0.015
2922,0.245,0.285
2923,-0.395,0.465
2924,-0.615,0.495
2925,-0.555,0.535
2926,-0.485,0.635
2927,-0.485,0.795
2928,-0.405,0.855
2929,-0.315,0.775
2930,-0.155,0.395
2931,-0.125,-0.085
2932,-0.105,-0.145
2933,-0.105,-0.165
2934,-0.105,-0.175
2935,-0.095,-0.205
2936,-0.075,-0.205
2937,-0.085,-0.205
2938,-0.095,-0.205
2939,-0.075,-0.225
2940,-0.085,-0.215
2941,-0.085,-0.205
2942,-0.065,-0.195
2943,-0.065,-0.215
2944,-0.055,-0.215
2945,-0.055,-0.205
2946,-0.055,-0.195
2947,-0.045,-0.195
2948,-0.035,-0.185
2949,-0.035,-0.175
2950,-0.015,-0.175
2951,0.005,-0.165
2952,0.015,-0.155
2953,0.035,-0.155
2954,0.045,-0.145
2955,0.075,-0.145
2956,0.105,-0.115
2957,0.125,-0.115
2958,0.185,-0.095
2959,0.215,-0.085
2960,0.255,-0.075
2961,0.285,-0.055
2962,0.285,-0.035
2963,0.315,-0.025
2964,0.315,-0.005
2965,0.295,0.005
2966,0.275,-0.005
2967,0.225,-0.015
2968,0.145,-0.015
2969,0.065,-0.045
2970,-0.025,-0.075
2971,-0.045,-0.105
2972,-0.095,-0.115
2973,-0.135,-0.135
2974,-0.165,-0.165
2975,-0.175,-0.165
2976,-0.205,-0.175
2977,-0.205,-0.165
2978,-0.225,-0.175
2979,-0.195,-0.155
2980,-0.205,-0.175
2981,-0.195,-0.155
2982,-0.195,-0.175
2983,-0.195,-0.175
2984,-0.195,-0.165
2985,-0.165,-0.155
2986,-0.175,-0.165
2987,-0.155,-0.165
2988,-0.145,-0.155
2989,-0.155,-0.145
2990,-0.135,-0.175
2991,-0.135,-0.165
2992,-0.125,-0.165
2993,-0.125,-0.165
2994,-0.135,-0.165
2995,-0.135,-0.165
2996,-0.145,-0.165
2997,-0.145,-0.165
2998,-0.145,-0.175
2999,-0.155,-0.185
3000,-0.155,-0.175
3001,-0.155,-0.175
3002,-0.155,-0.185
3003,-0.135,-0.185
3004,-0.155,-0.175
3005,-0.155,-0.175
3006,-0.155,-0.175
3007,-0.145,-0.185
3008,-0.145,-0.175
3009,-0.145,-0.185
3010,-0.165,-0.185
3011,-0.145,-0.175
3012,-0.125,-0.165
3013,-0.105,-0.125
3014,-0.085,-0.105
3015,-0.065,-0.105
3016,-0.075,-0.135
3017,-0.095,-0.195
3018,-0.095,-0.235
3019,-0.075,-0.215
3020,-0.095,-0.225
3021,-0.105,-0.225
3022,-0.105,-0.215
3023,-0.115,-0.205
3024,-0.145,-0.195
3025,-0.165,-0.165
3026,-0.175,-0.175
3027,-0.175,-0.185
3028,-0.175,-0.175
3029,-0.165,-0.155
3030,-0.145,-0.185
3031,-0.145,-0.175
3032,-0.185,-0.155
3033,-0.115,-0.135
3034,0.065,-0.105
3035,0.615,-0.065
3036,1.250,-0.055
3037,1.495,-0.125
3038,1.215,-0.145
3039,0.575,0.185
3040,-0.065,0.475
3041,-0.665,0.605
3042,-0.625,0.625
3043,-0.575,0.655
3044,-0.615,0.775
3045,-0.565,0.895
3046,-0.485,0.895
3047,-0.295,0.685
3048,-0.215,0.125
3049,-0.215,-0.125
3050,-0.215,-0.185
3051,-0.205,-0.205
3052,-0.175,-0.215
3053,-0.225,-0.235
3054,-0.195,-0.225
3055,-0.205,-0.235
3056,-0.205,-0.225
3057,-0.165,-0.235
3058,-0.195,-0.235
3059,-0.185,-0.235
3060,-0.155,-0.215
3061,-0.165,-0.235
3062,-0.155,-0.225
3063,-0.145,-0.225
3064,-0.125,-0.225
3065,-0.115,-0.215
3066,-0.115,-0.215
3067,-0.105,-0.215
3068,-0.095,-0.195
3069,-0.075,-0.185
3070,-0.065,-0.185
3071,-0.025,-0.175
3072,-0.035,-0.175
3073,-0.015,-0.165
3074,0.025,-0.145
3075,0.025,-0.135
3076,0.045,-0.115
3077,0.055,-0.075
3078,0.155,-0.065
3079,0.165,-0.075
3080,0.175,-0.055
3081,0.195,-0.035
3082,0.195,-0.025
3083,0.195,0.005
3084,0.185,-0.005
3085,0.135,-0.025
3086,0.105,-0.025
3087,0.035,-0.025
3088,-0.015,-0.075
3089,-0.055,-0.095
3090,-0.115,-0.135
3091,-0.135,-0.165
3092,-0.195,-0.105
3093,-0.165,-0.125
3094,-0.245,-0.205
3095,-0.205,-0.175
3096,-0.175,-0.205
3097,-0.205,-0.225
3098,-0.205,-0.145
3099,-0.175,-0.155
3100,-0.185,-0.185
3101,-0.155,-0.165
3102,-0.155,-0.165
3103,-0.145,-0.155
3104,-0.155,-0.155
3105,-0.145,-0.145
3106,-0.175,-0.145
3107,-0.145,-0.165
3108,-0.115,-0.145
3109,-0.115,-0.165
3110,-0.115,-0.175
3111,-0.135,-0.165
3112,-0.085,-0.165
3113,-0.145,-0.195
3114,-0.145,-0.035
3115,-0.165,-0.185
3116,-0.135,-0.195
3117,-0.135,-0.175
3118,-0.125,-0.215
3119,-0.125,-0.145
3120,-0.105,-0.175
3121,-0.095,-0.205
3122,-0.155,-0.165
3123,-0.125,-0.135
3124,-0.125,-0.185
3125,-0.135,-0.185
3126,-0.135,-0.195
3127,-0.125,-0.165
3128,-0.095,-0.165
3129,-0.095,-0.155
3130,-0.105,-0.125
3131,-0.085,-0.115
3132,-0.055,-0.075
3133,-0.015,-0.105
3134,0.025,-0.155
3135,-0.065,-0.205
3136,-0.105,-0.245
3137,-0.065,-0.215
3138,-0.035,-0.215
3139,-0.065,-0.225
3140,-0.145,-0.185
3141,-0.135,-0.165
3142,-0.135,-0.205
3143,-0.105,-0.145
3144,-0.085,-0.185
3145,-0.155,-0.185
3146,-0.145,-0.165
3147,-0.125,-0.175
3148,-0.105,-0.055
3149,-0.145,-0.195
3150,-0.095,-0.175
3151,0.045,-0.155
3152,0.385,-0.075
3153,1.020,-0.075
3154,1.385,-0.145
3155,1.185,-0.225
3156,0.545,0.055
3157,-0.095,0.425
3158,-0.545,0.635
3159,-0.475,0.665
3160,-0.445,0.695
3161,-0.445,0.765
3162,-0.485,0.875
3163,-0.355,0.935
3164,-0.235,0.825
3165,-0.145,0.315
3166,-0.155,-0.105
3167,-0.145,-0.125
3168,-0.165,-0.145
3169,-0.105,-0.065
3170,-0.095,-0.305
3171,-0.095,-0.295
3172,-0.065,-0.265
3173,-0.105,-0.275
3174,-0.105,-0.265
3175,-0.105,-0.255
3176,-0.095,-0.245
3177,-0.075,-0.245
3178,-0.085,-0.245
3179,-0.085,-0.225
3180,-0.055,-0.235
3181,-0.055,-0.225
3182,-0.045,-0.225
3183,-0.035,-0.195
3184,0.005,-0.225
3185,-0.035,-0.225
3186,-0.005,-0.215
3187,0.005,-0.205
3188,0.035,-0.185
3189,0.055,-0.185
3190,0.095,-0.165
3191,0.105,-0.165
3192,0.145,-0.145
3193,0.155,-0.135
3194,0.185,-0.125
3195,0.225,-0.105
3196,0.285,0.025
3197,0.295,-0.145
3198,0.305,-0.125
3199,0.315,-0.075
3200,0.315,-0.045
3201,0.285,-0.035
3202,0.225,-0.025
3203,0.195,-0.035
3204,0.115,-0.065
3205,0.045,-0.115
3206,0.025,-0.115
3207,-0.035,-0.165
3208,-0.045,-0.155
3209,-0.075,-0.165
3210,-0.105,-0.175
3211,-0.115,-0.175
3212,-0.105,-0.175
3213,-0.125,-0.155
3214,-0.095,-0.185
3215,-0.115,-0.175
3216,-0.095,-0.175
3217,-0.115,-0.165
3218,-0.085,-0.165
3219,-0.115,-0.175
3220,-0.095,-0.145
3221,-0.115,-0.075
3222,-0.045,-0.045
3223,-0.035,-0.195
3224,-0.045,-0.275
3225,-0.035,-0.225
3226,-0.065,-0.195
3227,-0.075,-0.195
3228,-0.055,-0.185
3229,-0.055,-0.165
3230,-0.025,-0.145
3231,-0.055,-0.185
3232,-0.055,-0.175
3233,-0.075,-0.165
3234,-0.075,-0.165
3235,-0.055,-0.155
3236,-0.065,-0.185
3237,-0.085,-0.175
3238,-0.075,-0.165
3239,-0.065,-0.175
3240,-0.085,-0.175
3241,-0.075,-0.155
3242,-0.095,-0.165
3243,-0.055,-0.175
3244,-0.065,-0.175
3245,-0.075,-0.165
3246,-0.035,-0.155
3247,-0.045,-0.145
3248,-0.025,-0.115
3249,-0.015,-0.085
3250,-0.005,-0.095
3251,-0.025,-0.155
3252,-0.035,-0.205
3253,-0.005,-0.195
3254,0.005,-0.205
3255,-0.025,-0.205
3256,-0.025,-0.185
3257,-0.045,-0.165
3258,-0.055,-0.175
3259,-0.065,-0.175
3260,-0.105,-0.175
3261,-0.115,-0.175
3262,-0.105,-0.165
3263,-0.085,-0.165
3264,-0.085,-0.165
3265,-0.075,-0.165
3266,-0.105,-0.155
3267,-0.095,-0.135
3268,0.075,-0.115
3269,0.425,-0.075
3270,1.060,-0.045
3271,1.485,-0.145
3272,1.385,-0.235
3273,0.745,-0.025
3274,0.105,0.315
3275,-0.535,0.425
3276,-0.505,0.515
3277,-0.545,0.485
3278,-0.515,0.635
3279,-0.505,0.765
3280,-0.435,0.835
3281,-0.355,0.805
3282,-0.195,0.445
3283,-0.145,-0.025
3284,-0.125,-0.145
3285,-0.145,-0.175
3286,-0.125,-0.185
3287,-0.125,-0.205
3288,-0.115,-0.215
3289,-0.125,-0.205
3290,-0.125,-0.215
3291,-0.095,-0.225
3292,-0.085,-0.185
3293,-0.105,-0.225
3294,-0.105,-0.235
3295,-0.075,-0.235
3296,-0.075,-0.215
3297,-0.085,-0.205
3298,-0.075,-0.215
3299,-0.035,-0.225
3300,-0.075,-0.215
3301,-0.045,-0.185
3302,-0.055,-0.195
3303,0.005,-0.155
3304,0.045,-0.185
3305,-0.065,-0.175
3306,-0.085,-0.235
3307,0.055,-0.005
3308,0.095,-0.195
3309,0.125,-0.245
3310,0.135,-0.185
3311,0.175,-0.155
3312,0.205,-0.115
3313,0.205,-0.095
3314,0.255,-0.075
3315,0.255,-0.065
3316,0.255,0.015
3317,0.225,-0.045
3318,0.215,-0.025
3319,0.165,-0.035
3320,0.145,-0.045
3321,0.045,-0.055
3322,-0.045,-0.075
3323,-0.105,-0.095
3324,-0.115,-0.105
3325,-0.125,-0.115
3326,-0.165,-0.165
3327,-0.195,-0.165
3328,-0.205,-0.155
3329,-0.215,-0.095
3330,-0.185,-0.095
3331,-0.205,-0.215
3332,-0.235,-0.145
3333,-0.195,-0.015
3334,-0.155,-0.155
3335,-0.155,-0.235
3336,-0.165,-0.225
3337,-0.145,-0.205
3338,-0.145,-0.185
3339,-0.145,-0.155
3340,-0.155,-0.145
3341,-0.145,-0.105
3342,-0.135,-0.165
3343,-0.135,-0.155
3344,-0.135,-0.155
3345,-0.145,-0.135
3346,-0.155,-0.145
3347,-0.095,-0.165
3348,-0.135,-0.155
3349,-0.195,-0.145
3350,-0.175,-0.175
3351,-0.165,-0.165
3352,-0.165,-0.155
3353,-0.155,-0.165
3354,-0.165,-0.165
3355,-0.155,-0.165
3356,-0.175,-0.155
3357,-0.155,-0.105
3358,-0.165,-0.155
3359,-0.155,-0.185
3360,-0.165,-0.175
3361,-0.155,-0.165
3362,-0.175,-0.155
3363,-0.175,-0.155
3364,-0.165,-0.135
3365,-0.185,-0.145
3366,-0.165,0.025
3367,-0.085,-0.045
3368,-0.075,-0.205
3369,-0.085,-0.175
3370,-0.085,-0.185
3371,-0.105,-0.235
3372,-0.085,-0.225
3373,-0.105,-0.195
3374,-0.095,-0.185
3375,-0.125,-0.185
3376,-0.105,-0.145
3377,-0.145,-0.185
3378,-0.185,-0.145
3379,-0.185,-0.135
3380,-0.185,-0.165
3381,-0.165,-0.145
3382,-0.165,-0.135
3383,-0.165,-0.165
3384,-0.165,-0.125
3385,-0.155,-0.135
3386,-0.175,-0.115
3387,-0.035,-0.125
3388,0.195,-0.055
3389,0.830,-0.035
3390,1.365,-0.075
3391,1.335,-0.185
3392,0.715,-0.035
3393,0.075,0.365
3394,-0.565,0.595
3395,-0.615,0.735
3396,-0.565,0.775
3397,-0.585,0.745
3398,-0.625,0.845
3399,-0.545,0.955
3400,-0.375,0.905
3401,-0.225,0.465
3402,-0.215,-0.035
3403,-0.205,-0.065
3404,-0.215,-0.235
3405,-0.215,-0.155
3406,-0.165,-0.115
3407,-0.155,-0.305
3408,-0.175,-0.315
3409,-0.175,-0.185
3410,-0.175,-0.235
3411,-0.145,-0.195
3412,-0.145,-0.315
3413,-0.135,-0.255
3414,-0.135,-0.265
3415,-0.115,-0.215
3416,-0.115,-0.215
3417,-0.125,-0.215
3418,-0.115,-0.215
3419,-0.105,-0.245
3420,-0.105,-0.215
3421,-0.085,-0.185
3422,-0.065,-0.185
3423,-0.055,-0.205
3424,-0.055,-0.195
3425,-0.035,-0.075
3426,-0.015,-0.135
3427,0.025,-0.245
3428,0.045,-0.145
3429,0.075,-0.105
3430,0.105,-0.125
3431,0.125,-0.155
3432,0.145,-0.055
3433,0.155,-0.055
3434,0.145,-0.015
3435,0.225,0.045
3436,0.255,-0.075
3437,0.205,-0.125
3438,0.145,-0.095
3439,0.075,-0.025
3440,0.035,-0.045
3441,-0.015,-0.115
3442,-0.055,-0.075
3443,-0.085,-0.155
3444,-0.105,-0.145
3445,-0.135,-0.135
3446,-0.135,-0.175
3447,-0.155,-0.195
3448,-0.145,-0.145
3449,-0.145,-0.185
3450,-0.135,-0.165
3451,-0.145,-0.175
3452,-0.125,-0.065
3453,-0.135,-0.125
3454,-0.115,-0.185
3455,-0.115,-0.185
3456,-0.115,-0.125
3457,-0.105,-0.155
3458,-0.115,-0.165
3459,-0.095,-0.145
3460,-0.105,-0.145
3461,-0.085,-0.135
3462,-0.115,-0.155
3463,-0.095,-0.125
3464,-0.085,-0.155
3465,-0.095,-0.185
3466,-0.105,-0.175
3467,-0.105,-0.175
3468,-0.095,-0.165
3469,-0.095,-0.165
3470,-0.075,-0.155
3471,-0.085,-0.175
3472,-0.105,-0.175
3473,-0.105,-0.145
3474,-0.115,-0.175
3475,-0.105,-0.175
3476,-0.105,-0.165
3477,-0.105,-0.155
3478,-0.085,-0.185
3479,-0.085,-0.155
3480,-0.065,-0.185
3481,-0.085,-0.165
3482,-0.085,-0.165
3483,-0.085,-0.165
3484,-0.065,-0.145
3485,-0.025,-0.105
3486,-0.005,-0.105
3487,0.025,-0.135
3488,-0.025,-0.115
3489,-0.035,-0.225
3490,-0.025,-0.235
3491,-0.005,-0.225
3492,-0.025,-0.205
3493,-0.025,-0.205
3494,-0.035,-0.205
3495,-0.065,-0.205
3496,-0.085,-0.165
3497,-0.085,-0.175
3498,-0.095,-0.185
3499,-0.075,-0.185
3500,-0.075,-0.175
3501,-0.055,-0.135
3502,-0.065,-0.195
3503,-0.085,-0.185
3504,-0.065,-0.145
3505,0.055,-0.135
3506,0.345,-0.085
3507,0.980,-0.115
3508,1.365,-0.185
3509,1.245,-0.315
3510,0.635,-0.175
3511,-0.005,0.255
3512,-0.475,0.485
3513,-0.455,0.545
3514,-0.435,0.555
3515,-0.415,0.645
3516,-0.425,0.785
3517,-0.335,0.895
3518,-0.255,0.835
3519,-0.115,0.435
3520,-0.095,-0.055
3521,-0.095,-0.175
3522,-0.105,-0.195
3523,-0.085,-0.215
3524,-0.075,-0.225
3525,-0.075,-0.245
3526,-0.075,-0.255
3527,-0.065,-0.255
3528,-0.045,-0.225
3529,-0.065,-0.255
3530,-0.055,-0.255
3531,-0.045,-0.255
3532,-0.025,-0.245
3533,-0.025,-0.235
3534,-0.045,-0.245
3535,-0.025,-0.235
3536,-0.025,-0.215
3537,0.015,-0.205
3538,0.015,-0.235
3539,0.025,-0.235
3540,0.055,-0.225
3541,0.055,-0.195
3542,0.075,-0.185
3543,0.085,-0.205
3544,0.145,-0.205
3545,0.135,-0.195
3546,0.175,-0.175
3547,0.225,-0.165
3548,0.245,-0.145
3549,0.265,-0.125
3550,0.315,-0.135
3551,0.325,-0.125
3552,0.365,-0.105
3553,0.355,-0.085
3554,0.335,-0.075
3555,0.315,-0.045
3556,0.265,-0.075
3557,0.205,-0.075
3558,0.135,-0.085
3559,0.065,-0.105
3560,0.005,-0.125
3561,-0.025,-0.135
3562,-0.075,-0.155
3563,-0.085,-0.175
3564,-0.095,-0.145
3565,-0.105,-0.185
3566,-0.105,-0.165
3567,-0.115,-0.175
3568,-0.105,-0.165
3569,-0.105,-0.165
3570,-0.105,-0.155
3571,-0.105,-0.165
3572,-0.085,-0.135
3573,-0.095,-0.135
3574,-0.055,-0.135
3575,-0.065,-0.205
3576,-0.065,-0.175
3577,-0.065,-0.185
3578,-0.095,-0.165
3579,-0.065,-0.165
3580,-0.065,-0.165
3581,-0.055,-0.165
3582,-0.055,-0.165
3583,-0.065,-0.175
3584,-0.085,-0.165
3585,-0.075,-0.165
3586,-0.105,-0.175
3587,-0.095,-0.175
3588,-0.095,-0.155
3589,-0.095,-0.165
3590,-0.115,-0.185
3591,-0.115,-0.175
3592,-0.115,-0.175
3593,-0.115,-0.185
3594,-0.115,-0.165
3595,-0.115,-0.195
3596,-0.105,-0.175
3597,-0.125,-0.165
3598,-0.105,-0.165
3599,-0.135,-0.185
3600,-0.125,-0.145
3601,-0.125,-0.185
3602,-0.115,-0.175
3603,-0.095,-0.155
3604,-0.085,-0.125
3605,-0.055,-0.105
3606,-0.035,-0.105
3607,-0.065,-0.145
3608,-0.075,-0.195
3609,-0.055,-0.235
3610,-0.075,-0.225
3611,-0.085,-0.215
3612,-0.085,-0.215
3613,-0.075,-0.185
3614,-0.105,-0.185
3615,-0.135,-0.185
3616,-0.155,-0.165
3617,-0.175,-0.175
3618,-0.155,-0.175
3619,-0.165,-0.175
3620,-0.135,-0.165
3621,-0.135,-0.165
3622,-0.125,-0.165
3623,-0.165,-0.155
3624,-0.105,-0.135
3625,0.055,-0.095
3626,0.505,-0.055
3627,1.140,-0.095
3628,1.425,-0.185
3629,1.075,-0.225
3630,0.435,0.135
3631,-0.205,0.455
3632,-0.615,0.575
3633,-0.565,0.605
3634,-0.545,0.655
3635,-0.585,0.775
3636,-0.535,0.875
3637,-0.455,0.905
3638,-0.225,0.655
3639,-0.175,0.105
3640,-0.205,-0.135
3641,-0.185,-0.165
3642,-0.195,-0.195
3643,-0.185,-0.205
3644,-0.175,-0.225
3645,-0.165,-0.215
3646,-0.165,-0.225
3647,-0.155,-0.235
3648,-0.135,-0.235
3649,-0.145,-0.215
3650,-0.135,-0.225
3651,-0.145,-0.225
3652,-0.125,-0.215
3653,-0.135,-0.215
3654,-0.115,-0.215
3655,-0.115,-0.205
3656,-0.095,-0.215
3657,-0.095,-0.205
3658,-0.075,-0.195
3659,-0.075,-0.205
3660,-0.055,-0.185
3661,-0.045,-0.175
3662,-0.025,-0.175
3663,0.005,-0.175
3664,0.015,-0.165
3665,0.035,-0.145
3666,0.055,-0.145
3667,0.095,-0.125
3668,0.135,-0.125
3669,0.165,-0.105
3670,0.215,-0.085
3671,0.225,-0.085
3672,0.215,-0.055
3673,0.195,-0.025
3674,0.185,-0.015
3675,0.165,-0.015
3676,0.115,-0.025
3677,0.045,-0.025
3678,-0.005,-0.055
3679,-0.045,-0.095
3680,-0.105,-0.115
3681,-0.115,-0.125
3682,-0.145,-0.145
3683,-0.155,-0.145
3684,-0.165,-0.155
3685,-0.165,-0.165
3686,-0.165,-0.155
3687,-0.155,-0.155
3688,-0.155,-0.145
3689,-0.155,-0.135
3690,-0.165,-0.145
3691,-0.145,-0.135
3692,-0.135,-0.145
3693,-0.125,-0.145
3694,-0.115,-0.135
3695,-0.115,-0.135
3696,-0.105,-0.135
3697,-0.105,-0.135
3698,-0.095,-0.145
3699,-0.085,-0.135
3700,-0.075,-0.145
3701,-0.115,-0.155
3702,-0.115,-0.145
3703,-0.115,-0.145
3704,-0.095,-0.135
3705,-0.105,-0.145
3706,-0.105,-0.145
3707,-0.105,-0.145
3708,-0.105,-0.135
3709,-0.105,-0.145
3710,-0.115,-0.155
3711,-0.095,-0.155
3712,-0.095,-0.135
3713,-0.095,-0.135
3714,-0.115,-0.145
3715,-0.105,-0.145
3716,-0.105,-0.135
3717,-0.105,-0.145
3718,-0.095,-0.155
3719,-0.085,-0.135
3720,-0.085,-0.125
3721,-0.065,-0.125
3722,-0.055,-0.075
3723,-0.015,-0.085
3724,-0.005,-0.085
3725,-0.015,-0.125
3726,-0.035,-0.165
3727,-0.025,-0.205
3728,-0.025,-0.185
3729,-0.045,-0.165
3730,-0.065,-0.185
3731,-0.065,-0.155
3732,-0.075,-0.155
3733,-0.125,-0.145
3734,-0.125,-0.135
3735,-0.125,-0.145
3736,-0.105,-0.125
3737,-0.105,-0.135
3738,-0.105,-0.135
3739,-0.095,-0.135
3740,-0.105,-0.115
3741,-0.135,-0.115
3742,-0.025,-0.085
3743,0.205,-0.045
3744,0.795,-0.025
3745,1.305,-0.075
3746,1.325,-0.215
3747,0.715,-0.125
3748,0.075,0.395
3749,-0.565,0.695
3750,-0.535,0.775
3751,-0.535,0.775
3752,-0.545,0.865
3753,-0.565,0.985
3754,-0.465,1.055
3755,-0.215,0.955
3756,-0.125,0.315
3757,-0.135,-0.075
3758,-0.145,-0.145
3759,-0.135,-0.165
3760,-0.125,-0.195
3761,-0.125,-0.205
3762,-0.125,-0.225
3763,-0.135,-0.225
3764,-0.095,-0.215
3765,-0.085,-0.215
3766,-0.065,-0.205
3767,-0.085,-0.215
3768,-0.075,-0.205
3769,-0.075,-0.215
3770,-0.075,-0.205
3771,-0.075,-0.215
3772,-0.075,-0.195
3773,-0.075,-0.205
3774,-0.055,-0.195
3775,-0.025,-0.185
3776,-0.035,-0.195
3777,-0.035,-0.185
3778,-0.005,-0.175
3779,0.005,-0.185
3780,0.005,-0.175
3781,0.025,-0.155
3782,0.045,-0.155
3783,0.075,-0.145
3784,0.095,-0.125
3785,0.145,-0.115
3786,0.145,-0.095
3787,0.185,-0.095
3788,0.215,-0.075
3789,0.235,-0.065
3790,0.255,-0.045
3791,0.235,-0.025
3792,0.245,-0.015
3793,0.215,-0.005
3794,0.175,-0.005
3795,0.115,-0.015
3796,0.065,-0.035
3797,0.015,-0.065
3798,-0.015,-0.085
3799,-0.045,-0.115
3800,-0.055,-0.125
3801,-0.075,-0.125
3802,-0.085,-0.125
3803,-0.085,-0.135
3804,-0.085,-0.125
3805,-0.075,-0.125
3806,-0.075,-0.145
3807,-0.075,-0.135
3808,-0.075,-0.135
3809,-0.065,-0.105
3810,-0.065,-0.125
3811,-0.045,-0.115
3812,-0.045,-0.115
3813,-0.045,-0.105
3814,-0.035,-0.115
3815,-0.035,-0.115
3816,-0.035,-0.105
3817,-0.015,-0.115
3818,-0.035,-0.125
3819,-0.025,-0.135
3820,-0.035,-0.125
3821,-0.045,-0.125
3822,-0.045,-0.105
3823,-0.055,-0.145
3824,-0.025,-0.115
3825,-0.025,-0.145
3826,-0.035,-0.145
3827,-0.035,-0.145
3828,-0.035,-0.135
3829,-0.025,-0.135
3830,-0.025,-0.135
3831,-0.025,-0.115
3832,-0.005,-0.135
3833,-0.035,-0.125
3834,-0.035,-0.115
3835,-0.035,-0.125
3836,-0.005,-0.125
3837,-0.005,-0.115
3838,-0.015,-0.125
3839,-0.015,-0.125
3840,0.005,-0.105
3841,-0.005,-0.135
3842,0.015,-0.095
3843,0.045,-0.085
3844,0.065,-0.065
3845,0.085,-0.065
3846,0.085,-0.105
3847,0.085,-0.125
3848,0.085,-0.185
3849,0.075,-0.175
3850,0.045,-0.165
3851,0.045,-0.165
3852,0.035,-0.145
3853,0.005,-0.145
3854,-0.005,-0.125
3855,-0.005,-0.125
3856,-0.005,-0.135
3857,-0.005,-0.125
3858,-0.005,-0.095
3859,0.015,-0.125
3860,0.025,-0.115
3861,0.005,-0.115
3862,-0.015,-0.095
3863,0.115,-0.095
3864,0.365,-0.025
3865,0.955,-0.045
3866,1.365,-0.115
3867,1.285,-0.265
3868,0.715,-0.125
3869,0.075,0.325
3870,-0.445,0.585
3871,-0.405,0.665
3872,-0.365,0.645
3873,-0.345,0.715
3874,-0.395,0.855
3875,-0.305,0.935
3876,-0.205,0.905
3877,-0.005,0.535
3878,-0.005,0.025
3879,-0.025,-0.105
3880,-0.015,-0.135
3881,-0.005,-0.145
3882,-0.005,-0.165
3883,0.005,-0.175
3884,0.015,-0.175
3885,0.005,-0.175
3886,0.015,-0.185
3887,0.015,-0.185
3888,0.015,-0.175
3889,0.035,-0.185
3890,0.035,-0.185
3891,0.025,-0.175
3892,0.025,-0.175
3893,0.045,-0.185
3894,0.045,-0.175
3895,0.065,-0.165
3896,0.085,-0.155
3897,0.085,-0.165
3898,0.095,-0.145
3899,0.115,-0.155
3900,0.145,-0.155
3901,0.155,-0.125
3902,0.185,-0.105
3903,0.215,-0.125
3904,0.245,-0.105
3905,0.265,-0.095
3906,0.305,-0.085
3907,0.335,-0.075
3908,0.365,-0.055
3909,0.395,-0.045
3910,0.405,-0.045
3911,0.405,-0.025
3912,0.385,-0.015
3913,0.375,0.005
3914,0.315,-0.005
3915,0.255,-0.005
3916,0.185,-0.025
3917,0.125,-0.025
3918,0.075,-0.065
3919,0.025,-0.085
3920,-0.005,-0.085
3921,-0.025,-0.115
3922,-0.045,-0.105
3923,-0.065,-0.105
3924,-0.085,-0.105
3925,-0.085,-0.135
3926,-0.055,-0.125
3927,-0.055,-0.125
3928,-0.065,-0.105
3929,-0.055,-0.105
3930,-0.075,-0.105
3931,-0.045,-0.125
3932,-0.035,-0.115
3933,-0.025,-0.125
3934,-0.025,-0.115
3935,-0.035,-0.115
3936,-0.035,-0.115
3937,-0.035,-0.125
3938,-0.045,-0.115
3939,-0.035,-0.125
3940,-0.045,-0.125
3941,-0.045,-0.125
3942,-0.045,-0.135
3943,-0.055,-0.145
3944,-0.055,-0.145
3945,-0.045,-0.135
3946,-0.055,-0.125
3947,-0.065,-0.135
3948,-0.055,-0.135
3949,-0.065,-0.135
3950,-0.065,-0.145
3951,-0.075,-0.135
3952,-0.085,-0.135
3953,-0.085,-0.145
3954,-0.095,-0.125
3955,-0.095,-0.145
3956,-0.075,-0.145
3957,-0.085,-0.115
3958,-0.085,-0.135
3959,-0.085,-0.145
3960,-0.075,-0.135
3961,-0.075,-0.125
3962,-0.065,-0.085
3963,-0.035,-0.095
3964,-0.015,-0.065
3965,-0.025,-0.085
3966,-0.035,-0.135
3967,-0.035,-0.175
3968,-0.035,-0.185
3969,-0.055,-0.175
3970,-0.065,-0.175
3971,-0.055,-0.155
3972,-0.065,-0.155
3973,-0.105,-0.155
3974,-0.115,-0.125
3975,-0.135,-0.135
3976,-0.125,-0.135
3977,-0.135,-0.145
3978,-0.145,-0.135
3979,-0.115,-0.135
3980,-0.105,-0.125
3981,-0.135,-0.125
3982,-0.115,-0.125
3983,0.005,-0.115
3984,0.305,-0.035
3985,0.940,-0.085
3986,1.295,-0.175
3987,1.195,-0.315
3988,0.555,-0.115
3989,-0.085,0.355
3990,-0.555,0.575
3991,-0.495,0.615
3992,-0.515,0.635
3993,-0.545,0.775
3994,-0.565,0.865
3995,-0.485,0.925
3996,-0.315,0.865
3997,-0.195,0.365
3998,-0.185,-0.065
3999,-0.175,-0.155
4000,-0.175,-0.145
4001,-0.175,-0.175
4002,-0.175,-0.205
4003,-0.145,-0.215
4004,-0.175,-0.215
4005,-0.175,-0.205
4006,-0.165,-0.215
4007,-0.165,-0.215
4008,-0.155,-0.205
4009,-0.145,-0.205
4010,-0.155,-0.215
4011,-0.135,-0.205
4012,-0.125,-0.215
4013,-0.135,-0.205
4014,-0.135,-0.205
4015,-0.115,-0.205
4016,-0.085,-0.195
4017,-0.085,-0.205
4018,-0.095,-0.175
4019,-0.065,-0.175
4020,-0.055,-0.195
4021,-0.035,-0.175
4022,-0.015,-0.175
4023,-0.005,-0.175
4024,0.015,-0.165
4025,0.045,-0.125
4026,0.065,-0.135
4027,0.115,-0.145
4028,0.135,-0.135
4029,0.175,-0.115
4030,0.185,-0.095
4031,0.175,-0.075
4032,0.175,-0.065
4033,0.195,-0.045
4034,0.155,-0.045
4035,0.115,-0.035
4036,0.045,-0.035
4037,-0.015,-0.045
4038,-0.045,-0.075
4039,-0.085,-0.105
4040,-0.135,-0.115
4041,-0.165,-0.125
4042,-0.185,-0.125
4043,-0.175,-0.155
4044,-0.165,-0.145
4045,-0.175,-0.145
4046,-0.185,-0.145
4047,-0.175,-0.155
4048,-0.195,-0.115
4049,-0.175,-0.145
4050,-0.175,-0.135
4051,-0.145,-0.155
4052,-0.145,-0.135
4053,-0.155,-0.135
4054,-0.145,-0.135
4055,-0.145,-0.145
4056,-0.145,-0.145
4057,-0.165,-0.165
4058,-0.135,-0.075
4059,-0.125,-0.165
4060,-0.125,-0.175
4061,-0.125,-0.185
4062,-0.135,-0.185
4063,-0.165,-0.165
4064,-0.155,-0.155
4065,-0.155,-0.165
4066,-0.135,-0.165
4067,-0.115,-0.145
4068,-0.115,-0.155
4069,-0.125,-0.165
4070,-0.135,-0.155
4071,-0.135,-0.155
4072,-0.135,-0.165
4073,-0.175,-0.155
4074,-0.165,-0.145
4075,-0.115,-0.115
4076,-0.115,-0.165
4077,-0.105,-0.175
4078,-0.125,-0.155
4079,-0.155,-0.145
4080,-0.135,-0.125
4081,-0.105,-0.115
4082,-0.095,-0.165
4083,-0.115,-0.165
4084,-0.125,-0.115
4085,-0.125,-0.115
4086,-0.065,-0.095
4087,0.005,-0.085
4088,-0.035,-0.115
4089,-0.035,-0.035
4090,-0.025,-0.225
4091,-0.035,-0.225
4092,-0.085,-0.205
4093,-0.085,-0.175
4094,-0.135,-0.155
4095,-0.085,-0.165
4096,-0.095,-0.165
4097,-0.135,-0.125
4098,-0.135,-0.145
4099,-0.135,-0.125
4100,-0.145,-0.105
4101,-0.145,-0.155
4102,-0.165,-0.115
4103,-0.115,-0.125
4104,-0.105,-0.115
4105,-0.065,-0.065
4106,0.105,-0.055
4107,0.585,-0.065
4108,1.065,-0.125
4109,1.095,-0.355
4110,0.545,-0.305
4111,-0.095,0.165
4112,-0.565,0.595
4113,-0.565,0.675
4114,-0.595,0.695
4115,-0.625,0.785
4116,-0.625,0.955
4117,-0.515,1.015
4118,-0.405,1.025
4119,-0.195,0.665
4120,-0.155,0.085
4121,-0.115,-0.135
4122,-0.145,-0.205
4123,-0.145,-0.185
4124,-0.135,-0.205
4125,-0.115,-0.215
4126,-0.125,-0.215
4127,-0.115,-0.215
4128,-0.095,-0.185
4129,-0.105,-0.195
4130,-0.105,-0.225
4131,-0.115,-0.265
4132,-0.085,-0.225
4133,-0.075,-0.225
4134,-0.095,-0.215
4135,-0.095,-0.215
4136,-0.065,-0.195
4137,-0.095,-0.195
4138,-0.075,-0.185
4139,-0.045,-0.215
4140,-0.055,-0.205
4141,-0.025,-0.195
4142,0.005,-0.175
4143,-0.005,-0.185
4144,-0.005,-0.185
4145,0.035,-0.175
4146,0.025,-0.145
4147,0.055,-0.155
4148,0.075,-0.115
4149,0.115,-0.085
4150,0.195,-0.165
4151,0.215,-0.225
4152,0.145,-0.135
4153,0.145,-0.125
4154,0.195,-0.095
4155,0.205,-0.125
4156,0.135,-0.075
4157,0.125,-0.025
4158,0.105,0.045
4159,0.055,-0.075
4160,0.045,-0.095
4161,-0.075,-0.105
4162,-0.135,-0.165
4163,-0.115,0.155
4164,-0.065,-0.045
4165,-0.165,-0.165
4166,-0.055,-0.145
4167,-0.125,-0.125
4168,-0.105,-0.175
4169,-0.135,-0.125
4170,-0.115,-0.135
4171,-0.105,-0.115
4172,-0.095,-0.105
4173,-0.155,-0.035
4174,-0.135,-0.045
4175,-0.095,-0.105
4176,-0.075,-0.125
4177,-0.065,-0.065
4178,-0.055,-0.105
4179,-0.105,-0.135
4180,-0.115,-0.135
4181,-0.115,-0.095
4182,-0.145,-0.105
4183,-0.075,-0.115
4184,-0.085,-0.135
4185,-0.085,-0.145
4186,-0.105,-0.095
4187,-0.125,-0.165
4188,-0.105,-0.135
4189,-0.095,-0.105
4190,-0.095,-0.115
4191,-0.095,-0.155
4192,-0.105,-0.025
4193,-0.105,-0.085
4194,-0.105,-0.225
4195,-0.085,-0.205
4196,-0.095,-0.145
4197,-0.095,-0.105
4198,-0.085,-0.135
4199,-0.085,-0.135
4200,-0.095,-0.135
4201,-0.095,-0.135
4202,-0.095,-0.125
4203,-0.075,-0.125
4204,-0.115,-0.065
4205,-0.085,-0.145
4206,-0.095,-0.135
4207,-0.085,-0.125
4208,-0.045,-0.095
4209,0.005,-0.075
4210,0.005,-0.055
4211,-0.015,-0.085
4212,-0.005,-0.135
4213,-0.005,-0.165
4214,-0.005,-0.155
4215,-0.045,-0.165
4216,-0.075,-0.155
4217,-0.035,-0.085
4218,-0.075,-0.165
4219,-0.095,-0.165
4220,-0.095,-0.145
4221,-0.105,-0.125
4222,-0.125,-0.135
4223,-0.125,-0.145
4224,-0.085,-0.135
4225,-0.075,-0.105
4226,-0.075,-0.105
4227,-0.115,-0.115
4228,-0.055,-0.085
4229,0.105,-0.065
4230,0.575,-0.085
4231,0.985,-0.215
4232,0.985,-0.405
4233,0.465,-0.345
4234,-0.175,0.105
4235,-0.455,0.485
4236,-0.505,0.585
4237,-0.485,0.555
4238,-0.475,0.735
4239,-0.555,0.885
4240,-0.435,0.995
4241,-0.325,0.945
4242,-0.135,0.525
4243,-0.095,-0.005
4244,-0.105,-0.115
4245,-0.095,-0.145
4246,-0.095,-0.165
4247,-0.085,-0.205
4248,-0.105,-0.225
4249,-0.115,-0.215
4250,-0.115,-0.205
4251,-0.065,-0.215
4252,-0.045,-0.185
4253,-0.075,-0.225
4254,-0.075,-0.205
4255,-0.065,-0.245
4256,-0.065,-0.195
4257,-0.075,-0.205
4258,-0.095,-0.215
4259,-0.055,-0.185
4260,-0.055,-0.205
4261,-0.045,-0.205
4262,-0.015,-0.195
4263,-0.015,-0.185
4264,-0.005,-0.175
4265,0.015,-0.185
4266,0.045,-0.155
4267,0.065,-0.155
4268,0.055,-0.155
4269,0.075,-0.185
4270,0.115,-0.135
4271,0.155,-0.145
4272,0.175,-0.125
4273,0.215,-0.115
4274,0.195,-0.125
4275,0.235,-0.125
4276,0.255,-0.115
4277,0.265,-0.095
4278,0.255,-0.065
4279,0.225,-0.055
4280,0.225,-0.035
4281,0.135,-0.045
4282,0.065,-0.055
4283,0.035,-0.065
4284,0.005,-0.075
4285,-0.035,-0.085
4286,-0.065,-0.115
4287,-0.075,-0.115
4288,-0.105,-0.115
4289,-0.145,-0.115
4290,-0.195,-0.125
4291,-0.095,-0.115
4292,-0.055,-0.105
4293,-0.085,-0.095
4294,-0.085,-0.095
4295,-0.085,-0.115
4296,-0.085,-0.075
4297,-0.105,-0.105
4298,-0.125,-0.115
4299,-0.095,-0.125
4300,-0.055,-0.115
4301,-0.035,-0.105
4302,-0.035,-0.105
4303,-0.065,-0.115
4304,-0.055,-0.125
4305,-0.085,-0.115
4306,-0.105,-0.125
4307,-0.085,-0.115
4308,-0.065,-0.135
4309,-0.055,-0.125
4310,-0.035,-0.125
4311,-0.045,-0.135
4312,-0.065,-0.135
4313,-0.065,-0.135
4314,-0.065,-0.145
4315,-0.095,-0.125
4316,-0.125,-0.145
4317,-0.105,-0.125
4318,-0.045,-0.135
4319,-0.035,-0.135
4320,-0.055,-0.125
4321,-0.075,-0.155
4322,-0.095,-0.125
4323,-0.085,-0.145
4324,-0.085,-0.145
4325,-0.095,-0.125
4326,-0.095,-0.135
4327,-0.085,-0.145
4328,-0.035,-0.115
4329,-0.025,-0.105
4330,-0.075,-0.095
4331,-0.035,-0.085
4332,-0.005,-0.065
4333,-0.015,-0.125
4334,-0.025,-0.175
4335,-0.045,-0.195
4336,-0.085,-0.155
4337,-0.035,-0.175
4338,-0.055,-0.165
4339,-0.055,-0.155
4340,-0.055,-0.155
4341,-0.115,-0.165
4342,-0.125,-0.145
4343,-0.125,-0.135
4344,-0.115,-0.135
4345,-0.125,-0.165
4346,-0.135,-0.145
4347,-0.115,-0.145
4348,-0.145,-0.135
4349,-0.115,-0.125
4350,0.025,-0.095
4351,0.315,-0.065
4352,0.950,-0.115
4353,1.265,-0.225
4354,0.945,-0.365
4355,0.305,-0.025
4356,-0.335,0.425
4357,-0.485,0.555
4358,-0.415,0.575
4359,-0.445,0.615
4360,-0.455,0.795
4361,-0.475,0.925
4362,-0.415,1.005
4363,-0.275,0.865
4364,-0.155,0.265
4365,-0.145,-0.095
4366,-0.175,-0.165
4367,-0.165,-0.175
4368,-0.165,-0.175
4369,-0.165,-0.205
4370,-0.165,-0.225
4371,-0.155,-0.205
4372,-0.145,-0.225
4373,-0.135,-0.235
4374,-0.135,-0.225
4375,-0.145,-0.225
4376,-0.145,-0.215
4377,-0.145,-0.225
4378,-0.155,-0.225
4379,-0.165,-0.235
4380,-0.105,-0.225
4381,-0.105,-0.205
4382,-0.095,-0.215
4383,-0.105,-0.215
4384,-0.095,-0.225
4385,-0.085,-0.205
4386,-0.075,-0.225
4387,-0.075,-0.205
4388,-0.025,-0.195
4389,-0.035,-0.185
4390,-0.015,-0.185
4391,-0.005,-0.195
4392,0.015,-0.185
4393,0.055,-0.175
4394,0.075,-0.165
4395,0.125,-0.125
4396,0.105,-0.155
4397,0.125,-0.125
4398,0.195,-0.125
4399,0.215,-0.085
4400,0.215,-0.075
4401,0.155,-0.065
4402,0.095,-0.065
4403,0.005,-0.065
4404,-0.055,-0.085
4405,-0.065,-0.105
4406,-0.065,-0.095
4407,-0.095,-0.155
4408,-0.135,-0.125
4409,-0.165,-0.135
4410,-0.195,-0.145
4411,-0.175,-0.165
4412,-0.235,-0.145
4413,-0.155,-0.145
4414,-0.155,-0.135
4415,-0.175,-0.135
4416,-0.125,-0.125
4417,-0.145,-0.155
4418,-0.155,-0.155
4419,-0.145,-0.155
4420,-0.135,-0.145
4421,-0.155,-0.155
4422,-0.135,-0.145
4423,-0.125,-0.155
4424,-0.115,-0.155
4425,-0.145,-0.145
4426,-0.155,-0.165
4427,-0.125,-0.165
4428,-0.135,-0.165
4429,-0.135,-0.155
4430,-0.135,-0.165
4431,-0.135,-0.175
4432,-0.125,-0.165
4433,-0.135,-0.165
4434,-0.135,-0.145
4435,-0.135,-0.165
4436,-0.105,-0.135
4437,-0.105,-0.175
4438,-0.105,-0.165
4439,-0.125,-0.165
4440,-0.135,-0.145
4441,-0.115,-0.185
4442,-0.115,-0.165
4443,-0.095,-0.165
4444,-0.085,-0.145
4445,-0.095,-0.145
4446,-0.095,-0.155
4447,-0.125,-0.145
4448,-0.135,-0.045
4449,-0.155,-0.105
4450,-0.005,-0.155
4451,0.015,-0.195
4452,0.025,-0.115
4453,-0.005,-0.135
4454,-0.015,-0.185
4455,-0.015,-0.205
4456,-0.025,-0.205
4457,-0.045,-0.185
4458,-0.075,-0.175
4459,-0.065,-0.135
4460,-0.065,-0.195
4461,-0.105,-0.175
4462,-0.145,-0.115
4463,-0.095,0.025
4464,-0.085,-0.205
4465,-0.085,-0.285
4466,-0.105,-0.235
4467,-0.085,-0.155
4468,-0.075,-0.145
4469,-0.135,-0.115
4470,-0.075,-0.145
4471,0.095,-0.095
4472,0.495,-0.065
4473,1.025,-0.105
4474,1.225,-0.295
4475,0.865,-0.355
4476,0.225,0.005
4477,-0.365,0.405
4478,-0.505,0.565
4479,-0.465,0.575
4480,-0.435,0.675
4481,-0.485,0.845
4482,-0.475,1.075
4483,-0.355,1.055
4484,-0.125,0.835
4485,-0.095,0.195
4486,-0.105,-0.165
4487,-0.105,-0.195
4488,-0.125,-0.185
4489,-0.115,-0.145
4490,-0.115,-0.205
4491,-0.115,-0.235
4492,-0.085,-0.225
4493,-0.085,-0.215
4494,-0.075,-0.185
4495,-0.075,-0.215
4496,-0.075,-0.205
4497,-0.105,-0.185
4498,-0.085,-0.205
4499,-0.055,-0.195
4500,-0.075,-0.205
4501,-0.045,-0.195
4502,-0.045,-0.185
4503,-0.065,-0.195
4504,-0.035,-0.115
4505,-0.035,-0.185
4506,-0.025,-0.255
4507,0.045,-0.235
4508,0.045,-0.195
4509,0.025,-0.175
4510,0.055,-0.165
4511,0.075,-0.185
4512,0.095,-0.175
4513,0.095,-0.165
4514,0.145,-0.155
4515,0.195,-0.155
4516,0.205,-0.145
4517,0.245,-0.135
4518,0.255,-0.085
4519,0.245,-0.115
4520,0.235,-0.085
4521,0.235,-0.095
4522,0.175,-0.045
4523,0.135,0.025
4524,0.095,-0.055
4525,0.015,-0.095
4526,-0.025,-0.095
4527,-0.085,-0.025
4528,-0.045,-0.095
4529,-0.095,-0.215
4530,-0.095,-0.165
4531,-0.095,-0.145
4532,-0.095,-0.125
4533,-0.095,-0.125
4534,-0.125,-0.115
4535,-0.105,-0.035
4536,-0.085,-0.105
4537,-0.085,-0.155
4538,-0.065,-0.135
4539,-0.085,-0.115
4540,-0.095,-0.105
4541,-0.055,-0.105
4542,-0.055,-0.105
4543,-0.075,-0.125
4544,-0.075,-0.105
4545,-0.065,-0.105
4546,-0.075,-0.105
4547,-0.075,-0.105
4548,-0.085,-0.115
4549,-0.105,-0.105
4550,-0.045,-0.115
4551,-0.025,-0.135
4552,-0.055,-0.125
4553,-0.075,-0.115
4554,-0.085,-0.115
4555,-0.085,-0.105
4556,-0.085,-0.135
4557,-0.075,-0.125
4558,-0.065,-0.125
4559,-0.075,-0.135
4560,-0.075,-0.115
4561,-0.055,-0.125
4562,-0.085,-0.145
4563,-0.105,-0.115
4564,-0.075,-0.125
4565,-0.065,-0.125
4566,-0.085,-0.135
4567,-0.055,-0.145
4568,-0.055,-0.125
4569,-0.035,-0.115
4570,-0.035,-0.095
4571,0.005,0.025
4572,0.025,-0.075
4573,-0.005,-0.185
4574,-0.005,-0.195
4575,0.005,-0.195
4576,-0.025,-0.175
4577,-0.025,-0.175
4578,-0.035,-0.165
4579,-0.045,-0.155
4580,-0.045,-0.155
4581,-0.115,-0.115
4582,-0.105,-0.145
4583,-0.095,-0.155
4584,-0.095,-0.135
4585,-0.085,-0.135
4586,-0.095,-0.135
4587,-0.075,-0.135
4588,-0.075,-0.125
4589,-0.125,-0.105
4590,0.035,-0.105
4591,0.265,-0.055
4592,0.855,-0.115
4593,1.245,-0.235
4594,1.175,-0.375
4595,0.585,-0.225
4596,-0.055,0.195
4597,-0.515,0.465
4598,-0.475,0.525
4599,-0.465,0.525
4600,-0.445,0.685
4601,-0.455,0.825
4602,-0.385,0.935
4603,-0.245,0.855
4604,-0.095,0.325
4605,-0.125,-0.075
4606,-0.095,-0.135
4607,-0.095,-0.145
4608,-0.105,-0.185
4609,-0.095,-0.175
4610,-0.095,-0.185
4611,-0.085,-0.205
4612,-0.095,-0.185
4613,-0.085,-0.205
4614,-0.025,-0.195
4615,-0.085,-0.215
4616,-0.085,-0.215
4617,-0.055,-0.175
4618,-0.075,-0.205
4619,-0.045,-0.215
4620,-0.045,-0.185
4621,-0.025,-0.195
4622,-0.015,-0.195
4623,0.005,-0.195
4624,0.005,-0.175
4625,0.005,-0.165
4626,0.025,-0.175
4627,0.045,-0.175
4628,0.045,-0.175
4629,0.085,-0.155
4630,0.155,-0.145
4631,0.145,-0.165
4632,0.205,-0.155
4633,0.235,-0.155
4634,0.235,-0.155
4635,0.275,-0.145
4636,0.295,-0.115
4637,0.305,-0.125
4638,0.295,-0.105
4639,0.275,-0.085
4640,0.245,-0.075
4641,0.195,-0.065
4642,0.105,-0.065
4643,0.025,-0.055
4644,-0.035,-0.085
4645,-0.045,-0.115
4646,-0.065,-0.115
4647,-0.095,-0.115
4648,-0.125,-0.115
4649,-0.145,-0.115
4650,-0.215,-0.135
4651,-0.145,-0.125
4652,-0.165,-0.105
4653,-0.125,-0.105
4654,-0.105,-0.125
4655,-0.125,-0.115
4656,-0.135,-0.115
4657,-0.145,-0.125
4658,-0.125,-0.135
4659,-0.085,-0.135
4660,-0.105,-0.115
4661,-0.095,-0.135
4662,-0.105,-0.145
4663,-0.095,-0.125
4664,-0.075,-0.145
4665,-0.095,-0.145
4666,-0.105,-0.155
4667,-0.095,-0.155
4668,-0.105,-0.135
4669,-0.125,-0.145
4670,-0.115,-0.145
4671,-0.125,-0.155
4672,-0.105,-0.155
4673,-0.095,-0.145
4674,-0.125,-0.155
4675,-0.125,-0.145
4676,-0.135,-0.145
4677,-0.135,-0.145
4678,-0.115,-0.135
4679,-0.125,-0.135
4680,-0.165,-0.145
4681,-0.185,-0.135
4682,-0.155,-0.135
4683,-0.135,-0.145
4684,-0.135,-0.145
4685,-0.165,-0.135
4686,-0.155,-0.135
4687,-0.145,-0.125
4688,-0.155,-0.145
4689,-0.155,-0.125
4690,-0.145,-0.095
4691,-0.135,-0.085
4692,-0.095,-0.075
4693,-0.095,-0.095
4694,-0.065,-0.145
4695,-0.155,-0.185
4696,-0.065,-0.155
4697,-0.075,-0.175
4698,-0.125,-0.185
4699,-0.115,-0.185
4700,-0.125,-0.165
4701,-0.175,-0.135
4702,-0.165,-0.165
4703,-0.185,-0.155
4704,-0.175,-0.145
4705,-0.165,-0.115
4706,-0.165,-0.125
4707,-0.165,-0.155
4708,-0.145,-0.135
4709,-0.205,-0.135
4710,-0.165,-0.125
4711,-0.055,-0.095
4712,0.165,-0.055
4713,0.695,-0.115
4714,1.135,-0.235
4715,1.045,-0.405
4716,0.465,-0.265
4717,-0.175,0.225
4718,-0.555,0.565
4719,-0.555,0.565
4720,-0.575,0.595
4721,-0.585,0.725
4722,-0.625,0.845
4723,-0.535,0.935
4724,-0.365,0.915
4725,-0.185,0.475
4726,-0.165,-0.025
4727,-0.185,-0.125
4728,-0.175,-0.145
4729,-0.165,-0.185
4730,-0.125,-0.195
4731,-0.175,-0.215
4732,-0.105,-0.225
4733,-0.115,-0.205
4734,-0.135,-0.225
4735,-0.135,-0.225
4736,-0.135,-0.225
4737,-0.175,-0.195
4738,-0.095,-0.215
4739,-0.085,-0.255
4740,-0.105,-0.225
4741,-0.095,-0.215
4742,-0.085,-0.195
4743,-0.075,-0.245
4744,-0.075,-0.225
4745,-0.065,-0.185
4746,-0.105,-0.205
4747,-0.045,-0.215
4748,0.025,-0.205
4749,0.005,-0.195
4750,0.015,-0.185
4751,0.075,-0.175
4752,0.035,-0.175
4753,0.065,-0.205
4754,0.115,-0.175
4755,0.155,-0.165
4756,0.175,-0.175
4757,0.185,-0.145
4758,0.215,-0.145
4759,0.185,-0.105
4760,0.215,-0.085
4761,0.235,-0.095
4762,0.155,-0.065
4763,0.135,-0.075
4764,0.095,-0.045
4765,0.015,-0.055
4766,-0.005,-0.085
4767,-0.065,-0.115
4768,-0.065,-0.105
4769,-0.085,-0.145
4770,-0.135,-0.125
4771,-0.185,-0.145
4772,-0.115,-0.115
4773,-0.075,-0.125
4774,-0.065,-0.105
4775,-0.085,-0.125
4776,-0.085,-0.105
4777,-0.085,-0.095
4778,-0.085,-0.125
4779,-0.115,-0.155
4780,-0.105,-0.125
4781,-0.065,-0.125
4782,-0.025,-0.145
4783,-0.095,-0.105
4784,-0.055,-0.135
4785,-0.075,-0.125
4786,-0.065,-0.155
4787,-0.055,-0.155
4788,-0.095,-0.115
4789,-0.045,-0.155
4790,-0.065,-0.135
4791,-0.055,-0.145
4792,-0.075,-0.145
4793,-0.105,-0.175
4794,-0.085,-0.145
4795,-0.065,-0.145
4796,-0.055,-0.135
4797,-0.065,-0.105
4798,-0.075,-0.165
4799,-0.035,-0.135
4800,-0.055,-0.135
4801,-0.095,-0.155
4802,-0.105,-0.145
4803,-0.045,-0.135
4804,-0.085,-0.115
4805,-0.045,-0.155
4806,-0.065,-0.115
4807,-0.055,-0.155
4808,-0.045,-0.155
4809,-0.035,-0.095
4810,-0.045,-0.075
4811,0.015,-0.105
4812,-0.005,-0.085
4813,-0.035,-0.095
4814,0.045,-0.165
4815,0.025,-0.175
4816,-0.005,-0.195
4817,0.005,-0.145
4818,-0.025,-0.165
4819,0.005,-0.135
4820,-0.085,-0.155
4821,-0.055,-0.145
4822,-0.115,-0.115
4823,-0.065,-0.175
4824,-0.055,-0.125
4825,-0.085,-0.165
4826,-0.085,-0.125
4827,-0.065,-0.115
4828,-0.095,-0.125
4829,-0.095,-0.085
4830,-0.035,-0.065
4831,0.265,-0.095
4832,0.865,-0.095
4833,1.315,-0.215
4834,1.225,-0.395
4835,0.585,-0.335
4836,-0.055,0.175
4837,-0.695,0.515
4838,-0.635,0.595
4839,-0.615,0.635
4840,-0.645,0.785
4841,-0.585,0.945
4842,-0.475,1.045
4843,-0.275,1.005
4844,-0.095,0.415
4845,-0.065,-0.045
4846,-0.155,-0.145
4847,-0.115,-0.165
4848,-0.005,-0.155
4849,-0.075,-0.185
4850,-0.075,-0.195
4851,-0.085,-0.235
4852,-0.075,-0.215
4853,-0.035,-0.215
4854,-0.005,-0.215
4855,-0.045,-0.235
4856,-0.055,-0.245
4857,-0.015,-0.195
4858,-0.055,-0.195
4859,-0.005,-0.215
4860,0.015,-0.215
4861,-0.025,-0.215
4862,-0.005,-0.205
4863,0.015,-0.195
4864,0.035,-0.155
4865,0.005,-0.205
4866,0.025,-0.195
4867,0.025,-0.155
4868,0.025,-0.195
4869,0.075,-0.195
4870,0.135,-0.195
4871,0.125,-0.155
4872,0.145,-0.185
4873,0.185,-0.185
4874,0.175,-0.185
4875,0.225,-0.175
4876,0.245,-0.095
4877,0.325,-0.155
4878,0.315,-0.115
4879,0.245,-0.125
4880,0.325,-0.105
4881,0.225,-0.065
4882,0.155,-0.065
4883,0.115,-0.045
4884,0.085,-0.075
4885,0.035,-0.085
4886,0.045,-0.105
4887,-0.045,-0.075
4888,-0.095,-0.115
4889,-0.025,-0.135
4890,-0.015,-0.105
4891,-0.075,-0.135
4892,-0.095,-0.105
4893,-0.095,-0.085
4894,-0.145,-0.105
4895,-0.075,-0.105
4896,-0.055,-0.095
4897,-0.075,-0.115
4898,-0.045,-0.105
4899,-0.095,-0.035
4900,-0.045,-0.135
4901,-0.065,-0.135
4902,-0.045,-0.105
4903,-0.085,-0.135
4904,0.005,-0.125
4905,-0.055,-0.085
4906,-0.055,-0.125
4907,-0.035,-0.135
4908,-0.065,-0.115
4909,-0.065,-0.115
4910,-0.055,-0.115
4911,-0.045,-0.135
4912,-0.065,-0.075
4913,-0.105,-0.135
4914,-0.075,-0.165
4915,-0.065,-0.105
4916,-0.015,-0.145
4917,-0.045,-0.105
4918,-0.065,-0.125
4919,-0.105,-0.105
4920,-0.065,-0.105
4921,-0.065,-0.165
4922,-0.085,-0.115
4923,-0.085,-0.125
4924,-0.065,-0.125
4925,-0.085,-0.075
4926,-0.075,-0.135
4927,-0.095,-0.135
4928,-0.055,-0.115
4929,-0.025,-0.095
4930,-0.035,-0.085
4931,-0.015,-0.045
4932,0.025,-0.035
4933,0.005,-0.125
4934,0.005,-0.165
4935,-0.015,-0.155
4936,-0.025,-0.175
4937,-0.035,-0.165
4938,-0.015,-0.145
4939,-0.035,-0.095
4940,-0.085,-0.125
4941,-0.095,-0.155
4942,-0.105,-0.085
4943,-0.085,-0.115
4944,-0.105,-0.145
4945,-0.045,-0.135
4946,-0.095,-0.085
4947,-0.085,-0.135
4948,-0.085,-0.125
4949,-0.115,-0.065
4950,0.005,-0.075
4951,0.235,-0.045
4952,0.870,-0.085
4953,1.285,-0.185
4954,1.195,-0.355
4955,0.555,-0.265
4956,-0.085,0.165
4957,-0.645,0.525
4958,-0.625,0.635
4959,-0.605,0.665
4960,-0.595,0.855
4961,-0.625,0.985
4962,-0.525,1.085
4963,-0.295,1.035
4964,-0.135,0.445
4965,-0.125,-0.055
4966,-0.115,-0.115
4967,-0.115,-0.155
4968,-0.155,-0.195
4969,-0.095,-0.205
4970,-0.115,-0.175
4971,-0.095,-0.225
4972,-0.065,-0.215
4973,-0.095,-0.205
4974,-0.095,-0.215
4975,-0.125,-0.215
4976,-0.085,-0.215
4977,-0.095,-0.185
4978,-0.115,-0.205
4979,-0.075,-0.195
4980,-0.075,-0.145
4981,-0.055,-0.215
4982,-0.025,-0.215
4983,-0.075,-0.205
4984,-0.015,-0.185
4985,-0.025,-0.185
4986,-0.025,-0.175
4987,-0.045,-0.185
4988,-0.025,-0.185
4989,-0.025,-0.185
4990,0.005,-0.185
4991,0.025,-0.195
4992,0.055,-0.165
4993,0.105,-0.165
4994,0.075,-0.115
4995,0.125,-0.165
4996,0.155,-0.175
4997,0.155,-0.165
4998,0.165,-0.135
4999,0.185,-0.095
5000,0.195,-0.075
5001,0.165,-0.065
5002,0.115,-0.025
5003,0.095,-0.025
5004,0.055,-0.055
5005,-0.015,-0.035
5006,-0.055,-0.085
5007,-0.105,-0.105
5008,-0.125,-0.105
5009,-0.085,-0.095
5010,-0.105,-0.105
5011,-0.115,-0.125
5012,-0.115,-0.095
5013,-0.135,-0.105
5014,-0.125,-0.085
5015,-0.105,-0.065
5016,-0.115,-0.025
5017,-0.115,-0.085
5018,-0.115,-0.125
5019,-0.095,-0.115
5020,-0.065,-0.095
5021,-0.115,-0.105
5022,-0.075,-0.095
5023,-0.095,-0.095
5024,-0.085,-0.095
5025,-0.075,-0.115
5026,-0.095,-0.125
5027,-0.075,-0.095
5028,-0.065,-0.125
5029,-0.085,-0.105
5030,-0.095,-0.105
5031,-0.095,-0.105
5032,-0.125,-0.105
5033,-0.125,-0.105
5034,-0.105,-0.115
5035,-0.105,-0.125
5036,-0.135,-0.085
5037,-0.105,-0.105
5038,-0.095,-0.085
5039,-0.105,-0.105
5040,-0.125,-0.115
5041,-0.105,-0.125
5042,-0.125,-0.105
5043,-0.125,-0.095
5044,-0.115,-0.075
5045,-0.095,-0.105
5046,-0.105,-0.105
5047,-0.125,-0.115
5048,-0.135,-0.115
5049,-0.105,-0.105
5050,-0.105,-0.065
5051,-0.125,-0.055
5052,-0.025,-0.055
5053,-0.035,-0.045
5054,-0.025,-0.105
5055,-0.055,-0.145
5056,-0.045,-0.145
5057,-0.045,-0.125
5058,-0.065,-0.165
5059,-0.075,-0.135
5060,-0.075,-0.155
5061,-0.125,-0.135
5062,-0.125,-0.105
5063,-0.095,-0.135
5064,-0.115,-0.145
5065,-0.115,-0.135
5066,-0.135,-0.125
5067,-0.115,-0.125
5068,-0.115,-0.065
5069,-0.125,-0.135
5070,-0.095,-0.105
5071,0.015,-0.105
5072,0.335,-0.055
5073,0.965,-0.115
5074,1.215,-0.275
5075,0.925,-0.385
5076,0.305,-0.105
5077,-0.285,0.355
5078,-0.455,0.535
5079,-0.445,0.535
5080,-0.555,0.575
5081,-0.505,0.745
5082,-0.585,0.905
5083,-0.365,1.005
5084,-0.235,0.885
5085,-0.145,0.255
5086,-0.045,-0.145
5087,-0.075,-0.205
5088,-0.105,-0.195
5089,-0.105,-0.205
5090,-0.105,-0.225
5091,-0.125,-0.185
5092,-0.075,-0.215
5093,-0.085,-0.235
5094,-0.075,-0.245
5095,-0.085,-0.235
5096,-0.075,-0.245
5097,-0.065,-0.255
5098,-0.125,-0.225
5099,-0.085,-0.225
5100,-0.065,-0.215
5101,-0.015,-0.225
5102,-0.025,-0.215
5103,-0.025,-0.245
5104,-0.025,-0.225
5105,-0.025,-0.215
5106,-0.005,-0.235
5107,-0.005,-0.195
5108,0.035,-0.235
5109,0.045,-0.215
5110,0.055,-0.195
5111,0.065,-0.195
5112,0.105,-0.195
5113,0.135,-0.185
5114,0.145,-0.165
5115,0.205,-0.145
5116,0.205,-0.135
5117,0.245,-0.135
5118,0.275,-0.085
5119,0.255,-0.115
5120,0.245,-0.085
5121,0.245,-0.065
5122,0.195,-0.045
5123,0.135,-0.075
5124,0.075,-0.075
5125,0.035,-0.095
5126,-0.025,-0.095
5127,-0.065,-0.145
5128,-0.085,-0.125
5129,-0.105,-0.135
5130,-0.135,-0.165
5131,-0.125,-0.155
5132,-0.125,-0.145
5133,-0.125,-0.145
5134,-0.125,-0.145
5135,-0.145,-0.115
5136,-0.145,-0.175
5137,-0.135,-0.185
5138,-0.135,-0.175
5139,-0.115,-0.145
5140,-0.105,-0.165
5141,-0.115,-0.155
5142,-0.125,-0.175
5143,-0.105,-0.155
5144,-0.095,-0.165
5145,-0.105,-0.185
5146,-0.155,-0.185
5147,-0.125,-0.165
5148,-0.105,-0.175
5149,-0.105,-0.175
5150,-0.075,-0.195
5151,-0.105,-0.195
5152,-0.055,-0.175
5153,-0.085,-0.185
5154,-0.125,-0.195
5155,-0.115,-0.195
5156,-0.135,-0.185
5157,-0.105,-0.165
5158,-0.095,-0.185
5159,-0.055,-0.175
5160,-0.075,-0.175
5161,-0.085,-0.175
5162,-0.115,-0.185
5163,-0.095,-0.195
5164,-0.095,-0.165
5165,-0.085,-0.185
5166,-0.055,-0.175
5167,-0.065,-0.145
5168,-0.065,-0.175
5169,-0.055,-0.145
5170,-0.065,-0.145
5171,-0.045,-0.135
5172,0.015,-0.115
5173,0.015,-0.105
5174,0.005,-0.145
5175,-0.015,-0.195
5176,0.015,-0.225
5177,0.005,-0.195
5178,-0.055,-0.195
5179,-0.055,-0.195
5180,-0.025,-0.185
5181,-0.065,-0.195
5182,-0.095,-0.165
5183,-0.125,-0.175
5184,-0.105,-0.165
5185,-0.095,-0.175
5186,-0.115,-0.145
5187,-0.105,-0.165
5188,-0.095,-0.165
5189,-0.135,-0.145
5190,-0.115,-0.145
5191,0.005,-0.105
5192,0.285,-0.085
5193,0.855,-0.095
5194,1.215,-0.235
5195,1.025,-0.395
5196,0.425,-0.135
5197,-0.215,0.355
5198,-0.525,0.595
5199,-0.505,0.625
5200,-0.525,0.665
5201,-0.515,0.805
5202,-0.535,0.955
5203,-0.405,1.045
5204,-0.235,1.025
5205,-0.105,0.445
5206,-0.115,-0.075
5207,-0.135,-0.175
5208,-0.115,-0.185
5209,-0.135,-0.205
5210,-0.135,-0.215
5211,-0.125,-0.245
5212,-0.065,-0.245
5213,-0.065,-0.245
5214,-0.075,-0.245
5215,-0.105,-0.255
5216,-0.085,-0.245
5217,-0.095,-0.245
5218,-0.085,-0.215
5219,-0.085,-0.255
5220,-0.095,-0.245
5221,-0.075,-0.255
5222,-0.055,-0.245
5223,-0.055,-0.245
5224,-0.045,-0.225
5225,-0.065,-0.225
5226,-0.075,-0.235
5227,-0.105,-0.215
5228,-0.005,-0.225
5229,0.055,-0.205
5230,0.045,-0.205
5231,0.045,-0.205
5232,0.055,-0.195
5233,0.075,-0.175
5234,0.075,-0.175
5235,0.105,-0.185
5236,0.145,-0.165
5237,0.145,-0.145
5238,0.155,-0.135
5239,0.215,-0.115
5240,0.205,-0.085
5241,0.195,-0.075
5242,0.175,-0.055
5243,0.125,-0.065
5244,0.075,-0.045
5245,0.025,-0.085
5246,-0.015,-0.105
5247,-0.045,-0.125
5248,-0.065,-0.125
5249,-0.105,-0.135
5250,-0.125,-0.145
5251,-0.095,-0.155
5252,-0.085,-0.145
5253,-0.095,-0.145
5254,-0.105,-0.155
5255,-0.105,-0.155
5256,-0.085,-0.155
5257,-0.085,-0.135
5258,-0.105,-0.145
5259,-0.085,-0.145
5260,-0.075,-0.155
5261,-0.075,-0.145
5262,-0.065,-0.145
5263,-0.065,-0.155
5264,-0.065,-0.155
5265,-0.085,-0.165
5266,-0.095,-0.145
5267,-0.055,-0.165
5268,-0.075,-0.165
5269,-0.085,-0.145
5270,-0.085,-0.185
5271,-0.075,-0.185
5272,-0.065,-0.145
5273,-0.095,-0.165
5274,-0.125,-0.165
5275,-0.105,-0.185
5276,-0.065,-0.165
5277,-0.065,-0.125
5278,-0.065,-0.155
5279,-0.085,-0.185
5280,-0.075,-0.175
5281,-0.075,-0.175
5282,-0.105,-0.175
5283,-0.105,-0.135
5284,-0.105,-0.165
5285,-0.115,-0.175
5286,-0.085,-0.125
5287,-0.095,-0.125
5288,-0.085,-0.145
5289,-0.065,-0.125
5290,-0.035,-0.105
5291,-0.005,-0.085
5292,-0.005,-0.085
5293,-0.015,-0.135
5294,-0.035,-0.195
5295,-0.045,-0.205
5296,-0.095,-0.205
5297,-0.075,-0.065
5298,-0.075,-0.155
5299,-0.065,-0.215
5300,-0.095,-0.205
5301,-0.125,-0.195
5302,-0.135,-0.185
5303,-0.125,-0.165
5304,-0.125,-0.165
5305,-0.115,-0.145
5306,-0.115,-0.145
5307,-0.115,-0.135
5308,-0.125,-0.105
5309,-0.075,-0.105
5310,0.055,-0.075
5311,0.465,-0.075
5312,0.975,-0.115
5313,1.115,-0.325
5314,0.655,-0.345
5315,0.065,0.135
5316,-0.395,0.605
5317,-0.525,0.745
5318,-0.475,0.735
5319,-0.485,0.795
5320,-0.505,0.915
5321,-0.475,1.075
5322,-0.405,1.125
5323,-0.235,1.025
5324,-0.125,0.385
5325,-0.155,-0.095
5326,-0.175,-0.175
5327,-0.175,-0.165
5328,-0.155,-0.195
5329,-0.145,-0.185
5330,-0.155,-0.215
5331,-0.155,-0.265
5332,-0.145,-0.235
5333,-0.145,-0.235
5334,-0.145,-0.255
5335,-0.145,-0.225
5336,-0.135,-0.225
5337,-0.135,-0.185
5338,-0.115,-0.225
5339,-0.125,-0.205
5340,-0.105,-0.205
5341,-0.105,-0.235
5342,-0.095,-0.195
5343,-0.085,-0.215
5344,-0.075,-0.195
5345,-0.085,-0.205
5346,-0.075,-0.145
5347,-0.055,-0.195
5348,-0.025,-0.175
5349,-0.015,-0.175
5350,0.035,-0.175
5351,0.035,-0.165
5352,0.055,-0.135
5353,0.075,-0.135
5354,0.115,-0.085
5355,0.125,-0.145
5356,0.145,-0.115
5357,0.185,-0.085
5358,0.205,-0.075
5359,0.205,-0.095
5360,0.185,-0.035
5361,0.155,-0.025
5362,0.095,-0.025
5363,0.055,-0.045
5364,0.005,-0.085
5365,-0.025,-0.075
5366,-0.035,-0.105
5367,-0.065,-0.105
5368,-0.075,-0.115
5369,-0.085,-0.115
5370,-0.085,-0.115
5371,-0.105,-0.125
5372,-0.075,-0.105
5373,-0.085,-0.095
5374,-0.065,-0.115
5375,-0.055,-0.105
5376,-0.055,-0.115
5377,-0.045,-0.095
5378,-0.055,-0.105
5379,-0.035,-0.105
5380,-0.035,-0.125
5381,-0.015,-0.115
5382,-0.005,-0.075
5383,-0.015,-0.115
5384,-0.035,-0.115
5385,-0.005,-0.115
5386,-0.005,-0.105
5387,-0.015,-0.125
5388,-0.015,-0.125
5389,-0.005,-0.115
5390,-0.005,-0.115
5391,-0.035,-0.125
5392,-0.025,-0.135
5393,-0.015,-0.125
5394,-0.025,-0.105
5395,-0.025,-0.105
5396,-0.015,-0.095
5397,0.005,-0.125
5398,-0.015,-0.165
5399,-0.015,-0.155
5400,-0.025,-0.135
5401,-0.015,-0.135
5402,-0.015,-0.135
5403,-0.005,-0.135
5404,0.015,-0.115
5405,0.005,-0.115
5406,0.005,-0.125
5407,0.025,-0.085
5408,0.035,-0.115
5409,0.045,-0.095
5410,0.015,-0.045
5411,0.045,0.075
5412,0.115,-0.015
5413,0.085,-0.225
5414,0.085,-0.255
5415,0.085,-0.215
5416,0.055,-0.195
5417,0.065,-0.175
5418,0.025,-0.155
5419,0.025,-0.145
5420,0.035,-0.115
5421,-0.035,-0.175
5422,-0.035,-0.135
5423,-0.065,-0.105
5424,-0.035,-0.115
5425,-0.035,-0.105
5426,-0.035,-0.115
5427,-0.015,-0.105
5428,-0.005,-0.085
5429,0.125,-0.065
5430,0.395,-0.035
5431,1.030,-0.045
5432,1.385,-0.165
5433,1.175,-0.285
5434,0.535,-0.045
5435,-0.105,0.355
5436,-0.475,0.535
5437,-0.455,0.545
5438,-0.385,0.575
5439,-0.395,0.725
5440,-0.435,0.865
5441,-0.345,0.935
5442,-0.285,0.885
5443,-0.085,0.525
5444,-0.055,0.035
5445,-0.035,-0.105
5446,-0.075,-0.145
5447,-0.055,-0.155
5448,0.045,-0.175
5449,0.045,-0.175
5450,-0.105,-0.235
5451,-0.075,-0.235
5452,-0.055,-0.195
5453,-0.025,-0.175
5454,-0.015,-0.225
5455,-0.025,-0.215
5456,-0.015,-0.235
5457,-0.035,-0.225
5458,-0.055,-0.205
5459,-0.015,-0.225
5460,-0.015,-0.205
5461,0.005,-0.215
5462,0.015,-0.195
5463,0.025,-0.235
5464,0.155,-0.195
5465,-0.015,-0.155
5466,-0.075,-0.245
5467,-0.015,-0.195
5468,0.035,-0.165
5469,0.065,-0.165
5470,0.105,-0.175
5471,0.115,-0.165
5472,0.125,-0.145
5473,0.145,-0.135
5474,0.235,-0.115
5475,0.175,-0.105
5476,0.145,-0.105
5477,0.215,-0.075
5478,0.245,-0.035
5479,0.235,-0.045
5480,0.235,-0.035
5481,0.265,-0.025
5482,0.155,-0.075
5483,0.015,-0.105
5484,0.065,-0.055
5485,-0.105,-0.175
5486,-0.115,-0.155
5487,-0.095,-0.135
5488,-0.025,-0.145
5489,-0.045,-0.185
5490,-0.135,-0.165
5491,-0.115,-0.165
5492,-0.065,-0.115
5493,-0.085,-0.215
5494,-0.065,-0.175
5495,-0.065,-0.165
5496,-0.065,-0.165
5497,-0.065,-0.165
5498,-0.065,-0.165
5499,-0.035,-0.185
5500,-0.025,-0.185
5501,0.025,-0.165
5502,0.025,-0.185
5503,-0.105,-0.175
5504,-0.075,-0.175
5505,-0.015,-0.195
5506,-0.085,-0.135
5507,-0.065,-0.265
5508,-0.045,-0.175
5509,-0.055,-0.165
5510,-0.045,-0.175
5511,-0.045,-0.205
5512,-0.075,-0.185
5513,-0.065,-0.185
5514,-0.075,-0.175
5515,-0.065,-0.175
5516,-0.065,-0.175
5517,-0.045,-0.155
5518,-0.035,-0.165
5519,-0.045,-0.175
5520,-0.055,-0.175
5521,-0.065,-0.155
5522,0.005,-0.165
5523,-0.005,-0.115
5524,-0.015,-0.225
5525,0.005,-0.155
5526,-0.105,-0.115
5527,-0.095,-0.165
5528,0.005,-0.085
5529,0.025,-0.085
5530,0.015,-0.135
5531,-0.015,-0.215
5532,0.035,-0.205
5533,0.015,-0.195
5534,0.005,-0.205
5535,-0.005,-0.185
5536,-0.015,-0.165
5537,-0.055,-0.165
5538,-0.095,-0.145
5539,-0.085,-0.135
5540,-0.065,-0.125
5541,-0.065,-0.155
5542,-0.075,-0.145
5543,-0.075,-0.145
5544,-0.065,-0.105
5545,-0.095,-0.105
5546,-0.045,-0.105
5547,0.135,-0.065
5548,0.625,-0.025
5549,1.155,-0.035
5550,1.355,-0.175
5551,0.885,-0.195
5552,0.245,0.325
5553,-0.395,0.715
5554,-0.635,0.845
5555,-0.555,0.815
5556,-0.545,0.815
5557,-0.615,0.885
5558,-0.515,0.945
5559,-0.395,0.955
5560,-0.145,0.685
5561,-0.095,0.115
5562,-0.115,-0.145
5563,-0.105,-0.195
5564,-0.105,-0.195
5565,-0.105,-0.225
5566,-0.105,-0.235
5567,-0.075,-0.245
5568,-0.065,-0.245
5569,-0.055,-0.255
5570,-0.085,-0.245
5571,-0.065,-0.245
5572,-0.055,-0.245
5573,-0.065,-0.255
5574,-0.055,-0.245
5575,-0.035,-0.235
5576,-0.025,-0.225
5577,-0.015,-0.235
5578,-0.025,-0.225
5579,-0.015,-0.235
5580,-0.015,-0.235
5581,0.005,-0.195
5582,0.035,-0.205
5583,0.035,-0.225
5584,0.035,-0.205
5585,0.045,-0.195
5586,0.045,-0.195
5587,0.065,-0.165
5588,0.075,-0.145
5589,0.105,-0.135
5590,0.135,-0.125
5591,0.135,-0.115
5592,0.155,-0.085
5593,0.165,-0.085
5594,0.195,-0.065
5595,0.195,-0.065
5596,0.215,-0.045
5597,0.195,-0.035
5598,0.185,-0.015
5599,0.135,-0.065
5600,0.065,-0.085
5601,0.025,-0.105
5602,-0.025,-0.145
5603,-0.045,-0.185
5604,-0.055,-0.185
5605,-0.075,-0.205
5606,-0.075,-0.215
5607,-0.085,-0.215
5608,-0.085,-0.205
5609,-0.105,-0.195
5610,-0.105,-0.205
5611,-0.085,-0.195
5612,-0.065,-0.205
5613,-0.065,-0.185
5614,-0.065,-0.195
5615,-0.055,-0.185
5616,-0.075,-0.185
5617,-0.095,-0.205
5618,-0.105,-0.145
5619,-0.055,-0.175
5620,-0.015,-0.225
5621,-0.045,-0.205
5622,-0.045,-0.205
5623,-0.055,-0.205
5624,-0.065,-0.195
5625,-0.055,-0.195
5626,-0.075,-0.195
5627,-0.065,-0.205
5628,-0.045,-0.195
5629,-0.065,-0.185
5630,-0.075,-0.225
5631,-0.055,-0.175
5632,-0.055,-0.205
5633,-0.065,-0.205
5634,-0.085,-0.195
5635,-0.075,-0.205
5636,-0.075,-0.195
5637,-0.075,-0.195
5638,-0.075,-0.195
5639,-0.075,-0.195
5640,-0.075,-0.185
5641,-0.075,-0.175
5642,-0.075,-0.185
5643,-0.035,-0.135
5644,-0.005,-0.135
5645,-0.005,-0.125
5646,0.015,-0.165
5647,-0.015,-0.215
5648,-0.005,-0.255
5649,-0.025,-0.225
5650,-0.045,-0.195
5651,-0.035,-0.255
5652,-0.055,-0.235
5653,-0.085,-0.205
5654,-0.115,-0.205
5655,-0.115,-0.185
5656,-0.125,-0.205
5657,-0.115,-0.175
5658,-0.105,-0.165
5659,-0.115,-0.205
5660,-0.105,-0.175
5661,-0.135,-0.145
5662,-0.115,-0.105
5663,0.005,-0.095
5664,0.265,-0.085
5665,0.900,-0.105
5666,1.275,-0.185
5667,0.955,-0.255
5668,0.315,0.085
5669,-0.325,0.545
5670,-0.615,0.705
5671,-0.525,0.725
5672,-0.495,0.705
5673,-0.525,0.805
5674,-0.535,0.875
5675,-0.425,0.905
5676,-0.275,0.795
5677,-0.145,0.285
5678,-0.145,-0.105
5679,-0.155,-0.175
5680,-0.145,-0.165
5681,-0.135,-0.155
5682,-0.145,-0.255
5683,-0.135,-0.255
5684,-0.125,-0.245
5685,-0.125,-0.225
5686,-0.115,-0.245
5687,-0.135,-0.275
5688,-0.125,-0.235
5689,-0.105,-0.235
5690,-0.115,-0.245
5691,-0.115,-0.235
5692,-0.125,-0.235
5693,-0.105,-0.215
5694,-0.085,-0.205
5695,-0.085,-0.195
5696,0.055,-0.195
5697,-0.135,-0.225
5698,-0.145,-0.205
5699,-0.095,-0.215
5700,-0.035,-0.175
5701,-0.015,-0.185
5702,0.005,-0.165
5703,0.015,-0.155
5704,0.055,-0.125
5705,0.095,-0.135
5706,0.095,-0.125
5707,0.145,-0.115
5708,0.165,-0.095
5709,0.175,-0.085
5710,0.185,-0.085
5711,0.195,-0.075
5712,0.185,-0.055
5713,0.155,-0.045
5714,0.095,-0.065
5715,0.025,-0.065
5716,-0.015,-0.065
5717,-0.085,-0.085
5718,-0.125,-0.145
5719,-0.165,-0.125
5720,-0.165,-0.135
5721,-0.185,-0.185
5722,-0.195,-0.195
5723,-0.165,-0.175
5724,-0.205,-0.185
5725,-0.195,-0.185
5726,-0.165,-0.165
5727,-0.185,-0.145
5728,-0.165,-0.155
5729,-0.155,-0.165
5730,-0.155,-0.155
5731,-0.145,-0.165
5732,-0.135,-0.165
5733,-0.135,-0.145
5734,-0.125,-0.155
5735,-0.135,-0.165
5736,-0.135,-0.165
5737,-0.145,-0.145
5738,-0.155,-0.105
5739,-0.135,-0.195
5740,-0.135,-0.195
5741,-0.145,-0.175
5742,-0.135,-0.175
5743,-0.145,-0.175
5744,-0.145,-0.175
5745,-0.145,-0.165
5746,-0.165,-0.165
5747,-0.165,-0.165
5748,-0.155,-0.175
5749,-0.155,-0.155
5750,-0.155,-0.165
5751,-0.165,-0.175
5752,-0.145,-0.165
5753,-0.165,-0.165
5754,-0.165,-0.175
5755,-0.165,-0.175
5756,-0.145,-0.155
5757,-0.135,-0.155
5758,-0.135,-0.165
5759,-0.125,-0.135
5760,-0.105,-0.105
5761,-0.075,-0.105
5762,-0.085,-0.115
5763,-0.095,-0.185
5764,-0.095,-0.215
5765,-0.075,-0.215
5766,-0.095,-0.215
5767,-0.095,-0.215
5768,-0.095,-0.195
5769,-0.115,-0.185
5770,-0.145,-0.185
5771,-0.155,-0.175
5772,-0.175,-0.155
5773,-0.165,-0.175
5774,-0.155,-0.185
5775,-0.155,-0.165
5776,-0.145,-0.175
5777,-0.145,-0.155
5778,-0.175,-0.155
5779,-0.145,-0.135
5780,0.005,-0.115
5781,0.345,-0.035
5782,0.980,-0.085
5783,1.325,-0.185
5784,1.105,-0.245
5785,0.465,0.085
5786,-0.175,0.505
5787,-0.655,0.645
5788,-0.565,0.685
5789,-0.555,0.695
5790,-0.585,0.795
5791,-0.585,0.875
5792,-0.485,0.915
5793,-0.285,0.795
5794,-0.185,0.275
5795,-0.175,-0.105
5796,-0.185,-0.175
5797,-0.185,-0.185
5798,-0.175,-0.195
5799,-0.185,-0.215
5800,-0.165,-0.235
5801,-0.155,-0.225
5802,-0.165,-0.225
5803,-0.155,-0.235
5804,-0.155,-0.225
5805,-0.145,-0.205
5806,-0.135,-0.215
5807,-0.145,-0.175
5808,-0.125,-0.225
5809,-0.115,-0.235
5810,-0.115,-0.225
5811,-0.115,-0.215
5812,-0.105,-0.205
5813,-0.085,-0.175
5814,-0.065,-0.195
5815,-0.065,-0.195
5816,-0.055,-0.165
5817,-0.045,-0.145
5818,-0.035,-0.165
5819,-0.015,-0.175
5820,0.015,-0.135
5821,0.035,-0.125
5822,0.065,-0.115
5823,0.075,-0.105
5824,0.125,-0.055
5825,0.125,-0.095
5826,0.135,-0.045
5827,0.155,-0.095
5828,0.155,-0.045
5829,0.165,0.015
5830,0.135,-0.035
5831,0.095,0.005
5832,0.045,-0.075
5833,0.015,-0.095
5834,-0.065,-0.135
5835,-0.095,-0.125
5836,-0.115,-0.135
5837,-0.135,-0.145
5838,-0.135,-0.145
5839,-0.135,-0.145
5840,-0.135,-0.125
5841,-0.145,-0.135
5842,-0.155,-0.145
5843,-0.135,-0.125
5844,-0.125,-0.125
5845,-0.115,-0.065
5846,-0.095,-0.185
5847,-0.115,-0.205
5848,-0.105,-0.175
5849,-0.105,-0.155
5850,-0.105,-0.155
5851,-0.095,-0.125
5852,-0.085,-0.165
5853,-0.095,-0.155
5854,-0.095,-0.155
5855,-0.105,-0.155
5856,-0.115,-0.155
5857,-0.105,-0.075
5858,-0.105,-0.165
5859,-0.105,-0.185
5860,-0.135,-0.215
5861,-0.095,-0.025
5862,-0.085,-0.165
5863,-0.105,-0.235
5864,-0.105,-0.195
5865,-0.095,-0.155
5866,-0.115,-0.165
5867,-0.105,-0.175
5868,-0.105,-0.185
5869,-0.115,-0.165
5870,-0.115,-0.145
5871,-0.105,-0.125
5872,-0.115,-0.185
5873,-0.115,-0.175
5874,-0.135,-0.145
5875,-0.115,-0.125
5876,-0.095,-0.145
5877,-0.105,-0.145
5878,-0.085,-0.125
5879,-0.065,-0.125
5880,-0.025,-0.085
5881,-0.025,-0.105
5882,-0.045,-0.135
5883,-0.055,-0.185
5884,-0.045,-0.175
5885,-0.035,-0.185
5886,-0.055,-0.195
5887,-0.095,-0.175
5888,-0.125,-0.165
5889,-0.115,-0.155
5890,-0.105,-0.115
5891,-0.115,-0.135
5892,-0.105,-0.145
5893,-0.115,-0.165
5894,-0.105,-0.145
5895,-0.105,-0.145
5896,-0.105,-0.135
5897,-0.125,-0.125
5898,-0.115,-0.075
5899,0.015,-0.095
5900,0.365,-0.035
5901,1.000,-0.055
5902,1.275,-0.165
5903,0.935,-0.255
5904,0.295,0.185
5905,-0.345,0.655
5906,-0.645,0.805
5907,-0.555,0.945
5908,-0.515,0.895
5909,-0.585,0.835
5910,-0.525,0.985
5911,-0.425,1.005
5912,-0.145,0.835
5913,-0.105,0.195
5914,-0.135,-0.115
5915,-0.105,-0.175
5916,-0.125,-0.165
5917,-0.115,-0.215
5918,-0.085,-0.205
5919,-0.085,-0.225
5920,-0.085,-0.225
5921,-0.105,-0.235
5922,-0.095,-0.225
5923,-0.075,-0.225
5924,-0.075,-0.215
5925,-0.065,-0.225
5926,-0.055,-0.225
5927,-0.045,-0.215
5928,-0.025,-0.195
5929,-0.035,-0.215
5930,-0.025,-0.195
5931,-0.005,-0.215
5932,-0.005,-0.195
5933,0.015,-0.165
5934,0.025,-0.195
5935,0.045,-0.195
5936,0.055,-0.175
5937,0.065,-0.165
5938,0.075,-0.145
5939,0.135,-0.165
5940,0.165,-0.125
5941,0.185,-0.105
5942,0.095,-0.175
5943,0.155,0.025
5944,0.205,0.005
5945,0.175,-0.225
5946,0.195,-0.115
5947,0.215,-0.125
5948,0.225,-0.045
5949,0.195,-0.025
5950,0.175,-0.035
5951,0.125,-0.065
5952,0.075,-0.065
5953,0.045,-0.075
5954,-0.005,-0.135
5955,-0.015,-0.135
5956,-0.025,-0.145
5957,-0.045,-0.135
5958,-0.025,-0.165
5959,-0.025,-0.175
5960,-0.045,-0.155
5961,-0.035,-0.145
5962,-0.055,-0.145
5963,-0.015,-0.135
5964,-0.025,-0.115
5965,-0.005,-0.135
5966,-0.025,-0.175
5967,-0.015,-0.125
5968,0.005,-0.145
5969,0.005,-0.135
5970,0.015,-0.135
5971,0.065,-0.145
5972,-0.045,-0.155
5973,-0.035,-0.135
5974,-0.045,-0.135
5975,-0.015,-0.165
5976,-0.025,-0.155
5977,-0.025,-0.145
5978,-0.015,-0.115
5979,-0.005,-0.165
5980,-0.015,-0.155
5981,-0.025,-0.165
5982,-0.015,-0.135
5983,-0.015,-0.165
5984,-0.005,-0.145
5985,-0.005,-0.155
5986,-0.045,-0.165
5987,-0.005,-0.155
5988,0.005,-0.135
5989,-0.015,-0.145
5990,-0.005,-0.145
5991,0.015,-0.145
5992,0.055,-0.115
5993,0.055,-0.155
5994,-0.015,-0.145
5995,-0.095,-0.205
5996,-0.045,-0.145
5997,-0.005,-0.105
5998,0.015,-0.085
5999,0.025,-0.075
6000,0.055,-0.065
6001,0.045,-0.095
6002,0.055,-0.155
6003,0.055,-0.185
6004,0.045,-0.175
6005,0.025,-0.165
6006,0.035,-0.185
6007,0.015,-0.165
6008,0.015,-0.165
6009,-0.035,-0.125
6010,-0.055,-0.155
6011,-0.045,-0.135
6012,-0.035,-0.135
6013,-0.025,-0.115
6014,0.025,-0.105
6015,-0.055,-0.095
6016,-0.065,-0.125
6017,-0.015,-0.075
6018,0.135,-0.065
6019,0.575,0.005
6020,1.195,-0.025
6021,1.325,-0.175
6022,0.795,-0.165
6023,0.155,0.305
6024,-0.445,0.665
6025,-0.555,0.815
6026,-0.465,0.755
6027,-0.485,0.725
6028,-0.505,0.785
6029,-0.455,0.845
6030,-0.345,0.895
6031,-0.175,0.735
6032,-0.055,0.235
6033,-0.065,-0.075
6034,-0.025,-0.135
6035,-0.085,-0.155
6036,-0.075,-0.205
6037,-0.065,-0.175
6038,-0.025,-0.205
6039,-0.045,-0.205
6040,-0.025,-0.205
6041,-0.035,-0.205
6042,-0.035,-0.195
6043,0.055,-0.215
6044,0.095,-0.205
6045,-0.105,-0.245
6046,-0.085,-0.185
6047,-0.025,-0.175
6048,0.065,-0.155
6049,-0.005,-0.205
6050,-0.005,-0.205
6051,0.025,-0.185
6052,0.045,-0.175
6053,0.055,-0.155
6054,0.065,-0.155
6055,0.085,-0.165
6056,0.095,-0.125
6057,0.115,-0.125
6058,0.135,-0.125
6059,0.175,-0.105
6060,0.195,-0.085
6061,0.205,-0.055
6062,0.225,-0.065
6063,0.245,-0.055
6064,0.275,-0.025
6065,0.285,-0.035
6066,0.365,-0.025
6067,0.295,-0.035
6068,0.165,-0.025
6069,0.125,-0.025
6070,0.105,-0.025
6071,0.045,-0.055
6072,0.025,-0.125
6073,-0.005,-0.125
6074,-0.025,-0.145
6075,-0.045,-0.165
6076,-0.045,-0.165
6077,-0.065,-0.175
6078,-0.055,-0.165
6079,-0.065,-0.185
6080,-0.025,-0.185
6081,-0.025,-0.175
6082,-0.025,-0.185
6083,-0.005,-0.185
6084,-0.025,-0.165
6085,-0.125,-0.205
6086,-0.075,-0.185
6087,-0.035,-0.155
6088,-0.015,-0.165
6089,-0.015,-0.155
6090,-0.055,-0.195
6091,-0.055,-0.175
6092,0.015,-0.155
6093,0.055,-0.165
6094,-0.055,-0.235
6095,-0.105,-0.185
6096,-0.095,-0.205
6097,-0.095,-0.165
6098,-0.095,-0.175
6099,-0.045,-0.175
6100,-0.065,-0.175
6101,-0.105,-0.225
6102,-0.065,-0.175
6103,-0.075,-0.195
6104,-0.055,-0.205
6105,-0.095,-0.175
6106,-0.095,-0.185
6107,-0.085,-0.175
6108,-0.115,-0.185
6109,-0.135,-0.205
6110,-0.085,-0.185
6111,-0.045,-0.185
6112,-0.095,-0.155
6113,-0.095,-0.205
6114,-0.105,-0.175
6115,-0.075,-0.165
6116,-0.065,-0.145
6117,-0.055,-0.125
6118,-0.015,-0.105
6119,0.015,-0.135
6120,0.045,-0.175
6121,-0.005,-0.255
6122,-0.035,-0.265
6123,-0.105,-0.225
6124,-0.105,-0.225
6125,-0.075,-0.185
6126,-0.065,-0.205
6127,-0.095,-0.185
6128,-0.115,-0.175
6129,-0.115,-0.175
6130,-0.125,-0.175
6131,-0.115,-0.185
6132,-0.105,-0.185
6133,-0.115,-0.165
6134,-0.105,-0.155
6135,-0.145,-0.125
6136,-0.065,-0.085
6137,0.185,-0.085
6138,0.525,-0.095
6139,1.095,-0.045
6140,1.245,-0.185
6141,0.755,-0.175
6142,0.115,0.255
6143,-0.525,0.665
6144,-0.665,0.835
6145,-0.605,0.805
6146,-0.605,0.765
6147,-0.655,0.825
6148,-0.595,0.865
6149,-0.475,0.885
6150,-0.165,0.745
6151,-0.115,0.155
6152,-0.095,-0.125
6153,-0.105,-0.175
6154,-0.145,-0.205
6155,-0.125,-0.215
6156,-0.065,-0.205
6157,-0.145,-0.225
6158,-0.145,-0.235
6159,-0.105,-0.245
6160,-0.075,-0.245
6161,-0.075,-0.235
6162,-0.075,-0.235
6163,-0.075,-0.255
6164,-0.065,-0.235
6165,-0.055,-0.215
6166,-0.045,-0.225
6167,-0.005,-0.215
6168,-0.065,-0.235
6169,-0.025,-0.185
6170,0.005,-0.215
6171,-0.045,-0.235
6172,-0.025,-0.185
6173,-0.015,-0.165
6174,0.015,-0.165
6175,0.015,-0.155
6176,0.055,-0.135
6177,0.065,-0.135
6178,0.055,-0.125
6179,0.095,-0.115
6180,0.185,-0.095
6181,0.155,-0.075
6182,0.185,-0.105
6183,0.115,-0.065
6184,0.125,-0.045
6185,0.165,-0.015
6186,0.195,-0.025
6187,0.195,-0.025
6188,0.155,-0.025
6189,0.105,-0.045
6190,0.065,-0.075
6191,0.025,-0.095
6192,0.015,-0.125
6193,-0.045,-0.145
6194,-0.095,-0.185
6195,-0.085,-0.165
6196,-0.065,-0.175
6197,-0.075,-0.165
6198,-0.055,-0.185
6199,-0.075,-0.185
6200,-0.055,-0.145
6201,-0.075,-0.175
6202,-0.045,-0.175
6203,-0.045,-0.185
6204,0.005,-0.175
6205,-0.025,-0.185
6206,-0.075,-0.175
6207,-0.055,-0.175
6208,-0.025,-0.175
6209,-0.005,-0.165
6210,-0.035,-0.175
6211,-0.065,-0.195
6212,-0.055,-0.175
6213,-0.045,-0.155
6214,-0.045,-0.165
6215,-0.045,-0.205
6216,-0.055,-0.185
6217,-0.055,-0.195
6218,-0.055,-0.205
6219,-0.055,-0.195
6220,-0.045,-0.185
6221,-0.055,-0.185
6222,-0.045,-0.185
6223,-0.065,-0.175
6224,-0.065,-0.185
6225,-0.055,-0.195
6226,-0.075,-0.195
6227,-0.065,-0.185
6228,-0.055,-0.195
6229,-0.065,-0.165
6230,-0.065,-0.195
6231,-0.035,-0.185
6232,-0.045,-0.155
6233,-0.075,-0.205
6234,-0.085,-0.175
6235,-0.035,-0.165
6236,-0.035,-0.165
6237,-0.045,-0.105
6238,-0.015,-0.115
6239,0.015,-0.115
6240,0.025,-0.135
6241,0.005,-0.195
6242,0.005,-0.215
6243,-0.015,-0.225
6244,-0.015,-0.185
6245,-0.015,-0.215
6246,-0.035,-0.185
6247,-0.065,-0.195
6248,-0.085,-0.175
6249,-0.095,-0.165
6250,-0.065,-0.165
6251,-0.095,-0.175
6252,-0.075,-0.165
6253,-0.045,-0.145
6254,-0.105,-0.145
6255,-0.155,-0.155
6256,-0.075,-0.105
6257,0.065,-0.095
6258,0.415,-0.045
6259,1.025,-0.035
6260,1.205,-0.185
6261,0.765,-0.235
6262,0.125,0.215
6263,-0.485,0.705
6264,-0.555,0.865
6265,-0.395,0.885
6266,-0.535,0.775
6267,-0.605,0.875
6268,-0.455,0.945
6269,-0.465,0.965
6270,-0.155,0.725
6271,-0.085,0.265
6272,-0.135,-0.125
6273,-0.095,-0.145
6274,-0.085,-0.165
6275,-0.085,-0.255
6276,-0.075,-0.255
6277,-0.075,-0.255
6278,-0.075,-0.245
6279,-0.065,-0.255
6280,-0.075,-0.245
6281,-0.055,-0.235
6282,-0.055,-0.225
6283,-0.025,-0.215
6284,-0.035,-0.225
6285,-0.045,-0.245
6286,-0.045,-0.225
6287,-0.035,-0.215
6288,-0.015,-0.215
6289,-0.015,-0.205
6290,-0.025,-0.185
6291,-0.015,-0.195
6292,0.015,-0.185
6293,0.025,-0.185
6294,0.015,-0.175
6295,0.025,-0.165
6296,0.075,-0.145
6297,0.065,-0.145
6298,0.075,-0.145
6299,0.115,-0.105
6300,0.145,-0.115
6301,0.145,-0.105
6302,0.175,-0.075
6303,0.205,-0.085
6304,0.195,-0.045
6305,0.195,-0.075
6306,0.205,-0.035
6307,0.215,-0.025
6308,0.195,-0.045
6309,0.125,-0.065
6310,0.085,-0.085
6311,0.035,-0.115
6312,0.015,-0.125
6313,-0.015,-0.135
6314,-0.055,-0.185
6315,-0.045,-0.185
6316,-0.025,-0.185
6317,-0.045,-0.175
6318,-0.025,-0.165
6319,-0.035,-0.175
6320,-0.035,-0.165
6321,-0.015,-0.155
6322,-0.025,-0.175
6323,-0.025,-0.165
6324,-0.015,-0.145
6325,-0.005,-0.145
6326,-0.005,-0.155
6327,-0.015,-0.165
6328,-0.015,-0.135
6329,0.005,-0.165
6330,-0.005,-0.155
6331,-0.025,-0.185
6332,-0.015,-0.175
6333,-0.035,-0.165
6334,-0.025,-0.155
6335,-0.025,-0.175
6336,-0.025,-0.165
6337,-0.035,-0.175
6338,-0.035,-0.145
6339,-0.015,-0.155
6340,-0.025,-0.205
6341,-0.035,-0.165
6342,-0.035,-0.175
6343,-0.025,-0.195
6344,-0.045,-0.175
6345,-0.055,-0.155
6346,-0.055,-0.155
6347,-0.055,-0.155
6348,-0.045,-0.155
6349,-0.045,-0.165
6350,-0.055,-0.165
6351,-0.055,-0.155
6352,-0.055,-0.145
6353,-0.035,-0.145
6354,-0.055,-0.165
6355,-0.055,-0.175
6356,-0.045,-0.145
6357,-0.055,-0.135
6358,-0.025,-0.125
6359,0.015,-0.075
6360,0.025,-0.065
6361,0.005,-0.145
6362,0.005,-0.175
6363,0.015,-0.235
6364,0.005,-0.195
6365,-0.025,-0.205
6366,-0.015,-0.205
6367,-0.035,-0.185
6368,-0.045,-0.145
6369,-0.085,-0.155
6370,-0.095,-0.135
6371,-0.085,-0.165
6372,-0.085,-0.155
6373,-0.075,-0.145
6374,-0.065,-0.145
6375,-0.065,-0.155
6376,-0.085,-0.135
6377,-0.075,-0.115
6378,0.075,-0.085
6379,0.465,-0.065
6380,1.100,-0.055
6381,1.385,-0.145
6382,1.045,-0.195
6383,0.405,0.135
6384,-0.235,0.525
6385,-0.635,0.655
6386,-0.545,0.645
6387,-0.515,0.645
6388,-0.515,0.755
6389,-0.545,0.855
6390,-0.435,0.895
6391,-0.255,0.795
6392,-0.115,0.325
6393,-0.135,-0.065
6394,-0.165,-0.135
6395,-0.135,-0.155
6396,-0.125,-0.185
6397,-0.125,-0.185
6398,-0.115,-0.235
6399,-0.115,-0.225
6400,-0.115,-0.225
6401,-0.115,-0.235
6402,-0.115,-0.225
6403,-0.105,-0.225
6404,-0.095,-0.205
6405,-0.105,-0.215
6406,-0.095,-0.215
6407,-0.115,-0.215
6408,-0.095,-0.115
6409,-0.055,-0.185
6410,-0.085,-0.255
6411,-0.075,-0.235
6412,-0.065,-0.165
6413,-0.065,-0.185
6414,-0.025,-0.185
6415,-0.015,-0.145
6416,-0.005,-0.195
6417,0.015,-0.145
6418,0.025,-0.145
6419,0.055,-0.135
6420,0.075,-0.105
6421,0.095,-0.065
6422,0.125,-0.105
6423,0.145,-0.085
6424,0.155,-0.045
6425,0.155,-0.045
6426,0.085,0.015
6427,0.185,-0.005
6428,0.175,-0.055
6429,0.135,-0.035
6430,0.065,-0.085
6431,-0.015,-0.065
6432,-0.075,-0.085
6433,-0.115,-0.105
6434,-0.175,-0.125
6435,-0.185,-0.095
6436,-0.185,-0.145
6437,-0.195,-0.165
6438,-0.205,-0.145
6439,-0.205,-0.155
6440,-0.205,-0.165
6441,-0.205,-0.155
6442,-0.205,-0.155
6443,-0.185,-0.155
6444,-0.175,-0.145
6445,-0.185,-0.155
6446,-0.185,-0.135
6447,-0.185,-0.165
6448,-0.175,-0.175
6449,-0.175,-0.165
6450,-0.175,-0.155
6451,-0.165,-0.175
6452,-0.175,-0.145
6453,-0.185,-0.145
6454,-0.185,-0.145
6455,-0.215,-0.145
6456,-0.215,-0.175
6457,-0.225,-0.195
6458,-0.235,-0.225
6459,-0.205,-0.255
6460,-0.195,-0.205
6461,-0.215,-0.195
6462,-0.215,-0.225
6463,-0.215,-0.205
6464,-0.215,-0.215
6465,-0.215,-0.195
6466,-0.245,-0.195
6467,-0.255,-0.175
6468,-0.225,-0.215
6469,-0.225,-0.175
6470,-0.195,-0.165
6471,-0.255,-0.145
6472,-0.265,-0.145
6473,-0.115,-0.125
